'Elapsed time','wrist_ppg'
'hh:mm:ss.mmm','mV'
'0:00.000',1220.715
'0:00.004',1219.814
'0:00.008',1218.984
'0:00.012',1218.315
'0:00.016',1217.811
'0:00.020',1217.374
'0:00.023',1216.880
'0:00.027',1216.269
'0:00.031',1215.533
'0:00.035',1214.682
'0:00.039',1213.755
'0:00.043',1212.803
'0:00.047',1211.893
'0:00.051',1211.076
'0:00.055',1210.390
'0:00.059',1209.873
'0:00.063',1209.530
'0:00.066',1209.389
'0:00.070',1209.459
'0:00.074',1209.731
'0:00.078',1210.131
'0:00.082',1210.575
'0:00.086',1211.005
'0:00.090',1211.378
'0:00.094',1211.671
'0:00.098',1211.886
'0:00.102',1212.054
'0:00.105',1212.208
'0:00.109',1212.373
'0:00.113',1212.561
'0:00.117',1212.783
'0:00.121',1213.066
'0:00.125',1213.442
'0:00.129',1213.916
'0:00.133',1214.454
'0:00.137',1214.988
'0:00.141',1215.435
'0:00.145',1215.714
'0:00.148',1215.795
'0:00.152',1215.694
'0:00.156',1215.459
'0:00.160',1215.119
'0:00.164',1214.679
'0:00.168',1214.158
'0:00.172',1213.623
'0:00.176',1213.153
'0:00.180',1212.817
'0:00.184',1212.629
'0:00.188',1212.561
'0:00.191',1212.558
'0:00.195',1212.585
'0:00.199',1212.635
'0:00.203',1212.686
'0:00.207',1212.719
'0:00.211',1212.726
'0:00.215',1212.709
'0:00.219',1212.696
'0:00.223',1212.692
'0:00.227',1212.703
'0:00.230',1212.753
'0:00.234',1212.864
'0:00.238',1213.032
'0:00.242',1213.257
'0:00.246',1213.536
'0:00.250',1213.862
'0:00.254',1214.252
'0:00.258',1214.699
'0:00.262',1215.166
'0:00.266',1215.640
'0:00.270',1216.114
'0:00.273',1216.561
'0:00.277',1216.924
'0:00.281',1217.149
'0:00.285',1217.230
'0:00.289',1217.247
'0:00.293',1217.284
'0:00.297',1217.378
'0:00.301',1217.509
'0:00.305',1217.667
'0:00.309',1217.842
'0:00.313',1217.966
'0:00.316',1217.959
'0:00.320',1217.794
'0:00.324',1217.529
'0:00.328',1217.240
'0:00.332',1216.941
'0:00.336',1216.601
'0:00.340',1216.181
'0:00.344',1215.660
'0:00.348',1215.032
'0:00.352',1214.349
'0:00.355',1213.687
'0:00.359',1213.113
'0:00.363',1212.676
'0:00.367',1212.454
'0:00.371',1212.494
'0:00.375',1212.773
'0:00.379',1213.187
'0:00.383',1213.634
'0:00.387',1214.097
'0:00.391',1214.655
'0:00.395',1215.375
'0:00.398',1216.228
'0:00.402',1217.095
'0:00.406',1217.825
'0:00.410',1218.315
'0:00.414',1218.534
'0:00.418',1218.544
'0:00.422',1218.443
'0:00.426',1218.319
'0:00.430',1218.228
'0:00.434',1218.221
'0:00.438',1218.268
'0:00.441',1218.295
'0:00.445',1218.235
'0:00.449',1218.080
'0:00.453',1217.838
'0:00.457',1217.489
'0:00.461',1217.011
'0:00.465',1216.416
'0:00.469',1215.758
'0:00.473',1215.082
'0:00.477',1214.447
'0:00.480',1213.929
'0:00.484',1213.610
'0:00.488',1213.570
'0:00.492',1213.849
'0:00.496',1214.430
'0:00.500',1215.243
'0:00.504',1216.151
'0:00.508',1216.984
'0:00.512',1217.586
'0:00.516',1217.889
'0:00.520',1217.936
'0:00.523',1217.805
'0:00.527',1217.583
'0:00.531',1217.314
'0:00.535',1217.038
'0:00.539',1216.823
'0:00.543',1216.773
'0:00.547',1216.934
'0:00.551',1217.274
'0:00.555',1217.704
'0:00.559',1218.194
'0:00.563',1218.762
'0:00.566',1219.438
'0:00.570',1220.171
'0:00.574',1220.826
'0:00.578',1221.266
'0:00.582',1221.411
'0:00.586',1221.253
'0:00.590',1220.870
'0:00.594',1220.403
'0:00.598',1220.023
'0:00.602',1219.865
'0:00.605',1219.949
'0:00.609',1220.167
'0:00.613',1220.349
'0:00.617',1220.315
'0:00.621',1219.946
'0:00.625',1219.193
'0:00.629',1218.094
'0:00.633',1216.769
'0:00.637',1215.401
'0:00.641',1214.155
'0:00.645',1213.133
'0:00.648',1212.323
'0:00.652',1211.644
'0:00.656',1211.029
'0:00.660',1210.518
'0:00.664',1210.219
'0:00.668',1210.246
'0:00.672',1210.649
'0:00.676',1211.459
'0:00.680',1212.662
'0:00.684',1214.212
'0:00.688',1216.030
'0:00.691',1218.013
'0:00.695',1220.006
'0:00.699',1221.831
'0:00.703',1223.290
'0:00.707',1224.211
'0:00.711',1224.516
'0:00.715',1224.204
'0:00.719',1223.360
'0:00.723',1222.130
'0:00.727',1220.678
'0:00.730',1219.112
'0:00.734',1217.509
'0:00.738',1215.983
'0:00.742',1214.712
'0:00.746',1213.852
'0:00.750',1213.523
'0:00.754',1213.781
'0:00.758',1214.638
'0:00.762',1216.027
'0:00.766',1217.818
'0:00.770',1219.774
'0:00.773',1221.616
'0:00.777',1223.088
'0:00.781',1224.043
'0:00.785',1224.422
'0:00.789',1224.234
'0:00.793',1223.552
'0:00.797',1222.507
'0:00.801',1221.287
'0:00.805',1220.100
'0:00.809',1219.102
'0:00.813',1218.369
'0:00.816',1217.872
'0:00.820',1217.542
'0:00.824',1217.321
'0:00.828',1217.166
'0:00.832',1217.021
'0:00.836',1216.796
'0:00.840',1216.440
'0:00.844',1215.969
'0:00.848',1215.442
'0:00.852',1214.884
'0:00.855',1214.312
'0:00.859',1213.795
'0:00.863',1213.449
'0:00.867',1213.402
'0:00.871',1213.728
'0:00.875',1214.433
'0:00.879',1215.452
'0:00.883',1216.655
'0:00.887',1217.879
'0:00.891',1218.964
'0:00.895',1219.771
'0:00.898',1220.184
'0:00.902',1220.161
'0:00.906',1219.707
'0:00.910',1218.860
'0:00.914',1217.710
'0:00.918',1216.420
'0:00.922',1215.203
'0:00.926',1214.269
'0:00.930',1213.724
'0:00.934',1213.570
'0:00.938',1213.714
'0:00.941',1214.070
'0:00.945',1214.612
'0:00.949',1215.334
'0:00.953',1216.174
'0:00.957',1217.011
'0:00.961',1217.731
'0:00.965',1218.292
'0:00.969',1218.746
'0:00.973',1219.169
'0:00.977',1219.596
'0:00.980',1220.040
'0:00.984',1220.507
'0:00.988',1220.981
'0:00.992',1221.431
'0:00.996',1221.808
'0:01.000',1222.070
'0:01.004',1222.167
'0:01.008',1222.090
'0:01.012',1221.895
'0:01.016',1221.683
'0:01.020',1221.545
'0:01.023',1221.535
'0:01.027',1221.643
'0:01.031',1221.808
'0:01.035',1221.965
'0:01.039',1222.097
'0:01.043',1222.228
'0:01.047',1222.372
'0:01.051',1222.544
'0:01.055',1222.742
'0:01.059',1222.937
'0:01.063',1223.075
'0:01.066',1223.128
'0:01.070',1223.105
'0:01.074',1223.028
'0:01.078',1222.933
'0:01.082',1222.860
'0:01.086',1222.829
'0:01.090',1222.856
'0:01.094',1222.913
'0:01.098',1222.933
'0:01.102',1222.866
'0:01.105',1222.695
'0:01.109',1222.433
'0:01.113',1222.070
'0:01.117',1221.602
'0:01.121',1221.028
'0:01.125',1220.376
'0:01.129',1219.714
'0:01.133',1219.088
'0:01.137',1218.494
'0:01.141',1217.919
'0:01.145',1217.428
'0:01.148',1217.119
'0:01.152',1217.062
'0:01.156',1217.263
'0:01.160',1217.657
'0:01.164',1218.117
'0:01.168',1218.483
'0:01.172',1218.628
'0:01.176',1218.510
'0:01.180',1218.208
'0:01.184',1217.885
'0:01.188',1217.694
'0:01.191',1217.731
'0:01.195',1218.016
'0:01.199',1218.504
'0:01.203',1219.062
'0:01.207',1219.512
'0:01.211',1219.690
'0:01.215',1219.532
'0:01.219',1219.082
'0:01.223',1218.436
'0:01.227',1217.690
'0:01.230',1216.978
'0:01.234',1216.413
'0:01.238',1216.067
'0:01.242',1215.943
'0:01.246',1216.040
'0:01.250',1216.322
'0:01.254',1216.753
'0:01.258',1217.304
'0:01.262',1217.936
'0:01.266',1218.584
'0:01.270',1219.156
'0:01.273',1219.535
'0:01.277',1219.677
'0:01.281',1219.613
'0:01.285',1219.398
'0:01.289',1219.099
'0:01.293',1218.766
'0:01.297',1218.403
'0:01.301',1217.983
'0:01.305',1217.539
'0:01.309',1217.112
'0:01.313',1216.739
'0:01.316',1216.440
'0:01.320',1216.222
'0:01.324',1216.053
'0:01.328',1215.885
'0:01.332',1215.660
'0:01.336',1215.398
'0:01.340',1215.126
'0:01.344',1214.867
'0:01.348',1214.638
'0:01.352',1214.467
'0:01.355',1214.353
'0:01.359',1214.252
'0:01.363',1214.111
'0:01.367',1213.909
'0:01.371',1213.650
'0:01.375',1213.355
'0:01.379',1213.055
'0:01.383',1212.783
'0:01.387',1212.561
'0:01.391',1212.403
'0:01.395',1212.326
'0:01.398',1212.346
'0:01.402',1212.481
'0:01.406',1212.719
'0:01.410',1213.052
'0:01.414',1213.445
'0:01.418',1213.872
'0:01.422',1214.312
'0:01.426',1214.770
'0:01.430',1215.243
'0:01.434',1215.701
'0:01.438',1216.077
'0:01.441',1216.319
'0:01.445',1216.420
'0:01.449',1216.420
'0:01.453',1216.363
'0:01.457',1216.295
'0:01.461',1216.242
'0:01.465',1216.178
'0:01.469',1216.057
'0:01.473',1215.882
'0:01.477',1215.690
'0:01.480',1215.536
'0:01.484',1215.432
'0:01.488',1215.371
'0:01.492',1215.341
'0:01.496',1215.301
'0:01.500',1215.217
'0:01.504',1215.052
'0:01.508',1214.823
'0:01.512',1214.541
'0:01.516',1214.215
'0:01.520',1213.862
'0:01.523',1213.539
'0:01.527',1213.311
'0:01.531',1213.200
'0:01.535',1213.213
'0:01.539',1213.338
'0:01.543',1213.516
'0:01.547',1213.687
'0:01.551',1213.812
'0:01.555',1213.876
'0:01.559',1213.865
'0:01.563',1213.788
'0:01.566',1213.657
'0:01.570',1213.496
'0:01.574',1213.351
'0:01.578',1213.247
'0:01.582',1213.180
'0:01.586',1213.133
'0:01.590',1213.079
'0:01.594',1212.988
'0:01.598',1212.861
'0:01.602',1212.723
'0:01.605',1212.582
'0:01.609',1212.464
'0:01.613',1212.390
'0:01.617',1212.346
'0:01.621',1212.282
'0:01.625',1212.148
'0:01.629',1211.930
'0:01.633',1211.661
'0:01.637',1211.412
'0:01.641',1211.254
'0:01.645',1211.227
'0:01.648',1211.321
'0:01.652',1211.476
'0:01.656',1211.620
'0:01.660',1211.718
'0:01.664',1211.748
'0:01.668',1211.725
'0:01.672',1211.661
'0:01.676',1211.543
'0:01.680',1211.358
'0:01.684',1211.079
'0:01.688',1210.686
'0:01.691',1210.205
'0:01.695',1209.681
'0:01.699',1209.157
'0:01.703',1208.676
'0:01.707',1208.290
'0:01.711',1208.017
'0:01.715',1207.873
'0:01.719',1207.849
'0:01.723',1207.859
'0:01.727',1207.745
'0:01.730',1207.359
'0:01.734',1206.659
'0:01.738',1205.755
'0:01.742',1204.845
'0:01.746',1204.108
'0:01.750',1203.675
'0:01.754',1203.604
'0:01.758',1203.914
'0:01.762',1204.572
'0:01.766',1205.510
'0:01.770',1206.612
'0:01.773',1207.748
'0:01.777',1208.824
'0:01.781',1209.839
'0:01.785',1210.817
'0:01.789',1211.772
'0:01.793',1212.706
'0:01.797',1213.623
'0:01.801',1214.511
'0:01.805',1215.361
'0:01.809',1216.215
'0:01.813',1217.156
'0:01.816',1218.221
'0:01.820',1219.391
'0:01.824',1220.567
'0:01.828',1221.623
'0:01.832',1222.446
'0:01.836',1223.021
'0:01.840',1223.394
'0:01.844',1223.633
'0:01.848',1223.723
'0:01.852',1223.579
'0:01.855',1223.105
'0:01.859',1222.251
'0:01.863',1221.045
'0:01.867',1219.576
'0:01.871',1217.959
'0:01.875',1216.272
'0:01.879',1214.554
'0:01.883',1212.894
'0:01.887',1211.446
'0:01.891',1210.350
'0:01.895',1209.671
'0:01.898',1209.345
'0:01.902',1209.224
'0:01.906',1209.184
'0:01.910',1209.150
'0:01.914',1209.089
'0:01.918',1208.992
'0:01.922',1208.881
'0:01.926',1208.760
'0:01.930',1208.619
'0:01.934',1208.498
'0:01.938',1208.478
'0:01.941',1208.612
'0:01.945',1208.868
'0:01.949',1209.180
'0:01.953',1209.476
'0:01.957',1209.728
'0:01.961',1209.940
'0:01.965',1210.172
'0:01.969',1210.451
'0:01.973',1210.763
'0:01.977',1211.072
'0:01.980',1211.351
'0:01.984',1211.607
'0:01.988',1211.842
'0:01.992',1212.047
'0:01.996',1212.208
'0:02.000',1212.306
'0:02.004',1212.245
'0:02.008',1211.896
'0:02.012',1211.167
'0:02.016',1210.088
'0:02.020',1208.811
'0:02.023',1207.564
'0:02.027',1206.572
'0:02.031',1205.984
'0:02.035',1205.843
'0:02.039',1206.132
'0:02.043',1206.757
'0:02.047',1207.590
'0:02.051',1208.505
'0:02.055',1209.432
'0:02.059',1210.353
'0:02.063',1211.288
'0:02.066',1212.205
'0:02.070',1213.022
'0:02.074',1213.671
'0:02.078',1214.188
'0:02.082',1214.659
'0:02.086',1215.133
'0:02.090',1215.596
'0:02.094',1216.047
'0:02.098',1216.464
'0:02.102',1216.820
'0:02.105',1217.075
'0:02.109',1217.223
'0:02.113',1217.284
'0:02.117',1217.300
'0:02.121',1217.267
'0:02.125',1217.156
'0:02.129',1217.005
'0:02.133',1216.911
'0:02.137',1216.968
'0:02.141',1217.173
'0:02.145',1217.442
'0:02.148',1217.707
'0:02.152',1217.949
'0:02.156',1218.164
'0:02.160',1218.305
'0:02.164',1218.278
'0:02.168',1217.989
'0:02.172',1217.421
'0:02.176',1216.638
'0:02.180',1215.801
'0:02.184',1215.082
'0:02.188',1214.615
'0:02.191',1214.450
'0:02.195',1214.558
'0:02.199',1214.830
'0:02.203',1215.109
'0:02.207',1215.220
'0:02.211',1215.089
'0:02.215',1214.793
'0:02.219',1214.494
'0:02.223',1214.312
'0:02.227',1214.252
'0:02.230',1214.265
'0:02.234',1214.319
'0:02.238',1214.410
'0:02.242',1214.538
'0:02.246',1214.696
'0:02.250',1214.857
'0:02.254',1214.951
'0:02.258',1214.904
'0:02.262',1214.689
'0:02.266',1214.329
'0:02.270',1213.862
'0:02.273',1213.324
'0:02.277',1212.783
'0:02.281',1212.303
'0:02.285',1211.919
'0:02.289',1211.664
'0:02.293',1211.563
'0:02.297',1211.630
'0:02.301',1211.815
'0:02.305',1212.027
'0:02.309',1212.155
'0:02.313',1212.155
'0:02.316',1212.064
'0:02.320',1211.956
'0:02.324',1211.879
'0:02.328',1211.849
'0:02.332',1211.839
'0:02.336',1211.792
'0:02.340',1211.654
'0:02.344',1211.415
'0:02.348',1211.099
'0:02.352',1210.709
'0:02.355',1210.249
'0:02.359',1209.738
'0:02.363',1209.204
'0:02.367',1208.679
'0:02.371',1208.185
'0:02.375',1207.748
'0:02.379',1207.392
'0:02.383',1207.120
'0:02.387',1206.912
'0:02.391',1206.733
'0:02.395',1206.562
'0:02.398',1206.411
'0:02.402',1206.303
'0:02.406',1206.256
'0:02.410',1206.260
'0:02.414',1206.283
'0:02.418',1206.283
'0:02.422',1206.226
'0:02.426',1206.098
'0:02.430',1205.897
'0:02.434',1205.675
'0:02.438',1205.513
'0:02.441',1205.510
'0:02.445',1205.705
'0:02.449',1206.068
'0:02.453',1206.538
'0:02.457',1207.046
'0:02.461',1207.530
'0:02.465',1207.947
'0:02.469',1208.276
'0:02.473',1208.505
'0:02.477',1208.646
'0:02.480',1208.730
'0:02.484',1208.817
'0:02.488',1208.921
'0:02.492',1209.022
'0:02.496',1209.113
'0:02.500',1209.184
'0:02.504',1209.237
'0:02.508',1209.261
'0:02.512',1209.227
'0:02.516',1209.113
'0:02.520',1208.932
'0:02.523',1208.723
'0:02.527',1208.515
'0:02.531',1208.303
'0:02.535',1208.078
'0:02.539',1207.822
'0:02.543',1207.540
'0:02.547',1207.268
'0:02.551',1207.093
'0:02.555',1207.103
'0:02.559',1207.355
'0:02.563',1207.802
'0:02.566',1208.353
'0:02.570',1208.938
'0:02.574',1209.513
'0:02.578',1210.041
'0:02.582',1210.481
'0:02.586',1210.830
'0:02.590',1211.140
'0:02.594',1211.452
'0:02.598',1211.788
'0:02.602',1212.148
'0:02.605',1212.531
'0:02.609',1212.978
'0:02.613',1213.587
'0:02.617',1214.427
'0:02.621',1215.465
'0:02.625',1216.558
'0:02.629',1217.522
'0:02.633',1218.231
'0:02.637',1218.604
'0:02.641',1218.608
'0:02.645',1218.231
'0:02.648',1217.482
'0:02.652',1216.386
'0:02.656',1214.998
'0:02.660',1213.459
'0:02.664',1211.980
'0:02.668',1210.800
'0:02.672',1210.115
'0:02.676',1210.007
'0:02.680',1210.434
'0:02.684',1211.247
'0:02.688',1212.239
'0:02.691',1213.203
'0:02.695',1213.993
'0:02.699',1214.534
'0:02.703',1214.823
'0:02.707',1214.887
'0:02.711',1214.759
'0:02.715',1214.484
'0:02.719',1214.121
'0:02.723',1213.721
'0:02.727',1213.365
'0:02.730',1213.153
'0:02.734',1213.123
'0:02.738',1213.240
'0:02.742',1213.479
'0:02.746',1213.832
'0:02.750',1214.279
'0:02.754',1214.770
'0:02.758',1215.250
'0:02.762',1215.670
'0:02.766',1216.013
'0:02.770',1216.289
'0:02.773',1216.511
'0:02.777',1216.716
'0:02.781',1216.937
'0:02.785',1217.176
'0:02.789',1217.398
'0:02.793',1217.586
'0:02.797',1217.768
'0:02.801',1217.966
'0:02.805',1218.205
'0:02.809',1218.490
'0:02.813',1218.833
'0:02.816',1219.253
'0:02.820',1219.791
'0:02.824',1220.473
'0:02.828',1221.270
'0:02.832',1222.100
'0:02.836',1222.910
'0:02.840',1223.680
'0:02.844',1224.399
'0:02.848',1225.041
'0:02.852',1225.595
'0:02.855',1226.093
'0:02.859',1226.557
'0:02.863',1226.946
'0:02.867',1227.195
'0:02.871',1227.242
'0:02.875',1227.078
'0:02.879',1226.755
'0:02.883',1226.405
'0:02.887',1226.170
'0:02.891',1226.140
'0:02.895',1226.321
'0:02.898',1226.647
'0:02.902',1227.047
'0:02.906',1227.464
'0:02.910',1227.877
'0:02.914',1228.267
'0:02.918',1228.610
'0:02.922',1228.856
'0:02.926',1228.960
'0:02.930',1228.929
'0:02.934',1228.792
'0:02.938',1228.553
'0:02.941',1228.247
'0:02.945',1227.891
'0:02.949',1227.447
'0:02.953',1226.832
'0:02.957',1226.029
'0:02.961',1225.148
'0:02.965',1224.355
'0:02.969',1223.794
'0:02.973',1223.552
'0:02.977',1223.639
'0:02.980',1223.982
'0:02.984',1224.409
'0:02.988',1224.742
'0:02.992',1224.883
'0:02.996',1224.829
'0:03.000',1224.604
'0:03.004',1224.177
'0:03.008',1223.525
'0:03.012',1222.695
'0:03.016',1221.814
'0:03.020',1221.008
'0:03.023',1220.329
'0:03.027',1219.814
'0:03.031',1219.512
'0:03.035',1219.475
'0:03.039',1219.667
'0:03.043',1219.969
'0:03.047',1220.241
'0:03.051',1220.399
'0:03.055',1220.440
'0:03.059',1220.416
'0:03.063',1220.359
'0:03.066',1220.282
'0:03.070',1220.201
'0:03.074',1220.140
'0:03.078',1220.103
'0:03.082',1220.073
'0:03.086',1220.033
'0:03.090',1219.986
'0:03.094',1219.932
'0:03.098',1219.858
'0:03.102',1219.754
'0:03.105',1219.596
'0:03.109',1219.357
'0:03.113',1219.051
'0:03.117',1218.732
'0:03.121',1218.463
'0:03.125',1218.265
'0:03.129',1218.124
'0:03.133',1218.040
'0:03.137',1218.090
'0:03.141',1218.373
'0:03.145',1218.967
'0:03.148',1219.865
'0:03.152',1220.950
'0:03.156',1222.066
'0:03.160',1223.065
'0:03.164',1223.838
'0:03.168',1224.355
'0:03.172',1224.661
'0:03.176',1224.869
'0:03.180',1225.142
'0:03.184',1225.582
'0:03.188',1226.187
'0:03.191',1226.886
'0:03.195',1227.578
'0:03.199',1228.173
'0:03.203',1228.583
'0:03.207',1228.751
'0:03.211',1228.640
'0:03.215',1228.237
'0:03.219',1227.541
'0:03.223',1226.540
'0:03.227',1225.246
'0:03.230',1223.737
'0:03.234',1222.181
'0:03.238',1220.776
'0:03.242',1219.660
'0:03.246',1218.843
'0:03.250',1218.241
'0:03.254',1217.758
'0:03.258',1217.334
'0:03.262',1216.934
'0:03.266',1216.514
'0:03.270',1216.033
'0:03.273',1215.489
'0:03.277',1214.894
'0:03.281',1214.282
'0:03.285',1213.681
'0:03.289',1213.092
'0:03.293',1212.535
'0:03.297',1212.044
'0:03.301',1211.651
'0:03.305',1211.382
'0:03.309',1211.271
'0:03.313',1211.335
'0:03.316',1211.550
'0:03.320',1211.876
'0:03.324',1212.306
'0:03.328',1212.820
'0:03.332',1213.375
'0:03.336',1213.899
'0:03.340',1214.339
'0:03.344',1214.696
'0:03.348',1214.988
'0:03.352',1215.227
'0:03.355',1215.452
'0:03.359',1215.697
'0:03.363',1215.953
'0:03.367',1216.178
'0:03.371',1216.356
'0:03.375',1216.497
'0:03.379',1216.601
'0:03.383',1216.648
'0:03.387',1216.621
'0:03.391',1216.527
'0:03.395',1216.410
'0:03.398',1216.349
'0:03.402',1216.400
'0:03.406',1216.564
'0:03.410',1216.847
'0:03.414',1217.230
'0:03.418',1217.647
'0:03.422',1218.010
'0:03.426',1218.245
'0:03.430',1218.302
'0:03.434',1218.164
'0:03.438',1217.842
'0:03.441',1217.354
'0:03.445',1216.722
'0:03.449',1215.936
'0:03.453',1214.985
'0:03.457',1213.902
'0:03.461',1212.803
'0:03.465',1211.839
'0:03.469',1211.136
'0:03.473',1210.733
'0:03.477',1210.568
'0:03.480',1210.568
'0:03.484',1210.689
'0:03.488',1210.915
'0:03.492',1211.214
'0:03.496',1211.526
'0:03.500',1211.819
'0:03.504',1212.091
'0:03.508',1212.319
'0:03.512',1212.481
'0:03.516',1212.588
'0:03.520',1212.716
'0:03.523',1212.948
'0:03.527',1213.318
'0:03.531',1213.761
'0:03.535',1214.168
'0:03.539',1214.420
'0:03.543',1214.470
'0:03.547',1214.346
'0:03.551',1214.111
'0:03.555',1213.805
'0:03.559',1213.415
'0:03.563',1212.938
'0:03.566',1212.444
'0:03.570',1212.017
'0:03.574',1211.664
'0:03.578',1211.328
'0:03.582',1210.962
'0:03.586',1210.592
'0:03.590',1210.262
'0:03.594',1210.064
'0:03.598',1210.078
'0:03.602',1210.303
'0:03.605',1210.662
'0:03.609',1211.076
'0:03.613',1211.489
'0:03.617',1211.879
'0:03.621',1212.256
'0:03.625',1212.652
'0:03.629',1213.096
'0:03.633',1213.613
'0:03.637',1214.185
'0:03.641',1214.763
'0:03.645',1215.314
'0:03.648',1215.848
'0:03.652',1216.369
'0:03.656',1216.816
'0:03.660',1217.129
'0:03.664',1217.304
'0:03.668',1217.435
'0:03.672',1217.640
'0:03.676',1217.949
'0:03.680',1218.336
'0:03.684',1218.776
'0:03.688',1219.263
'0:03.691',1219.777
'0:03.695',1220.335
'0:03.699',1220.964
'0:03.703',1221.666
'0:03.707',1222.423
'0:03.711',1223.172
'0:03.715',1223.784
'0:03.719',1224.140
'0:03.723',1224.204
'0:03.727',1224.046
'0:03.730',1223.767
'0:03.734',1223.397
'0:03.738',1222.933
'0:03.742',1222.419
'0:03.746',1221.999
'0:03.750',1221.838
'0:03.754',1222.023
'0:03.758',1222.513
'0:03.762',1223.162
'0:03.766',1223.817
'0:03.770',1224.382
'0:03.773',1224.816
'0:03.777',1225.095
'0:03.781',1225.172
'0:03.785',1225.027
'0:03.789',1224.725
'0:03.793',1224.385
'0:03.797',1224.106
'0:03.801',1223.928
'0:03.805',1223.794
'0:03.809',1223.666
'0:03.813',1223.585
'0:03.816',1223.656
'0:03.820',1223.928
'0:03.824',1224.335
'0:03.828',1224.698
'0:03.832',1224.826
'0:03.836',1224.601
'0:03.840',1224.012
'0:03.844',1223.172
'0:03.848',1222.285
'0:03.852',1221.555
'0:03.855',1221.105
'0:03.859',1220.903
'0:03.863',1220.819
'0:03.867',1220.719
'0:03.871',1220.540
'0:03.875',1220.258
'0:03.879',1219.892
'0:03.883',1219.478
'0:03.887',1219.062
'0:03.891',1218.699
'0:03.895',1218.477
'0:03.898',1218.487
'0:03.902',1218.746
'0:03.906',1219.223
'0:03.910',1219.888
'0:03.914',1220.719
'0:03.918',1221.660
'0:03.922',1222.648
'0:03.926',1223.639
'0:03.930',1224.564
'0:03.934',1225.293
'0:03.938',1225.703
'0:03.941',1225.747
'0:03.945',1225.501
'0:03.949',1225.098
'0:03.953',1224.674
'0:03.957',1224.328
'0:03.961',1224.113
'0:03.965',1224.039
'0:03.969',1224.063
'0:03.973',1224.086
'0:03.977',1224.066
'0:03.980',1223.992
'0:03.984',1223.861
'0:03.988',1223.720
'0:03.992',1223.639
'0:03.996',1223.673
'0:04.000',1223.804
'0:04.004',1223.989
'0:04.008',1224.177
'0:04.012',1224.372
'0:04.016',1224.601
'0:04.020',1224.869
'0:04.023',1225.142
'0:04.027',1225.370
'0:04.031',1225.538
'0:04.035',1225.663
'0:04.039',1225.797
'0:04.043',1225.979
'0:04.047',1226.167
'0:04.051',1226.254
'0:04.055',1226.140
'0:04.059',1225.854
'0:04.063',1225.528
'0:04.066',1225.330
'0:04.070',1225.340
'0:04.074',1225.525
'0:04.078',1225.763
'0:04.082',1225.884
'0:04.086',1225.747
'0:04.090',1225.256
'0:04.094',1224.352
'0:04.098',1223.038
'0:04.102',1221.424
'0:04.105',1219.710
'0:04.109',1218.134
'0:04.113',1216.904
'0:04.117',1216.158
'0:04.121',1215.929
'0:04.125',1216.188
'0:04.129',1216.823
'0:04.133',1217.667
'0:04.137',1218.531
'0:04.141',1219.250
'0:04.145',1219.751
'0:04.148',1220.073
'0:04.152',1220.275
'0:04.156',1220.386
'0:04.160',1220.396
'0:04.164',1220.298
'0:04.168',1220.114
'0:04.172',1219.885
'0:04.176',1219.700
'0:04.180',1219.616
'0:04.184',1219.606
'0:04.188',1219.586
'0:04.191',1219.495
'0:04.195',1219.344
'0:04.199',1219.189
'0:04.203',1219.078
'0:04.207',1219.031
'0:04.211',1219.062
'0:04.215',1219.183
'0:04.219',1219.394
'0:04.223',1219.667
'0:04.227',1219.972
'0:04.230',1220.292
'0:04.234',1220.540
'0:04.238',1220.574
'0:04.242',1220.255
'0:04.246',1219.562
'0:04.250',1218.578
'0:04.254',1217.431
'0:04.258',1216.228
'0:04.262',1215.035
'0:04.266',1213.929
'0:04.270',1212.982
'0:04.273',1212.229
'0:04.277',1211.681
'0:04.281',1211.271
'0:04.285',1210.857
'0:04.289',1210.360
'0:04.293',1209.836
'0:04.297',1209.416
'0:04.301',1209.197
'0:04.305',1209.167
'0:04.309',1209.224
'0:04.313',1209.264
'0:04.316',1209.281
'0:04.320',1209.348
'0:04.324',1209.557
'0:04.328',1209.987
'0:04.332',1210.673
'0:04.336',1211.600
'0:04.340',1212.689
'0:04.344',1213.818
'0:04.348',1214.894
'0:04.352',1215.916
'0:04.355',1216.907
'0:04.359',1217.858
'0:04.363',1218.699
'0:04.367',1219.394
'0:04.371',1219.902
'0:04.375',1220.167
'0:04.379',1220.147
'0:04.383',1219.858
'0:04.387',1219.327
'0:04.391',1218.544
'0:04.395',1217.505
'0:04.398',1216.289
'0:04.402',1215.035
'0:04.406',1213.909
'0:04.410',1213.015
'0:04.414',1212.417
'0:04.418',1212.118
'0:04.422',1212.101
'0:04.426',1212.316
'0:04.430',1212.716
'0:04.434',1213.274
'0:04.438',1213.986
'0:04.441',1214.867
'0:04.445',1215.906
'0:04.449',1217.048
'0:04.453',1218.201
'0:04.457',1219.230
'0:04.461',1220.016
'0:04.465',1220.554
'0:04.469',1220.961
'0:04.473',1221.377
'0:04.477',1221.858
'0:04.480',1222.349
'0:04.484',1222.755
'0:04.488',1223.021
'0:04.492',1223.155
'0:04.496',1223.196
'0:04.500',1223.212
'0:04.504',1223.266
'0:04.508',1223.370
'0:04.512',1223.515
'0:04.516',1223.693
'0:04.520',1223.895
'0:04.523',1224.063
'0:04.527',1224.137
'0:04.531',1224.083
'0:04.535',1223.922
'0:04.539',1223.690
'0:04.543',1223.424
'0:04.547',1223.162
'0:04.551',1222.933
'0:04.555',1222.772
'0:04.559',1222.702
'0:04.563',1222.742
'0:04.566',1222.880
'0:04.570',1223.071
'0:04.574',1223.253
'0:04.578',1223.377
'0:04.582',1223.428
'0:04.586',1223.411
'0:04.590',1223.343
'0:04.594',1223.212
'0:04.598',1222.987
'0:04.602',1222.621
'0:04.605',1222.070
'0:04.609',1221.300
'0:04.613',1220.325
'0:04.617',1219.236
'0:04.621',1218.131
'0:04.625',1217.048
'0:04.629',1216.000
'0:04.633',1215.022
'0:04.637',1214.228
'0:04.641',1213.755
'0:04.645',1213.664
'0:04.648',1213.936
'0:04.652',1214.481
'0:04.656',1215.180
'0:04.660',1215.906
'0:04.664',1216.500
'0:04.668',1216.830
'0:04.672',1216.837
'0:04.676',1216.561
'0:04.680',1216.090
'0:04.684',1215.502
'0:04.688',1214.823
'0:04.691',1214.064
'0:04.695',1213.247
'0:04.699',1212.397
'0:04.703',1211.570
'0:04.707',1210.851
'0:04.711',1210.293
'0:04.715',1209.886
'0:04.719',1209.627
'0:04.723',1209.563
'0:04.727',1209.772
'0:04.730',1210.283
'0:04.734',1211.019
'0:04.738',1211.819
'0:04.742',1212.494
'0:04.746',1212.955
'0:04.750',1213.207
'0:04.754',1213.328
'0:04.758',1213.368
'0:04.762',1213.348
'0:04.766',1213.318
'0:04.770',1213.355
'0:04.773',1213.489
'0:04.777',1213.681
'0:04.781',1213.859
'0:04.785',1214.000
'0:04.789',1214.104
'0:04.793',1214.191
'0:04.797',1214.299
'0:04.801',1214.467
'0:04.805',1214.729
'0:04.809',1215.112
'0:04.813',1215.613
'0:04.816',1216.195
'0:04.820',1216.820
'0:04.824',1217.411
'0:04.828',1217.912
'0:04.832',1218.309
'0:04.836',1218.641
'0:04.840',1218.947
'0:04.844',1219.267
'0:04.848',1219.673
'0:04.852',1220.268
'0:04.855',1221.125
'0:04.859',1222.241
'0:04.863',1223.515
'0:04.867',1224.785
'0:04.871',1225.864
'0:04.875',1226.610
'0:04.879',1226.960
'0:04.883',1226.963
'0:04.887',1226.718
'0:04.891',1226.342
'0:04.895',1225.915
'0:04.898',1225.447
'0:04.902',1224.930
'0:04.906',1224.355
'0:04.910',1223.740
'0:04.914',1223.088
'0:04.918',1222.426
'0:04.922',1221.808
'0:04.926',1221.270
'0:04.930',1220.816
'0:04.934',1220.430
'0:04.938',1220.093
'0:04.941',1219.791
'0:04.945',1219.529
'0:04.949',1219.307
'0:04.953',1219.146
'0:04.957',1219.045
'0:04.961',1219.001
'0:04.965',1219.011
'0:04.969',1219.088
'0:04.973',1219.250
'0:04.977',1219.495
'0:04.980',1219.791
'0:04.984',1220.103
'0:04.988',1220.419
'0:04.992',1220.725
'0:04.996',1221.018
'0:05.000',1221.307
'0:05.004',1221.609
'0:05.008',1221.952
'0:05.012',1222.352
'0:05.016',1222.786
'0:05.020',1223.216
'0:05.023',1223.606
'0:05.027',1223.932
'0:05.031',1224.184
'0:05.035',1224.379
'0:05.039',1224.557
'0:05.043',1224.826
'0:05.047',1225.316
'0:05.051',1226.056
'0:05.055',1226.936
'0:05.059',1227.763
'0:05.063',1228.338
'0:05.066',1228.516
'0:05.070',1228.240
'0:05.074',1227.585
'0:05.078',1226.725
'0:05.082',1225.874
'0:05.086',1225.202
'0:05.090',1224.809
'0:05.094',1224.705
'0:05.098',1224.789
'0:05.102',1224.923
'0:05.105',1225.000
'0:05.109',1225.037
'0:05.113',1225.135
'0:05.117',1225.407
'0:05.121',1225.898
'0:05.125',1226.567
'0:05.129',1227.316
'0:05.133',1228.032
'0:05.137',1228.603
'0:05.141',1228.997
'0:05.145',1229.286
'0:05.148',1229.565
'0:05.152',1229.850
'0:05.156',1230.055
'0:05.160',1230.079
'0:05.164',1229.884
'0:05.168',1229.501
'0:05.172',1228.923
'0:05.176',1228.140
'0:05.180',1227.212
'0:05.184',1226.278
'0:05.188',1225.488
'0:05.191',1224.920
'0:05.195',1224.567
'0:05.199',1224.345
'0:05.203',1224.157
'0:05.207',1223.955
'0:05.211',1223.740
'0:05.215',1223.532
'0:05.219',1223.347
'0:05.223',1223.199
'0:05.227',1223.091
'0:05.230',1223.007
'0:05.234',1222.981
'0:05.238',1223.051
'0:05.242',1223.206
'0:05.246',1223.387
'0:05.250',1223.549
'0:05.254',1223.639
'0:05.258',1223.643
'0:05.262',1223.572
'0:05.266',1223.451
'0:05.270',1223.286
'0:05.273',1223.088
'0:05.277',1222.853
'0:05.281',1222.604
'0:05.285',1222.382
'0:05.289',1222.181
'0:05.293',1221.959
'0:05.297',1221.717
'0:05.301',1221.545
'0:05.305',1221.592
'0:05.309',1221.972
'0:05.313',1222.725
'0:05.316',1223.767
'0:05.320',1224.903
'0:05.324',1225.908
'0:05.328',1226.600
'0:05.332',1226.876
'0:05.336',1226.721
'0:05.340',1226.200
'0:05.344',1225.468
'0:05.348',1224.748
'0:05.352',1224.234
'0:05.355',1223.999
'0:05.359',1223.959
'0:05.363',1223.938
'0:05.367',1223.804
'0:05.371',1223.532
'0:05.375',1223.179
'0:05.379',1222.839
'0:05.383',1222.544
'0:05.387',1222.281
'0:05.391',1222.036
'0:05.395',1221.831
'0:05.398',1221.710
'0:05.402',1221.660
'0:05.406',1221.623
'0:05.410',1221.562
'0:05.414',1221.468
'0:05.418',1221.320
'0:05.422',1221.075
'0:05.426',1220.735
'0:05.430',1220.379
'0:05.434',1220.114
'0:05.438',1219.952
'0:05.441',1219.821
'0:05.445',1219.623
'0:05.449',1219.297
'0:05.453',1218.853
'0:05.457',1218.342
'0:05.461',1217.835
'0:05.465',1217.428
'0:05.469',1217.233
'0:05.473',1217.361
'0:05.477',1217.868
'0:05.480',1218.678
'0:05.484',1219.620
'0:05.488',1220.520
'0:05.492',1221.307
'0:05.496',1221.976
'0:05.500',1222.537
'0:05.504',1222.974
'0:05.508',1223.256
'0:05.512',1223.367
'0:05.516',1223.347
'0:05.520',1223.246
'0:05.523',1223.065
'0:05.527',1222.782
'0:05.531',1222.419
'0:05.535',1222.033
'0:05.539',1221.656
'0:05.543',1221.324
'0:05.547',1221.092
'0:05.551',1221.024
'0:05.555',1221.169
'0:05.559',1221.518
'0:05.563',1221.999
'0:05.566',1222.540
'0:05.570',1223.054
'0:05.574',1223.417
'0:05.578',1223.535
'0:05.582',1223.404
'0:05.586',1223.132
'0:05.590',1222.849
'0:05.594',1222.658
'0:05.598',1222.557
'0:05.602',1222.480
'0:05.605',1222.335
'0:05.609',1222.090
'0:05.613',1221.784
'0:05.617',1221.492
'0:05.621',1221.324
'0:05.625',1221.367
'0:05.629',1221.650
'0:05.633',1222.103
'0:05.637',1222.634
'0:05.641',1223.118
'0:05.645',1223.434
'0:05.648',1223.505
'0:05.652',1223.293
'0:05.656',1222.809
'0:05.660',1222.086
'0:05.664',1221.192
'0:05.668',1220.191
'0:05.672',1219.146
'0:05.676',1218.114
'0:05.680',1217.139
'0:05.684',1216.228
'0:05.688',1215.294
'0:05.691',1214.222
'0:05.695',1212.965
'0:05.699',1211.567
'0:05.703',1210.098
'0:05.707',1208.636
'0:05.711',1207.264
'0:05.715',1206.102
'0:05.719',1205.228
'0:05.723',1204.670
'0:05.727',1204.421
'0:05.730',1204.451
'0:05.734',1204.693
'0:05.738',1205.026
'0:05.742',1205.349
'0:05.746',1205.594
'0:05.750',1205.728
'0:05.754',1205.708
'0:05.758',1205.503
'0:05.762',1205.144
'0:05.766',1204.720
'0:05.770',1204.320
'0:05.773',1203.998
'0:05.777',1203.816
'0:05.781',1203.823
'0:05.785',1204.024
'0:05.789',1204.384
'0:05.793',1204.838
'0:05.797',1205.369
'0:05.801',1206.018
'0:05.805',1206.801
'0:05.809',1207.648
'0:05.813',1208.414
'0:05.816',1208.975
'0:05.820',1209.254
'0:05.824',1209.261
'0:05.828',1209.066
'0:05.832',1208.757
'0:05.836',1208.387
'0:05.840',1207.974
'0:05.844',1207.557
'0:05.848',1207.170
'0:05.852',1206.817
'0:05.855',1206.475
'0:05.859',1206.155
'0:05.863',1205.880
'0:05.867',1205.597
'0:05.871',1205.258
'0:05.875',1204.888
'0:05.879',1204.623
'0:05.883',1204.613
'0:05.887',1204.922
'0:05.891',1205.500
'0:05.895',1206.256
'0:05.898',1207.143
'0:05.902',1208.138
'0:05.906',1209.170
'0:05.910',1210.138
'0:05.914',1210.985
'0:05.918',1211.725
'0:05.922',1212.356
'0:05.926',1212.834
'0:05.930',1213.076
'0:05.934',1213.029
'0:05.938',1212.716
'0:05.941',1212.208
'0:05.945',1211.617
'0:05.949',1211.049
'0:05.953',1210.609
'0:05.957',1210.373
'0:05.961',1210.353
'0:05.965',1210.518
'0:05.969',1210.780
'0:05.973',1211.019
'0:05.977',1211.113
'0:05.980',1211.036
'0:05.984',1210.841
'0:05.988',1210.605
'0:05.992',1210.340
'0:05.996',1210.017
'0:06.000',1209.654
'0:06.004',1209.352
'0:06.008',1209.234
'0:06.012',1209.392
'0:06.016',1209.822
'0:06.020',1210.461
'0:06.023',1211.224
'0:06.027',1212.040
'0:06.031',1212.844
'0:06.035',1213.576
'0:06.039',1214.195
'0:06.043',1214.719
'0:06.047',1215.190
'0:06.051',1215.654
'0:06.055',1216.144
'0:06.059',1216.669
'0:06.063',1217.230
'0:06.066',1217.798
'0:06.070',1218.349
'0:06.074',1218.850
'0:06.078',1219.297
'0:06.082',1219.720
'0:06.086',1220.198
'0:06.090',1220.853
'0:06.094',1221.781
'0:06.098',1223.004
'0:06.102',1224.463
'0:06.105',1226.083
'0:06.109',1227.797
'0:06.113',1229.565
'0:06.117',1231.356
'0:06.121',1233.171
'0:06.125',1235.020
'0:06.129',1236.878
'0:06.133',1238.683
'0:06.137',1240.333
'0:06.141',1241.708
'0:06.145',1242.689
'0:06.148',1243.217
'0:06.152',1243.318
'0:06.156',1243.126
'0:06.160',1242.804
'0:06.164',1242.491
'0:06.168',1242.229
'0:06.172',1242.017
'0:06.176',1241.859
'0:06.180',1241.765
'0:06.184',1241.752
'0:06.188',1241.805
'0:06.191',1241.879
'0:06.195',1241.893
'0:06.199',1241.795
'0:06.203',1241.574
'0:06.207',1241.227
'0:06.211',1240.760
'0:06.215',1240.219
'0:06.219',1239.651
'0:06.223',1239.120
'0:06.227',1238.663
'0:06.230',1238.297
'0:06.234',1238.018
'0:06.238',1237.816
'0:06.242',1237.682
'0:06.246',1237.608
'0:06.250',1237.597
'0:06.254',1237.651
'0:06.258',1237.755
'0:06.262',1237.863
'0:06.266',1237.947
'0:06.270',1238.021
'0:06.273',1238.118
'0:06.277',1238.286
'0:06.281',1238.535
'0:06.285',1238.801
'0:06.289',1238.999
'0:06.293',1239.070
'0:06.297',1239.006
'0:06.301',1238.848
'0:06.305',1238.626
'0:06.309',1238.374
'0:06.313',1238.125
'0:06.316',1237.903
'0:06.320',1237.702
'0:06.324',1237.476
'0:06.328',1237.181
'0:06.332',1236.774
'0:06.336',1236.256
'0:06.340',1235.665
'0:06.344',1235.036
'0:06.348',1234.391
'0:06.352',1233.783
'0:06.355',1233.258
'0:06.359',1232.791
'0:06.363',1232.264
'0:06.367',1231.551
'0:06.371',1230.586
'0:06.375',1229.366
'0:06.379',1227.918
'0:06.383',1226.358
'0:06.387',1224.879
'0:06.391',1223.686
'0:06.395',1222.917
'0:06.398',1222.621
'0:06.402',1222.789
'0:06.406',1223.323
'0:06.410',1224.049
'0:06.414',1224.795
'0:06.418',1225.431
'0:06.422',1225.888
'0:06.426',1226.100
'0:06.430',1226.042
'0:06.434',1225.794
'0:06.438',1225.491
'0:06.441',1225.263
'0:06.445',1225.179
'0:06.449',1225.246
'0:06.453',1225.421
'0:06.457',1225.629
'0:06.461',1225.797
'0:06.465',1225.847
'0:06.469',1225.733
'0:06.473',1225.468
'0:06.477',1225.155
'0:06.480',1224.940
'0:06.484',1224.967
'0:06.488',1225.303
'0:06.492',1225.861
'0:06.496',1226.446
'0:06.500',1226.846
'0:06.504',1226.920
'0:06.508',1226.624
'0:06.512',1226.022
'0:06.516',1225.279
'0:06.520',1224.587
'0:06.523',1224.090
'0:06.527',1223.827
'0:06.531',1223.794
'0:06.535',1223.952
'0:06.539',1224.211
'0:06.543',1224.412
'0:06.547',1224.416
'0:06.551',1224.184
'0:06.555',1223.791
'0:06.559',1223.360
'0:06.563',1222.994
'0:06.566',1222.718
'0:06.570',1222.544
'0:06.574',1222.473
'0:06.578',1222.520
'0:06.582',1222.671
'0:06.586',1222.873
'0:06.590',1223.054
'0:06.594',1223.179
'0:06.598',1223.226
'0:06.602',1223.162
'0:06.605',1222.970
'0:06.609',1222.705
'0:06.613',1222.463
'0:06.617',1222.305
'0:06.621',1222.214
'0:06.625',1222.140
'0:06.629',1222.070
'0:06.633',1221.986
'0:06.637',1221.865
'0:06.641',1221.710
'0:06.645',1221.566
'0:06.648',1221.461
'0:06.652',1221.384
'0:06.656',1221.270
'0:06.660',1221.048
'0:06.664',1220.685
'0:06.668',1220.238
'0:06.672',1219.814
'0:06.676',1219.488
'0:06.680',1219.297
'0:06.684',1219.226
'0:06.688',1219.240
'0:06.691',1219.273
'0:06.695',1219.240
'0:06.699',1219.082
'0:06.703',1218.766
'0:06.707',1218.319
'0:06.711',1217.788
'0:06.715',1217.206
'0:06.719',1216.601
'0:06.723',1215.996
'0:06.727',1215.449
'0:06.730',1214.985
'0:06.734',1214.585
'0:06.738',1214.178
'0:06.742',1213.704
'0:06.746',1213.129
'0:06.750',1212.450
'0:06.754',1211.711
'0:06.758',1210.958
'0:06.762',1210.226
'0:06.766',1209.543
'0:06.770',1208.972
'0:06.773',1208.639
'0:06.777',1208.663
'0:06.781',1209.079
'0:06.785',1209.846
'0:06.789',1210.928
'0:06.793',1212.306
'0:06.797',1213.906
'0:06.801',1215.603
'0:06.805',1217.250
'0:06.809',1218.689
'0:06.813',1219.774
'0:06.816',1220.399
'0:06.820',1220.537
'0:06.824',1220.245
'0:06.828',1219.623
'0:06.832',1218.756
'0:06.836',1217.717
'0:06.840',1216.591
'0:06.844',1215.485
'0:06.848',1214.497
'0:06.852',1213.691
'0:06.855',1213.103
'0:06.859',1212.766
'0:06.863',1212.662
'0:06.867',1212.676
'0:06.871',1212.689
'0:06.875',1212.635
'0:06.879',1212.575
'0:06.883',1212.619
'0:06.887',1212.844
'0:06.891',1213.217
'0:06.895',1213.664
'0:06.898',1214.114
'0:06.902',1214.534
'0:06.906',1214.884
'0:06.910',1215.143
'0:06.914',1215.314
'0:06.918',1215.412
'0:06.922',1215.472
'0:06.926',1215.533
'0:06.930',1215.610
'0:06.934',1215.714
'0:06.938',1215.815
'0:06.941',1215.882
'0:06.945',1215.932
'0:06.949',1216.027
'0:06.953',1216.279
'0:06.957',1216.783
'0:06.961',1217.573
'0:06.965',1218.608
'0:06.969',1219.791
'0:06.973',1221.061
'0:06.977',1222.433
'0:06.980',1223.942
'0:06.984',1225.579
'0:06.988',1227.249
'0:06.992',1228.829
'0:06.996',1230.173
'0:07.000',1231.148
'0:07.004',1231.632
'0:07.008',1231.571
'0:07.012',1231.013
'0:07.016',1230.123
'0:07.020',1229.148
'0:07.023',1228.388
'0:07.027',1228.086
'0:07.031',1228.345
'0:07.035',1229.101
'0:07.039',1230.166
'0:07.043',1231.275
'0:07.047',1232.159
'0:07.051',1232.640
'0:07.055',1232.633
'0:07.059',1232.166
'0:07.063',1231.323
'0:07.066',1230.230
'0:07.070',1229.030
'0:07.074',1227.877
'0:07.078',1226.879
'0:07.082',1226.046
'0:07.086',1225.313
'0:07.090',1224.648
'0:07.094',1224.110
'0:07.098',1223.814
'0:07.102',1223.864
'0:07.105',1224.301
'0:07.109',1225.078
'0:07.113',1226.096
'0:07.117',1227.212
'0:07.121',1228.284
'0:07.125',1229.219
'0:07.129',1230.005
'0:07.133',1230.711
'0:07.137',1231.373
'0:07.141',1231.934
'0:07.145',1232.284
'0:07.148',1232.361
'0:07.152',1232.206
'0:07.156',1231.924
'0:07.160',1231.612
'0:07.164',1231.333
'0:07.168',1231.097
'0:07.172',1230.872
'0:07.176',1230.613
'0:07.180',1230.301
'0:07.184',1229.924
'0:07.188',1229.528
'0:07.191',1229.171
'0:07.195',1228.893
'0:07.199',1228.698
'0:07.203',1228.556
'0:07.207',1228.435
'0:07.211',1228.281
'0:07.215',1228.066
'0:07.219',1227.814
'0:07.223',1227.578
'0:07.227',1227.390
'0:07.230',1227.219
'0:07.234',1227.041
'0:07.238',1226.862
'0:07.242',1226.701
'0:07.246',1226.567
'0:07.250',1226.489
'0:07.254',1226.536
'0:07.258',1226.778
'0:07.262',1227.259
'0:07.266',1227.985
'0:07.270',1228.923
'0:07.273',1229.985
'0:07.277',1231.067
'0:07.281',1232.089
'0:07.285',1232.976
'0:07.289',1233.608
'0:07.293',1233.860
'0:07.297',1233.675
'0:07.301',1233.127
'0:07.305',1232.381
'0:07.309',1231.669
'0:07.313',1231.171
'0:07.316',1230.993
'0:07.320',1231.121
'0:07.324',1231.443
'0:07.328',1231.773
'0:07.332',1231.897
'0:07.336',1231.652
'0:07.340',1231.013
'0:07.344',1230.102
'0:07.348',1229.161
'0:07.352',1228.412
'0:07.355',1227.975
'0:07.359',1227.837
'0:07.363',1227.901
'0:07.367',1228.059
'0:07.371',1228.261
'0:07.375',1228.499
'0:07.379',1228.755
'0:07.383',1228.940
'0:07.387',1228.983
'0:07.391',1228.903
'0:07.395',1228.822
'0:07.398',1228.899
'0:07.402',1229.219
'0:07.406',1229.736
'0:07.410',1230.338
'0:07.414',1230.886
'0:07.418',1231.212
'0:07.422',1231.175
'0:07.426',1230.681
'0:07.430',1229.726
'0:07.434',1228.409
'0:07.438',1226.899
'0:07.441',1225.400
'0:07.445',1224.066
'0:07.449',1223.004
'0:07.453',1222.238
'0:07.457',1221.744
'0:07.461',1221.488
'0:07.465',1221.431
'0:07.469',1221.508
'0:07.473',1221.656
'0:07.477',1221.824
'0:07.480',1221.982
'0:07.484',1222.134
'0:07.488',1222.295
'0:07.492',1222.476
'0:07.496',1222.691
'0:07.500',1222.984
'0:07.504',1223.370
'0:07.508',1223.804
'0:07.512',1224.167
'0:07.516',1224.322
'0:07.520',1224.197
'0:07.523',1223.824
'0:07.527',1223.307
'0:07.531',1222.775
'0:07.535',1222.359
'0:07.539',1222.137
'0:07.543',1222.097
'0:07.547',1222.137
'0:07.551',1222.127
'0:07.555',1221.999
'0:07.559',1221.754
'0:07.563',1221.428
'0:07.566',1221.048
'0:07.570',1220.651
'0:07.574',1220.298
'0:07.578',1220.040
'0:07.582',1219.851
'0:07.586',1219.673
'0:07.590',1219.448
'0:07.594',1219.179
'0:07.598',1218.904
'0:07.602',1218.662
'0:07.605',1218.467
'0:07.609',1218.329
'0:07.613',1218.255
'0:07.617',1218.285
'0:07.621',1218.433
'0:07.625',1218.675
'0:07.629',1218.974
'0:07.633',1219.317
'0:07.637',1219.673
'0:07.641',1220.019
'0:07.645',1220.302
'0:07.648',1220.466
'0:07.652',1220.487
'0:07.656',1220.386
'0:07.660',1220.241
'0:07.664',1220.171
'0:07.668',1220.329
'0:07.672',1220.789
'0:07.676',1221.542
'0:07.680',1222.490
'0:07.684',1223.538
'0:07.688',1224.644
'0:07.691',1225.760
'0:07.695',1226.775
'0:07.699',1227.562
'0:07.703',1228.049
'0:07.707',1228.277
'0:07.711',1228.351
'0:07.715',1228.358
'0:07.719',1228.351
'0:07.723',1228.378
'0:07.727',1228.476
'0:07.730',1228.647
'0:07.734',1228.856
'0:07.738',1229.020
'0:07.742',1229.047
'0:07.746',1228.819
'0:07.750',1228.264
'0:07.754',1227.390
'0:07.758',1226.241
'0:07.762',1224.913
'0:07.766',1223.532
'0:07.770',1222.302
'0:07.773',1221.428
'0:07.777',1221.068
'0:07.781',1221.246
'0:07.785',1221.875
'0:07.789',1222.769
'0:07.793',1223.703
'0:07.797',1224.473
'0:07.801',1224.987
'0:07.805',1225.259
'0:07.809',1225.347
'0:07.813',1225.246
'0:07.816',1224.957
'0:07.820',1224.530
'0:07.824',1224.063
'0:07.828',1223.616
'0:07.832',1223.169
'0:07.836',1222.691
'0:07.840',1222.181
'0:07.844',1221.650
'0:07.848',1221.108
'0:07.852',1220.554
'0:07.855',1219.996
'0:07.859',1219.421
'0:07.863',1218.816
'0:07.867',1218.181
'0:07.871',1217.532
'0:07.875',1216.874
'0:07.879',1216.215
'0:07.883',1215.586
'0:07.887',1215.082
'0:07.891',1214.786
'0:07.895',1214.756
'0:07.898',1214.944
'0:07.902',1215.227
'0:07.906',1215.485
'0:07.910',1215.701
'0:07.914',1215.949
'0:07.918',1216.332
'0:07.922',1216.880
'0:07.926',1217.536
'0:07.930',1218.205
'0:07.934',1218.816
'0:07.938',1219.320
'0:07.941',1219.693
'0:07.945',1219.949
'0:07.949',1220.110
'0:07.953',1220.204
'0:07.957',1220.275
'0:07.961',1220.342
'0:07.965',1220.436
'0:07.969',1220.581
'0:07.973',1220.809
'0:07.977',1221.112
'0:07.980',1221.424
'0:07.984',1221.683
'0:07.988',1221.844
'0:07.992',1221.888
'0:07.996',1221.808
'0:08.000',1221.619
'0:08.004',1221.357
'0:08.008',1221.068
'0:08.012',1220.752
'0:08.016',1220.396
'0:08.020',1220.009
'0:08.023',1219.620
'0:08.027',1219.230
'0:08.031',1218.826
'0:08.035',1218.450
'0:08.039',1218.188
'0:08.043',1218.084
'0:08.047',1218.131
'0:08.051',1218.292
'0:08.055',1218.557
'0:08.059',1218.930
'0:08.063',1219.367
'0:08.066',1219.798
'0:08.070',1220.151
'0:08.074',1220.372
'0:08.078',1220.440
'0:08.082',1220.379
'0:08.086',1220.248
'0:08.090',1220.103
'0:08.094',1219.989
'0:08.098',1219.939
'0:08.102',1219.962
'0:08.105',1220.033
'0:08.109',1220.090
'0:08.113',1220.097
'0:08.117',1220.070
'0:08.121',1220.063
'0:08.125',1220.097
'0:08.129',1220.191
'0:08.133',1220.342
'0:08.137',1220.544
'0:08.141',1220.776
'0:08.145',1221.028
'0:08.148',1221.297
'0:08.152',1221.562
'0:08.156',1221.801
'0:08.160',1221.986
'0:08.164',1222.103
'0:08.168',1222.147
'0:08.172',1222.097
'0:08.176',1221.942
'0:08.180',1221.734
'0:08.184',1221.542
'0:08.188',1221.434
'0:08.191',1221.428
'0:08.195',1221.508
'0:08.199',1221.666
'0:08.203',1221.881
'0:08.207',1222.127
'0:08.211',1222.365
'0:08.215',1222.591
'0:08.219',1222.792
'0:08.223',1222.960
'0:08.227',1223.118
'0:08.230',1223.330
'0:08.234',1223.646
'0:08.238',1224.056
'0:08.242',1224.496
'0:08.246',1224.906
'0:08.250',1225.229
'0:08.254',1225.421
'0:08.258',1225.407
'0:08.262',1225.138
'0:08.266',1224.654
'0:08.270',1224.083
'0:08.273',1223.582
'0:08.277',1223.330
'0:08.281',1223.505
'0:08.285',1224.197
'0:08.289',1225.360
'0:08.293',1226.842
'0:08.297',1228.409
'0:08.301',1229.830
'0:08.305',1230.929
'0:08.309',1231.628
'0:08.313',1231.934
'0:08.316',1231.907
'0:08.320',1231.655
'0:08.324',1231.312
'0:08.328',1231.003
'0:08.332',1230.802
'0:08.336',1230.691
'0:08.340',1230.627
'0:08.344',1230.593
'0:08.348',1230.607
'0:08.352',1230.694
'0:08.355',1230.872
'0:08.359',1231.141
'0:08.363',1231.423
'0:08.367',1231.561
'0:08.371',1231.400
'0:08.375',1230.872
'0:08.379',1230.018
'0:08.383',1228.953
'0:08.387',1227.807
'0:08.391',1226.708
'0:08.395',1225.794
'0:08.398',1225.158
'0:08.402',1224.782
'0:08.406',1224.543
'0:08.410',1224.318
'0:08.414',1224.063
'0:08.418',1223.851
'0:08.422',1223.811
'0:08.426',1224.043
'0:08.430',1224.533
'0:08.434',1225.135
'0:08.438',1225.646
'0:08.441',1225.884
'0:08.445',1225.753
'0:08.449',1225.269
'0:08.453',1224.567
'0:08.457',1223.861
'0:08.461',1223.364
'0:08.465',1223.219
'0:08.469',1223.478
'0:08.473',1224.137
'0:08.477',1225.101
'0:08.480',1226.221
'0:08.484',1227.303
'0:08.488',1228.170
'0:08.492',1228.694
'0:08.496',1228.812
'0:08.500',1228.560
'0:08.504',1228.093
'0:08.508',1227.615
'0:08.512',1227.299
'0:08.516',1227.232
'0:08.520',1227.417
'0:08.523',1227.841
'0:08.527',1228.482
'0:08.531',1229.262
'0:08.535',1230.065
'0:08.539',1230.815
'0:08.543',1231.511
'0:08.547',1232.169
'0:08.551',1232.774
'0:08.555',1233.262
'0:08.559',1233.591
'0:08.563',1233.749
'0:08.566',1233.779
'0:08.570',1233.716
'0:08.574',1233.591
'0:08.578',1233.440
'0:08.582',1233.336
'0:08.586',1233.356
'0:08.590',1233.527
'0:08.594',1233.810
'0:08.598',1234.152
'0:08.602',1234.519
'0:08.605',1234.865
'0:08.609',1235.181
'0:08.613',1235.494
'0:08.617',1235.856
'0:08.621',1236.307
'0:08.625',1236.865
'0:08.629',1237.483
'0:08.633',1238.098
'0:08.637',1238.666
'0:08.641',1239.160
'0:08.645',1239.567
'0:08.648',1239.846
'0:08.652',1239.974
'0:08.656',1239.923
'0:08.660',1239.701
'0:08.664',1239.322
'0:08.668',1238.781
'0:08.672',1238.081
'0:08.676',1237.221
'0:08.680',1236.216
'0:08.684',1235.120
'0:08.688',1234.008
'0:08.691',1232.936
'0:08.695',1231.995
'0:08.699',1231.275
'0:08.703',1230.798
'0:08.707',1230.509
'0:08.711',1230.281
'0:08.715',1229.978
'0:08.719',1229.524
'0:08.723',1228.933
'0:08.727',1228.244
'0:08.730',1227.541
'0:08.734',1226.980
'0:08.738',1226.711
'0:08.742',1226.815
'0:08.746',1227.232
'0:08.750',1227.804
'0:08.754',1228.382
'0:08.758',1228.909
'0:08.762',1229.403
'0:08.766',1229.837
'0:08.770',1230.150
'0:08.773',1230.311
'0:08.777',1230.344
'0:08.781',1230.274
'0:08.785',1230.133
'0:08.789',1229.948
'0:08.793',1229.750
'0:08.797',1229.561
'0:08.801',1229.383
'0:08.805',1229.188
'0:08.809',1228.933
'0:08.813',1228.570
'0:08.816',1228.015
'0:08.820',1227.209
'0:08.824',1226.157
'0:08.828',1224.940
'0:08.832',1223.659
'0:08.836',1222.433
'0:08.840',1221.344
'0:08.844',1220.403
'0:08.848',1219.579
'0:08.852',1218.860
'0:08.855',1218.265
'0:08.859',1217.848
'0:08.863',1217.667
'0:08.867',1217.751
'0:08.871',1218.073
'0:08.875',1218.594
'0:08.879',1219.253
'0:08.883',1220.003
'0:08.887',1220.786
'0:08.891',1221.518
'0:08.895',1222.076
'0:08.898',1222.322
'0:08.902',1222.197
'0:08.906',1221.750
'0:08.910',1221.061
'0:08.914',1220.224
'0:08.918',1219.317
'0:08.922',1218.389
'0:08.926',1217.431
'0:08.930',1216.376
'0:08.934',1215.139
'0:08.938',1213.691
'0:08.941',1212.077
'0:08.945',1210.367
'0:08.949',1208.666
'0:08.953',1207.123
'0:08.957',1205.876
'0:08.961',1205.039
'0:08.965',1204.690
'0:08.969',1204.868
'0:08.973',1205.587
'0:08.977',1206.794
'0:08.980',1208.360
'0:08.984',1210.091
'0:08.988',1211.758
'0:08.992',1213.163
'0:08.996',1214.205
'0:09.000',1214.874
'0:09.004',1215.240
'0:09.008',1215.364
'0:09.012',1215.264
'0:09.016',1214.941
'0:09.020',1214.403
'0:09.023',1213.691
'0:09.027',1212.877
'0:09.031',1212.077
'0:09.035',1211.439
'0:09.039',1211.076
'0:09.043',1211.015
'0:09.047',1211.210
'0:09.051',1211.593
'0:09.055',1212.098
'0:09.059',1212.645
'0:09.063',1213.146
'0:09.066',1213.556
'0:09.070',1213.872
'0:09.074',1214.101
'0:09.078',1214.245
'0:09.082',1214.346
'0:09.086',1214.460
'0:09.090',1214.628
'0:09.094',1214.850
'0:09.098',1215.099
'0:09.102',1215.351
'0:09.105',1215.586
'0:09.109',1215.778
'0:09.113',1215.932
'0:09.117',1216.111
'0:09.121',1216.400
'0:09.125',1216.800
'0:09.129',1217.257
'0:09.133',1217.737
'0:09.137',1218.221
'0:09.141',1218.668
'0:09.145',1219.055
'0:09.148',1219.425
'0:09.152',1219.848
'0:09.156',1220.356
'0:09.160',1220.947
'0:09.164',1221.545
'0:09.168',1222.033
'0:09.172',1222.291
'0:09.176',1222.244
'0:09.180',1221.885
'0:09.184',1221.300
'0:09.188',1220.611
'0:09.191',1219.939
'0:09.195',1219.388
'0:09.199',1219.011
'0:09.203',1218.816
'0:09.207',1218.776
'0:09.211',1218.863
'0:09.215',1219.072
'0:09.219',1219.408
'0:09.223',1219.888
'0:09.227',1220.544
'0:09.230',1221.367
'0:09.234',1222.295
'0:09.238',1223.209
'0:09.242',1223.989
'0:09.246',1224.527
'0:09.250',1224.721
'0:09.254',1224.516
'0:09.258',1223.965
'0:09.262',1223.222
'0:09.266',1222.490
'0:09.270',1221.952
'0:09.273',1221.750
'0:09.277',1221.972
'0:09.281',1222.658
'0:09.285',1223.780
'0:09.289',1225.232
'0:09.293',1226.852
'0:09.297',1228.462
'0:09.301',1229.965
'0:09.305',1231.353
'0:09.309',1232.620
'0:09.313',1233.716
'0:09.316',1234.569
'0:09.320',1235.151
'0:09.324',1235.517
'0:09.328',1235.796
'0:09.332',1236.135
'0:09.336',1236.623
'0:09.340',1237.231
'0:09.344',1237.890
'0:09.348',1238.559
'0:09.352',1239.238
'0:09.355',1239.930
'0:09.359',1240.626
'0:09.363',1241.301
'0:09.367',1241.916
'0:09.371',1242.437
'0:09.375',1242.874
'0:09.379',1243.291
'0:09.383',1243.731
'0:09.387',1244.202
'0:09.391',1244.642
'0:09.395',1244.988
'0:09.398',1245.274
'0:09.402',1245.624
'0:09.406',1246.185
'0:09.410',1247.049
'0:09.414',1248.195
'0:09.418',1249.472
'0:09.422',1250.648
'0:09.426',1251.495
'0:09.430',1251.875
'0:09.434',1251.791
'0:09.438',1251.327
'0:09.441',1250.591
'0:09.445',1249.657
'0:09.449',1248.615
'0:09.453',1247.563
'0:09.457',1246.571
'0:09.461',1245.697
'0:09.465',1244.992
'0:09.469',1244.464
'0:09.473',1244.111
'0:09.477',1243.913
'0:09.480',1243.872
'0:09.484',1243.967
'0:09.488',1244.135
'0:09.492',1244.326
'0:09.496',1244.457
'0:09.500',1244.380
'0:09.504',1243.977
'0:09.508',1243.214
'0:09.512',1242.148
'0:09.516',1240.871
'0:09.520',1239.473
'0:09.523',1238.058
'0:09.527',1236.714
'0:09.531',1235.514
'0:09.535',1234.455
'0:09.539',1233.453
'0:09.543',1232.408
'0:09.547',1231.286
'0:09.551',1230.126
'0:09.555',1228.970
'0:09.559',1227.830
'0:09.563',1226.711
'0:09.566',1225.595
'0:09.570',1224.486
'0:09.574',1223.407
'0:09.578',1222.379
'0:09.582',1221.428
'0:09.586',1220.598
'0:09.590',1219.912
'0:09.594',1219.378
'0:09.598',1218.984
'0:09.602',1218.749
'0:09.605',1218.658
'0:09.609',1218.648
'0:09.613',1218.638
'0:09.617',1218.561
'0:09.621',1218.406
'0:09.625',1218.198
'0:09.629',1217.942
'0:09.633',1217.663
'0:09.637',1217.425
'0:09.641',1217.267
'0:09.645',1217.220
'0:09.648',1217.287
'0:09.652',1217.475
'0:09.656',1217.768
'0:09.660',1218.127
'0:09.664',1218.500
'0:09.668',1218.833
'0:09.672',1219.109
'0:09.676',1219.317
'0:09.680',1219.458
'0:09.684',1219.529
'0:09.688',1219.535
'0:09.691',1219.505
'0:09.695',1219.475
'0:09.699',1219.492
'0:09.703',1219.583
'0:09.707',1219.774
'0:09.711',1220.063
'0:09.715',1220.430
'0:09.719',1220.850
'0:09.723',1221.317
'0:09.727',1221.834
'0:09.730',1222.399
'0:09.734',1222.960
'0:09.738',1223.431
'0:09.742',1223.720
'0:09.746',1223.770
'0:09.750',1223.535
'0:09.754',1222.987
'0:09.758',1222.130
'0:09.762',1220.991
'0:09.766',1219.623
'0:09.770',1218.097
'0:09.773',1216.504
'0:09.777',1214.954
'0:09.781',1213.546
'0:09.785',1212.343
'0:09.789',1211.382
'0:09.793',1210.673
'0:09.797',1210.212
'0:09.801',1210.017
'0:09.805',1210.128
'0:09.809',1210.595
'0:09.813',1211.409
'0:09.816',1212.504
'0:09.820',1213.761
'0:09.824',1215.025
'0:09.828',1216.141
'0:09.832',1216.971
'0:09.836',1217.408
'0:09.840',1217.405
'0:09.844',1217.011
'0:09.848',1216.383
'0:09.852',1215.727
'0:09.855',1215.217
'0:09.859',1214.938
'0:09.863',1214.904
'0:09.867',1215.062
'0:09.871',1215.304
'0:09.875',1215.499
'0:09.879',1215.563
'0:09.883',1215.452
'0:09.887',1215.163
'0:09.891',1214.759
'0:09.895',1214.366
'0:09.898',1214.087
'0:09.902',1213.963
'0:09.906',1213.953
'0:09.910',1213.997
'0:09.914',1214.087
'0:09.918',1214.259
'0:09.922',1214.521
'0:09.926',1214.823
'0:09.930',1215.092
'0:09.934',1215.267
'0:09.938',1215.284
'0:09.941',1215.065
'0:09.945',1214.598
'0:09.949',1213.966
'0:09.953',1213.321
'0:09.957',1212.807
'0:09.961',1212.498
'0:09.965',1212.370
'0:09.969',1212.336
'0:09.973',1212.289
'0:09.977',1212.205
'0:09.980',1212.111
'0:09.984',1212.027
'0:09.988',1211.923
'0:09.992',1211.765
'0:09.996',1211.577
'0:10.000',1211.449
'0:10.004',1211.476
'0:10.008',1211.745
'0:10.012',1212.286
'0:10.016',1213.055
'0:10.020',1213.909
'0:10.023',1214.642
'0:10.027',1215.055
'0:10.031',1215.015
'0:10.035',1214.504
'0:10.039',1213.573
'0:10.043',1212.336
'0:10.047',1210.901
'0:10.051',1209.385
'0:10.055',1207.953
'0:10.059',1206.811
'0:10.063',1206.135
'0:10.066',1206.021
'0:10.070',1206.475
'0:10.074',1207.419
'0:10.078',1208.720
'0:10.082',1210.215
'0:10.086',1211.701
'0:10.090',1213.002
'0:10.094',1214.037
'0:10.098',1214.837
'0:10.102',1215.499
'0:10.105',1216.114
'0:10.109',1216.763
'0:10.113',1217.489
'0:10.117',1218.289
'0:10.121',1219.102
'0:10.125',1219.861
'0:10.129',1220.557
'0:10.133',1221.263
'0:10.137',1222.063
'0:10.141',1222.987
'0:10.145',1224.026
'0:10.148',1225.148
'0:10.152',1226.311
'0:10.156',1227.441
'0:10.160',1228.499
'0:10.164',1229.514
'0:10.168',1230.492
'0:10.172',1231.356
'0:10.176',1231.985
'0:10.180',1232.277
'0:10.184',1232.193
'0:10.188',1231.739
'0:10.191',1230.996
'0:10.195',1230.106
'0:10.199',1229.245
'0:10.203',1228.550
'0:10.207',1228.039
'0:10.211',1227.666
'0:10.215',1227.340
'0:10.219',1226.946
'0:10.223',1226.338
'0:10.227',1225.390
'0:10.230',1224.086
'0:10.234',1222.537
'0:10.238',1220.930
'0:10.242',1219.458
'0:10.246',1218.302
'0:10.250',1217.600
'0:10.254',1217.442
'0:10.258',1217.838
'0:10.262',1218.715
'0:10.266',1219.949
'0:10.270',1221.360
'0:10.273',1222.728
'0:10.277',1223.848
'0:10.281',1224.614
'0:10.285',1225.054
'0:10.289',1225.266
'0:10.293',1225.320
'0:10.297',1225.263
'0:10.301',1225.132
'0:10.305',1224.947
'0:10.309',1224.691
'0:10.313',1224.338
'0:10.316',1223.908
'0:10.320',1223.454
'0:10.324',1223.014
'0:10.328',1222.594
'0:10.332',1222.194
'0:10.336',1221.868
'0:10.340',1221.720
'0:10.344',1221.818
'0:10.348',1222.147
'0:10.352',1222.651
'0:10.355',1223.296
'0:10.359',1224.046
'0:10.363',1224.809
'0:10.367',1225.434
'0:10.371',1225.810
'0:10.375',1225.925
'0:10.379',1225.894
'0:10.383',1225.905
'0:10.387',1226.106
'0:10.391',1226.547
'0:10.395',1227.118
'0:10.398',1227.656
'0:10.402',1228.015
'0:10.406',1228.153
'0:10.410',1228.069
'0:10.414',1227.787
'0:10.418',1227.336
'0:10.422',1226.805
'0:10.426',1226.288
'0:10.430',1225.851
'0:10.434',1225.545
'0:10.438',1225.380
'0:10.441',1225.296
'0:10.445',1225.195
'0:10.449',1225.034
'0:10.453',1224.792
'0:10.457',1224.459
'0:10.461',1224.016
'0:10.465',1223.481
'0:10.469',1222.893
'0:10.473',1222.261
'0:10.477',1221.572
'0:10.480',1220.813
'0:10.484',1219.959
'0:10.488',1219.028
'0:10.492',1218.060
'0:10.496',1217.116
'0:10.500',1216.225
'0:10.504',1215.422
'0:10.508',1214.716
'0:10.512',1214.111
'0:10.516',1213.603
'0:10.520',1213.176
'0:10.523',1212.800
'0:10.527',1212.477
'0:10.531',1212.256
'0:10.535',1212.161
'0:10.539',1212.195
'0:10.543',1212.353
'0:10.547',1212.615
'0:10.551',1212.911
'0:10.555',1213.133
'0:10.559',1213.213
'0:10.563',1213.119
'0:10.566',1212.857
'0:10.570',1212.467
'0:10.574',1212.014
'0:10.578',1211.567
'0:10.582',1211.200
'0:10.586',1210.978
'0:10.590',1210.925
'0:10.594',1211.032
'0:10.598',1211.294
'0:10.602',1211.704
'0:10.605',1212.249
'0:10.609',1212.891
'0:10.613',1213.566
'0:10.617',1214.215
'0:10.621',1214.783
'0:10.625',1215.240
'0:10.629',1215.603
'0:10.633',1215.899
'0:10.637',1216.168
'0:10.641',1216.396
'0:10.645',1216.551
'0:10.648',1216.605
'0:10.652',1216.591
'0:10.656',1216.554
'0:10.660',1216.507
'0:10.664',1216.447
'0:10.668',1216.359
'0:10.672',1216.235
'0:10.676',1216.101
'0:10.680',1216.013
'0:10.684',1215.986
'0:10.688',1215.996
'0:10.691',1216.020
'0:10.695',1216.067
'0:10.699',1216.158
'0:10.703',1216.329
'0:10.707',1216.595
'0:10.711',1216.968
'0:10.715',1217.381
'0:10.719',1217.714
'0:10.723',1217.845
'0:10.727',1217.717
'0:10.730',1217.344
'0:10.734',1216.783
'0:10.738',1216.141
'0:10.742',1215.553
'0:10.746',1215.133
'0:10.750',1214.961
'0:10.754',1215.055
'0:10.758',1215.388
'0:10.762',1215.902
'0:10.766',1216.507
'0:10.770',1217.109
'0:10.773',1217.623
'0:10.777',1218.006
'0:10.781',1218.252
'0:10.785',1218.399
'0:10.789',1218.497
'0:10.793',1218.568
'0:10.797',1218.584
'0:10.801',1218.494
'0:10.805',1218.238
'0:10.809',1217.784
'0:10.813',1217.149
'0:10.816',1216.406
'0:10.820',1215.667
'0:10.824',1215.022
'0:10.828',1214.494
'0:10.832',1214.054
'0:10.836',1213.664
'0:10.840',1213.297
'0:10.844',1212.955
'0:10.848',1212.669
'0:10.852',1212.487
'0:10.855',1212.410
'0:10.859',1212.350
'0:10.863',1212.225
'0:10.867',1212.044
'0:10.871',1211.839
'0:10.875',1211.674
'0:10.879',1211.657
'0:10.883',1211.889
'0:10.887',1212.430
'0:10.891',1213.240
'0:10.895',1214.185
'0:10.898',1215.059
'0:10.902',1215.677
'0:10.906',1215.969
'0:10.910',1215.976
'0:10.914',1215.808
'0:10.918',1215.536
'0:10.922',1215.180
'0:10.926',1214.783
'0:10.930',1214.474
'0:10.934',1214.343
'0:10.938',1214.380
'0:10.941',1214.450
'0:10.945',1214.430
'0:10.949',1214.276
'0:10.953',1214.050
'0:10.957',1213.852
'0:10.961',1213.728
'0:10.965',1213.681
'0:10.969',1213.728
'0:10.973',1213.936
'0:10.977',1214.366
'0:10.980',1215.008
'0:10.984',1215.775
'0:10.988',1216.548
'0:10.992',1217.210
'0:10.996',1217.663
'0:11.000',1217.862
'0:11.004',1217.821
'0:11.008',1217.556
'0:11.012',1217.062
'0:11.016',1216.376
'0:11.020',1215.606
'0:11.023',1214.891
'0:11.027',1214.349
'0:11.031',1214.070
'0:11.035',1214.124
'0:11.039',1214.497
'0:11.043',1215.075
'0:11.047',1215.647
'0:11.051',1215.973
'0:11.055',1215.906
'0:11.059',1215.438
'0:11.063',1214.686
'0:11.066',1213.842
'0:11.070',1213.103
'0:11.074',1212.565
'0:11.078',1212.239
'0:11.082',1212.051
'0:11.086',1211.906
'0:11.090',1211.741
'0:11.094',1211.573
'0:11.098',1211.469
'0:11.102',1211.503
'0:11.105',1211.748
'0:11.109',1212.222
'0:11.113',1212.908
'0:11.117',1213.734
'0:11.121',1214.605
'0:11.125',1215.388
'0:11.129',1215.943
'0:11.133',1216.201
'0:11.137',1216.195
'0:11.141',1216.023
'0:11.145',1215.811
'0:11.148',1215.687
'0:11.152',1215.748
'0:11.156',1216.000
'0:11.160',1216.353
'0:11.164',1216.655
'0:11.168',1216.779
'0:11.172',1216.675
'0:11.176',1216.430
'0:11.180',1216.222
'0:11.184',1216.238
'0:11.188',1216.571
'0:11.191',1217.203
'0:11.195',1218.003
'0:11.199',1218.762
'0:11.203',1219.277
'0:11.207',1219.418
'0:11.211',1219.179
'0:11.215',1218.672
'0:11.219',1218.067
'0:11.223',1217.532
'0:11.227',1217.156
'0:11.230',1216.914
'0:11.234',1216.779
'0:11.238',1216.746
'0:11.242',1216.816
'0:11.246',1216.961
'0:11.250',1217.179
'0:11.254',1217.468
'0:11.258',1217.771
'0:11.262',1217.983
'0:11.266',1217.969
'0:11.270',1217.660
'0:11.273',1217.102
'0:11.277',1216.470
'0:11.281',1215.993
'0:11.285',1215.832
'0:11.289',1216.013
'0:11.293',1216.470
'0:11.297',1217.099
'0:11.301',1217.825
'0:11.305',1218.588
'0:11.309',1219.314
'0:11.313',1219.946
'0:11.316',1220.470
'0:11.320',1220.863
'0:11.324',1221.078
'0:11.328',1221.082
'0:11.332',1220.903
'0:11.336',1220.645
'0:11.340',1220.372
'0:11.344',1220.097
'0:11.348',1219.794
'0:11.352',1219.451
'0:11.355',1219.068
'0:11.359',1218.645
'0:11.363',1218.211
'0:11.367',1217.811
'0:11.371',1217.499
'0:11.375',1217.341
'0:11.379',1217.368
'0:11.383',1217.576
'0:11.387',1217.936
'0:11.391',1218.403
'0:11.395',1218.927
'0:11.398',1219.448
'0:11.402',1219.885
'0:11.406',1220.181
'0:11.410',1220.319
'0:11.414',1220.322
'0:11.418',1220.218
'0:11.422',1220.040
'0:11.426',1219.828
'0:11.430',1219.609
'0:11.434',1219.411
'0:11.438',1219.250
'0:11.441',1219.122
'0:11.445',1219.018
'0:11.449',1218.900
'0:11.453',1218.689
'0:11.457',1218.299
'0:11.461',1217.687
'0:11.465',1216.843
'0:11.469',1215.822
'0:11.473',1214.733
'0:11.477',1213.701
'0:11.480',1212.797
'0:11.484',1212.003
'0:11.488',1211.277
'0:11.492',1210.632
'0:11.496',1210.115
'0:11.500',1209.731
'0:11.504',1209.422
'0:11.508',1209.086
'0:11.512',1208.666
'0:11.516',1208.185
'0:11.520',1207.748
'0:11.523',1207.483
'0:11.527',1207.500
'0:11.531',1207.826
'0:11.535',1208.414
'0:11.539',1209.120
'0:11.543',1209.765
'0:11.547',1210.199
'0:11.551',1210.367
'0:11.555',1210.293
'0:11.559',1210.071
'0:11.563',1209.768
'0:11.566',1209.402
'0:11.570',1208.955
'0:11.574',1208.454
'0:11.578',1207.967
'0:11.582',1207.564
'0:11.586',1207.301
'0:11.590',1207.238
'0:11.594',1207.392
'0:11.598',1207.755
'0:11.602',1208.279
'0:11.605',1208.878
'0:11.609',1209.456
'0:11.613',1209.947
'0:11.617',1210.313
'0:11.621',1210.572
'0:11.625',1210.763
'0:11.629',1210.911
'0:11.633',1211.012
'0:11.637',1211.046
'0:11.641',1211.012
'0:11.645',1210.935
'0:11.648',1210.878
'0:11.652',1210.888
'0:11.656',1210.965
'0:11.660',1211.123
'0:11.664',1211.395
'0:11.668',1211.849
'0:11.672',1212.508
'0:11.676',1213.341
'0:11.680',1214.289
'0:11.684',1215.348
'0:11.688',1216.568
'0:11.691',1217.946
'0:11.695',1219.374
'0:11.699',1220.658
'0:11.703',1221.650
'0:11.707',1222.288
'0:11.711',1222.614
'0:11.715',1222.722
'0:11.719',1222.708
'0:11.723',1222.604
'0:11.727',1222.406
'0:11.730',1222.150
'0:11.734',1221.898
'0:11.738',1221.666
'0:11.742',1221.408
'0:11.746',1221.088
'0:11.750',1220.702
'0:11.754',1220.275
'0:11.758',1219.858
'0:11.762',1219.492
'0:11.766',1219.206
'0:11.770',1219.004
'0:11.773',1218.877
'0:11.777',1218.789
'0:11.781',1218.699
'0:11.785',1218.581
'0:11.789',1218.453
'0:11.793',1218.315
'0:11.797',1218.168
'0:11.801',1218.013
'0:11.805',1217.872
'0:11.809',1217.784
'0:11.813',1217.778
'0:11.816',1217.825
'0:11.820',1217.858
'0:11.824',1217.798
'0:11.828',1217.579
'0:11.832',1217.183
'0:11.836',1216.645
'0:11.840',1216.043
'0:11.844',1215.469
'0:11.848',1215.022
'0:11.852',1214.773
'0:11.855',1214.780
'0:11.859',1215.018
'0:11.863',1215.381
'0:11.867',1215.711
'0:11.871',1215.909
'0:11.875',1215.912
'0:11.879',1215.664
'0:11.883',1215.096
'0:11.887',1214.181
'0:11.891',1212.908
'0:11.895',1211.277
'0:11.898',1209.355
'0:11.902',1207.305
'0:11.906',1205.362
'0:11.910',1203.745
'0:11.914',1202.583
'0:11.918',1201.924
'0:11.922',1201.766
'0:11.926',1202.068
'0:11.930',1202.764
'0:11.934',1203.759
'0:11.938',1204.918
'0:11.941',1206.115
'0:11.945',1207.231
'0:11.949',1208.195
'0:11.953',1209.005
'0:11.957',1209.721
'0:11.961',1210.420
'0:11.965',1211.136
'0:11.969',1211.819
'0:11.973',1212.340
'0:11.977',1212.595
'0:11.980',1212.571
'0:11.984',1212.326
'0:11.988',1211.950
'0:11.992',1211.513
'0:11.996',1211.005
'0:12.000',1210.367
'0:12.004',1209.570
'0:12.008',1208.720
'0:12.012',1207.974
'0:12.016',1207.443
'0:12.020',1207.117
'0:12.023',1206.898
'0:12.027',1206.713
'0:12.031',1206.562
'0:12.035',1206.491
'0:12.039',1206.481
'0:12.043',1206.454
'0:12.047',1206.333
'0:12.051',1206.132
'0:12.055',1205.873
'0:12.059',1205.547
'0:12.063',1205.113
'0:12.066',1204.603
'0:12.070',1204.119
'0:12.074',1203.759
'0:12.078',1203.567
'0:12.082',1203.547
'0:12.086',1203.709
'0:12.090',1204.041
'0:12.094',1204.519
'0:12.098',1205.070
'0:12.102',1205.621
'0:12.105',1206.125
'0:12.109',1206.592
'0:12.113',1207.043
'0:12.117',1207.493
'0:12.121',1207.953
'0:12.125',1208.424
'0:12.129',1208.905
'0:12.133',1209.372
'0:12.137',1209.815
'0:12.141',1210.259
'0:12.145',1210.753
'0:12.148',1211.318
'0:12.152',1211.960
'0:12.156',1212.645
'0:12.160',1213.314
'0:12.164',1213.913
'0:12.168',1214.444
'0:12.172',1214.991
'0:12.176',1215.660
'0:12.180',1216.497
'0:12.184',1217.405
'0:12.188',1218.211
'0:12.191',1218.742
'0:12.195',1218.883
'0:12.199',1218.574
'0:12.203',1217.828
'0:12.207',1216.695
'0:12.211',1215.284
'0:12.215',1213.744
'0:12.219',1212.249
'0:12.223',1210.955
'0:12.227',1209.977
'0:12.230',1209.368
'0:12.234',1209.100
'0:12.238',1209.059
'0:12.242',1209.096
'0:12.246',1209.126
'0:12.250',1209.140
'0:12.254',1209.130
'0:12.258',1209.120
'0:12.262',1209.137
'0:12.266',1209.200
'0:12.270',1209.308
'0:12.273',1209.429
'0:12.277',1209.523
'0:12.281',1209.563
'0:12.285',1209.547
'0:12.289',1209.506
'0:12.293',1209.520
'0:12.297',1209.691
'0:12.301',1210.135
'0:12.305',1210.918
'0:12.309',1212.024
'0:12.313',1213.304
'0:12.316',1214.531
'0:12.320',1215.529
'0:12.324',1216.228
'0:12.328',1216.648
'0:12.332',1216.863
'0:12.336',1216.941
'0:12.340',1216.974
'0:12.344',1217.055
'0:12.348',1217.253
'0:12.352',1217.573
'0:12.355',1217.959
'0:12.359',1218.352
'0:12.363',1218.729
'0:12.367',1219.088
'0:12.371',1219.451
'0:12.375',1219.865
'0:12.379',1220.386
'0:12.383',1221.065
'0:12.387',1221.965
'0:12.391',1223.115
'0:12.395',1224.466
'0:12.398',1225.894
'0:12.402',1227.242
'0:12.406',1228.375
'0:12.410',1229.252
'0:12.414',1229.908
'0:12.418',1230.428
'0:12.422',1230.912
'0:12.426',1231.440
'0:12.430',1232.032
'0:12.434',1232.657
'0:12.438',1233.302
'0:12.441',1233.971
'0:12.445',1234.647
'0:12.449',1235.221
'0:12.453',1235.571
'0:12.457',1235.645
'0:12.461',1235.483
'0:12.465',1235.181
'0:12.469',1234.808
'0:12.473',1234.472
'0:12.477',1234.314
'0:12.480',1234.458
'0:12.484',1234.919
'0:12.488',1235.615
'0:12.492',1236.425
'0:12.496',1237.211
'0:12.500',1237.813
'0:12.504',1238.085
'0:12.508',1237.957
'0:12.512',1237.403
'0:12.516',1236.438
'0:12.520',1235.164
'0:12.523',1233.742
'0:12.527',1232.344
'0:12.531',1231.077
'0:12.535',1229.961
'0:12.539',1228.990
'0:12.543',1228.160
'0:12.547',1227.447
'0:12.551',1226.819
'0:12.555',1226.217
'0:12.559',1225.582
'0:12.563',1224.869
'0:12.566',1224.063
'0:12.570',1223.169
'0:12.574',1222.224
'0:12.578',1221.236
'0:12.582',1220.211
'0:12.586',1219.216
'0:12.590',1218.369
'0:12.594',1217.747
'0:12.598',1217.358
'0:12.602',1217.179
'0:12.605',1217.206
'0:12.609',1217.452
'0:12.613',1217.895
'0:12.617',1218.477
'0:12.621',1219.105
'0:12.625',1219.704
'0:12.629',1220.208
'0:12.633',1220.547
'0:12.637',1220.645
'0:12.641',1220.473
'0:12.645',1220.030
'0:12.648',1219.320
'0:12.652',1218.362
'0:12.656',1217.189
'0:12.660',1215.845
'0:12.664',1214.397
'0:12.668',1212.931
'0:12.672',1211.563
'0:12.676',1210.394
'0:12.680',1209.479
'0:12.684',1208.811
'0:12.688',1208.320
'0:12.691',1207.920
'0:12.695',1207.584
'0:12.699',1207.345
'0:12.703',1207.234
'0:12.707',1207.214
'0:12.711',1207.211
'0:12.715',1207.184
'0:12.719',1207.177
'0:12.723',1207.298
'0:12.727',1207.627
'0:12.730',1208.162
'0:12.734',1208.817
'0:12.738',1209.469
'0:12.742',1209.994
'0:12.746',1210.350
'0:12.750',1210.622
'0:12.754',1210.968
'0:12.758',1211.503
'0:12.762',1212.212
'0:12.766',1212.955
'0:12.770',1213.553
'0:12.773',1213.909
'0:12.777',1214.054
'0:12.781',1214.094
'0:12.785',1214.104
'0:12.789',1214.101
'0:12.793',1214.050
'0:12.797',1213.923
'0:12.801',1213.687
'0:12.805',1213.338
'0:12.809',1212.911
'0:12.813',1212.464
'0:12.816',1212.081
'0:12.820',1211.829
'0:12.824',1211.768
'0:12.828',1211.943
'0:12.832',1212.380
'0:12.836',1213.055
'0:12.840',1213.906
'0:12.844',1214.854
'0:12.848',1215.822
'0:12.852',1216.736
'0:12.855',1217.589
'0:12.859',1218.410
'0:12.863',1219.216
'0:12.867',1219.999
'0:12.871',1220.732
'0:12.875',1221.360
'0:12.879',1221.824
'0:12.883',1222.073
'0:12.887',1222.080
'0:12.891',1221.855
'0:12.895',1221.451
'0:12.898',1220.977
'0:12.902',1220.547
'0:12.906',1220.245
'0:12.910',1220.060
'0:12.914',1219.915
'0:12.918',1219.730
'0:12.922',1219.445
'0:12.926',1219.031
'0:12.930',1218.467
'0:12.934',1217.754
'0:12.938',1216.914
'0:12.941',1215.996
'0:12.945',1215.055
'0:12.949',1214.134
'0:12.953',1213.250
'0:12.957',1212.400
'0:12.961',1211.630
'0:12.965',1211.046
'0:12.969',1210.757
'0:12.973',1210.820
'0:12.977',1211.241
'0:12.980',1212.003
'0:12.984',1213.035
'0:12.988',1214.208
'0:12.992',1215.344
'0:12.996',1216.265
'0:13.000',1216.816
'0:13.004',1216.863
'0:13.008',1216.319
'0:13.012',1215.190
'0:13.016',1213.630
'0:13.020',1211.872
'0:13.023',1210.178
'0:13.027',1208.720
'0:13.031',1207.577
'0:13.035',1206.747
'0:13.039',1206.196
'0:13.043',1205.910
'0:13.047',1205.890
'0:13.051',1206.149
'0:13.055',1206.666
'0:13.059',1207.379
'0:13.063',1208.172
'0:13.066',1208.928
'0:13.070',1209.567
'0:13.074',1210.047
'0:13.078',1210.357
'0:13.082',1210.478
'0:13.086',1210.457
'0:13.090',1210.410
'0:13.094',1210.434
'0:13.098',1210.558
'0:13.102',1210.696
'0:13.105',1210.730
'0:13.109',1210.582
'0:13.113',1210.259
'0:13.117',1209.836
'0:13.121',1209.375
'0:13.125',1208.932
'0:13.129',1208.562
'0:13.133',1208.313
'0:13.137',1208.202
'0:13.141',1208.206
'0:13.145',1208.276
'0:13.148',1208.411
'0:13.152',1208.619
'0:13.156',1208.861
'0:13.160',1209.069
'0:13.164',1209.217
'0:13.168',1209.335
'0:13.172',1209.439
'0:13.176',1209.476
'0:13.180',1209.368
'0:13.184',1209.086
'0:13.188',1208.679
'0:13.191',1208.239
'0:13.195',1207.843
'0:13.199',1207.540
'0:13.203',1207.409
'0:13.207',1207.540
'0:13.211',1207.930
'0:13.215',1208.471
'0:13.219',1209.019
'0:13.223',1209.456
'0:13.227',1209.731
'0:13.230',1209.839
'0:13.234',1209.819
'0:13.238',1209.789
'0:13.242',1209.883
'0:13.246',1210.189
'0:13.250',1210.689
'0:13.254',1211.267
'0:13.258',1211.795
'0:13.262',1212.195
'0:13.266',1212.474
'0:13.270',1212.676
'0:13.273',1212.844
'0:13.277',1213.002
'0:13.281',1213.143
'0:13.285',1213.250
'0:13.289',1213.321
'0:13.293',1213.351
'0:13.297',1213.294
'0:13.301',1213.113
'0:13.305',1212.827
'0:13.309',1212.484
'0:13.313',1212.111
'0:13.316',1211.711
'0:13.320',1211.281
'0:13.324',1210.830
'0:13.328',1210.367
'0:13.332',1209.923
'0:13.336',1209.563
'0:13.340',1209.358
'0:13.344',1209.365
'0:13.348',1209.641
'0:13.352',1210.226
'0:13.355',1211.136
'0:13.359',1212.340
'0:13.363',1213.765
'0:13.367',1215.280
'0:13.371',1216.766
'0:13.375',1218.144
'0:13.379',1219.378
'0:13.383',1220.460
'0:13.387',1221.387
'0:13.391',1222.197
'0:13.395',1222.933
'0:13.398',1223.626
'0:13.402',1224.227
'0:13.406',1224.661
'0:13.410',1224.906
'0:13.414',1225.031
'0:13.418',1225.111
'0:13.422',1225.182
'0:13.426',1225.209
'0:13.430',1225.189
'0:13.434',1225.195
'0:13.438',1225.316
'0:13.441',1225.589
'0:13.445',1226.005
'0:13.449',1226.547
'0:13.453',1227.162
'0:13.457',1227.740
'0:13.461',1228.193
'0:13.465',1228.482
'0:13.469',1228.593
'0:13.473',1228.516
'0:13.477',1228.200
'0:13.480',1227.615
'0:13.484',1226.762
'0:13.488',1225.700
'0:13.492',1224.537
'0:13.496',1223.407
'0:13.500',1222.466
'0:13.504',1221.838
'0:13.508',1221.562
'0:13.512',1221.576
'0:13.516',1221.713
'0:13.520',1221.791
'0:13.523',1221.670
'0:13.527',1221.276
'0:13.531',1220.598
'0:13.535',1219.683
'0:13.539',1218.625
'0:13.543',1217.552
'0:13.547',1216.568
'0:13.551',1215.727
'0:13.555',1215.052
'0:13.559',1214.518
'0:13.563',1214.067
'0:13.566',1213.647
'0:13.570',1213.237
'0:13.574',1212.864
'0:13.578',1212.551
'0:13.582',1212.336
'0:13.586',1212.239
'0:13.590',1212.245
'0:13.594',1212.326
'0:13.598',1212.450
'0:13.602',1212.619
'0:13.605',1212.881
'0:13.609',1213.291
'0:13.613',1213.906
'0:13.617',1214.743
'0:13.621',1215.798
'0:13.625',1217.015
'0:13.629',1218.262
'0:13.633',1219.310
'0:13.637',1219.935
'0:13.641',1219.976
'0:13.645',1219.378
'0:13.648',1218.208
'0:13.652',1216.662
'0:13.656',1215.015
'0:13.660',1213.553
'0:13.664',1212.491
'0:13.668',1211.933
'0:13.672',1211.896
'0:13.676',1212.329
'0:13.680',1213.150
'0:13.684',1214.225
'0:13.688',1215.375
'0:13.691',1216.396
'0:13.695',1217.116
'0:13.699',1217.485
'0:13.703',1217.569
'0:13.707',1217.472
'0:13.711',1217.260
'0:13.715',1216.961
'0:13.719',1216.645
'0:13.723',1216.383
'0:13.727',1216.198
'0:13.730',1216.020
'0:13.734',1215.771
'0:13.738',1215.405
'0:13.742',1214.904
'0:13.746',1214.239
'0:13.750',1213.418
'0:13.754',1212.545
'0:13.758',1211.778
'0:13.762',1211.308
'0:13.766',1211.267
'0:13.770',1211.748
'0:13.773',1212.777
'0:13.777',1214.339
'0:13.781',1216.359
'0:13.785',1218.678
'0:13.789',1221.075
'0:13.793',1223.320
'0:13.797',1225.259
'0:13.801',1226.862
'0:13.805',1228.207
'0:13.809',1229.407
'0:13.813',1230.533
'0:13.816',1231.595
'0:13.820',1232.553
'0:13.824',1233.349
'0:13.828',1233.944
'0:13.832',1234.317
'0:13.836',1234.478
'0:13.840',1234.462
'0:13.844',1234.327
'0:13.848',1234.152
'0:13.852',1233.998
'0:13.855',1233.853
'0:13.859',1233.625
'0:13.863',1233.225
'0:13.867',1232.616
'0:13.871',1231.820
'0:13.875',1230.879
'0:13.879',1229.844
'0:13.883',1228.738
'0:13.887',1227.578
'0:13.891',1226.419
'0:13.895',1225.343
'0:13.898',1224.419
'0:13.902',1223.683
'0:13.906',1223.142
'0:13.910',1222.769
'0:13.914',1222.513
'0:13.918',1222.328
'0:13.922',1222.197
'0:13.926',1222.056
'0:13.930',1221.797
'0:13.934',1221.350
'0:13.938',1220.735
'0:13.941',1220.019
'0:13.945',1219.246
'0:13.949',1218.393
'0:13.953',1217.418
'0:13.957',1216.366
'0:13.961',1215.364
'0:13.965',1214.554
'0:13.969',1213.993
'0:13.973',1213.630
'0:13.977',1213.385
'0:13.980',1213.187
'0:13.984',1212.978
'0:13.988',1212.740
'0:13.992',1212.457
'0:13.996',1212.131
'0:14.000',1211.748
'0:14.004',1211.288
'0:14.008',1210.696
'0:14.012',1209.947
'0:14.016',1209.103
'0:14.020',1208.249
'0:14.023',1207.426
'0:14.027',1206.623
'0:14.031',1205.873
'0:14.035',1205.281
'0:14.039',1204.955
'0:14.043',1204.949
'0:14.047',1205.218
'0:14.051',1205.688
'0:14.055',1206.270
'0:14.059',1206.881
'0:14.063',1207.429
'0:14.066',1207.846
'0:14.070',1208.115
'0:14.074',1208.229
'0:14.078',1208.209
'0:14.082',1208.128
'0:14.086',1208.074
'0:14.090',1208.101
'0:14.094',1208.185
'0:14.098',1208.239
'0:14.102',1208.132
'0:14.105',1207.782
'0:14.109',1207.211
'0:14.113',1206.522
'0:14.117',1205.813
'0:14.121',1205.093
'0:14.125',1204.340
'0:14.129',1203.561
'0:14.133',1202.821
'0:14.137',1202.179
'0:14.141',1201.695
'0:14.145',1201.433
'0:14.148',1201.457
'0:14.152',1201.729
'0:14.156',1202.112
'0:14.160',1202.445
'0:14.164',1202.636
'0:14.168',1202.700
'0:14.172',1202.744
'0:14.176',1202.922
'0:14.180',1203.362
'0:14.184',1204.072
'0:14.188',1204.966
'0:14.191',1205.917
'0:14.195',1206.814
'0:14.199',1207.594
'0:14.203',1208.212
'0:14.207',1208.622
'0:14.211',1208.780
'0:14.215',1208.679
'0:14.219',1208.367
'0:14.223',1207.916
'0:14.227',1207.439
'0:14.230',1207.049
'0:14.234',1206.844
'0:14.238',1206.861
'0:14.242',1207.096
'0:14.246',1207.533
'0:14.250',1208.158
'0:14.254',1208.942
'0:14.258',1209.812
'0:14.262',1210.649
'0:14.266',1211.338
'0:14.270',1211.809
'0:14.273',1212.027
'0:14.277',1212.040
'0:14.281',1211.956
'0:14.285',1211.936
'0:14.289',1212.118
'0:14.293',1212.528
'0:14.297',1213.062
'0:14.301',1213.576
'0:14.305',1213.963
'0:14.309',1214.191
'0:14.313',1214.272
'0:14.316',1214.262
'0:14.320',1214.202
'0:14.324',1214.081
'0:14.328',1213.852
'0:14.332',1213.452
'0:14.336',1212.867
'0:14.340',1212.135
'0:14.344',1211.338
'0:14.348',1210.609
'0:14.352',1210.088
'0:14.355',1209.886
'0:14.359',1210.034
'0:14.363',1210.474
'0:14.367',1211.072
'0:14.371',1211.667
'0:14.375',1212.168
'0:14.379',1212.585
'0:14.383',1212.988
'0:14.387',1213.415
'0:14.391',1213.832
'0:14.395',1214.178
'0:14.398',1214.444
'0:14.402',1214.679
'0:14.406',1214.944
'0:14.410',1215.267
'0:14.414',1215.637
'0:14.418',1216.053
'0:14.422',1216.534
'0:14.426',1217.126
'0:14.430',1217.862
'0:14.434',1218.766
'0:14.438',1219.835
'0:14.441',1221.034
'0:14.445',1222.305
'0:14.449',1223.515
'0:14.453',1224.510
'0:14.457',1225.179
'0:14.461',1225.491
'0:14.465',1225.515
'0:14.469',1225.380
'0:14.473',1225.226
'0:14.477',1225.182
'0:14.480',1225.360
'0:14.484',1225.858
'0:14.488',1226.735
'0:14.492',1228.005
'0:14.496',1229.629
'0:14.500',1231.511
'0:14.504',1233.477
'0:14.508',1235.346
'0:14.512',1237.023
'0:14.516',1238.488
'0:14.520',1239.765
'0:14.523',1240.844
'0:14.527',1241.708
'0:14.531',1242.326
'0:14.535',1242.673
'0:14.539',1242.757
'0:14.543',1242.636
'0:14.547',1242.390
'0:14.551',1242.131
'0:14.555',1241.940
'0:14.559',1241.799
'0:14.563',1241.621
'0:14.566',1241.348
'0:14.570',1240.979
'0:14.574',1240.528
'0:14.578',1240.088
'0:14.582',1239.762
'0:14.586',1239.624
'0:14.590',1239.634
'0:14.594',1239.735
'0:14.598',1239.917
'0:14.602',1240.276
'0:14.605',1240.908
'0:14.609',1241.802
'0:14.613',1242.797
'0:14.617',1243.647
'0:14.621',1244.131
'0:14.625',1244.114
'0:14.629',1243.536
'0:14.633',1242.421
'0:14.637',1240.885
'0:14.641',1239.133
'0:14.645',1237.426
'0:14.648',1236.008
'0:14.652',1235.033
'0:14.656',1234.515
'0:14.660',1234.368
'0:14.664',1234.428
'0:14.668',1234.549
'0:14.672',1234.636
'0:14.676',1234.653
'0:14.680',1234.539
'0:14.684',1234.210
'0:14.688',1233.628
'0:14.691',1232.835
'0:14.695',1231.931
'0:14.699',1231.010
'0:14.703',1230.133
'0:14.707',1229.326
'0:14.711',1228.580
'0:14.715',1227.864
'0:14.719',1227.158
'0:14.723',1226.483
'0:14.727',1225.831
'0:14.730',1225.158
'0:14.734',1224.432
'0:14.738',1223.639
'0:14.742',1222.799
'0:14.746',1221.959
'0:14.750',1221.169
'0:14.754',1220.480
'0:14.758',1219.922
'0:14.762',1219.505
'0:14.766',1219.206
'0:14.770',1218.981
'0:14.773',1218.783
'0:14.777',1218.588
'0:14.781',1218.352
'0:14.785',1218.033
'0:14.789',1217.647
'0:14.793',1217.250
'0:14.797',1216.907
'0:14.801',1216.665
'0:14.805',1216.578
'0:14.809',1216.692
'0:14.813',1216.954
'0:14.816',1217.223
'0:14.820',1217.354
'0:14.824',1217.260
'0:14.828',1216.951
'0:14.832',1216.484
'0:14.836',1215.946
'0:14.840',1215.422
'0:14.844',1214.954
'0:14.848',1214.568
'0:14.852',1214.272
'0:14.855',1214.057
'0:14.859',1213.933
'0:14.863',1213.879
'0:14.867',1213.879
'0:14.871',1213.929
'0:14.875',1214.037
'0:14.879',1214.155
'0:14.883',1214.195
'0:14.887',1214.131
'0:14.891',1213.973
'0:14.895',1213.728
'0:14.898',1213.408
'0:14.902',1213.062
'0:14.906',1212.763
'0:14.910',1212.592
'0:14.914',1212.585
'0:14.918',1212.750
'0:14.922',1213.092
'0:14.926',1213.587
'0:14.930',1214.131
'0:14.934',1214.565
'0:14.938',1214.756
'0:14.941',1214.638
'0:14.945',1214.188
'0:14.949',1213.425
'0:14.953',1212.454
'0:14.957',1211.425
'0:14.961',1210.474
'0:14.965',1209.684
'0:14.969',1209.073
'0:14.973',1208.653
'0:14.977',1208.464
'0:14.980',1208.538
'0:14.984',1208.837
'0:14.988',1209.271
'0:14.992',1209.762
'0:14.996',1210.279
'0:15.000',1210.770
'0:15.004',1211.133
'0:15.008',1211.277
'0:15.012',1211.190
'0:15.016',1210.908
'0:15.020',1210.457
'0:15.023',1209.846
'0:15.027',1209.143
'0:15.031',1208.495
'0:15.035',1208.051
'0:15.039',1207.883
'0:15.043',1207.933
'0:15.047',1208.051
'0:15.051',1208.024
'0:15.055',1207.688
'0:15.059',1206.969
'0:15.063',1205.907
'0:15.066',1204.633
'0:15.070',1203.329
'0:15.074',1202.149
'0:15.078',1201.188
'0:15.082',1200.455
'0:15.086',1199.901
'0:15.090',1199.447
'0:15.094',1199.047
'0:15.098',1198.691
'0:15.102',1198.428
'0:15.105',1198.331
'0:15.109',1198.479
'0:15.113',1198.949
'0:15.117',1199.783
'0:15.121',1200.926
'0:15.125',1202.193
'0:15.129',1203.339
'0:15.133',1204.176
'0:15.137',1204.640
'0:15.141',1204.797
'0:15.145',1204.747
'0:15.148',1204.599
'0:15.152',1204.492
'0:15.156',1204.582
'0:15.160',1204.999
'0:15.164',1205.786
'0:15.168',1206.945
'0:15.172',1208.458
'0:15.176',1210.279
'0:15.180',1212.346
'0:15.184',1214.548
'0:15.188',1216.756
'0:15.191',1218.860
'0:15.195',1220.806
'0:15.199',1222.577
'0:15.203',1224.150
'0:15.207',1225.508
'0:15.211',1226.644
'0:15.215',1227.558
'0:15.219',1228.261
'0:15.223',1228.751
'0:15.227',1229.037
'0:15.230',1229.168
'0:15.234',1229.249
'0:15.238',1229.393
'0:15.242',1229.649
'0:15.246',1229.995
'0:15.250',1230.445
'0:15.254',1230.993
'0:15.258',1231.554
'0:15.262',1231.991
'0:15.266',1232.200
'0:15.270',1232.173
'0:15.273',1231.968
'0:15.277',1231.659
'0:15.281',1231.329
'0:15.285',1231.044
'0:15.289',1230.815
'0:15.293',1230.630
'0:15.297',1230.553
'0:15.301',1230.718
'0:15.305',1231.259
'0:15.309',1232.200
'0:15.313',1233.410
'0:15.316',1234.670
'0:15.320',1235.746
'0:15.324',1236.441
'0:15.328',1236.650
'0:15.332',1236.344
'0:15.336',1235.564
'0:15.340',1234.408
'0:15.344',1233.016
'0:15.348',1231.561
'0:15.352',1230.237
'0:15.355',1229.212
'0:15.359',1228.580
'0:15.363',1228.324
'0:15.367',1228.345
'0:15.371',1228.462
'0:15.375',1228.496
'0:15.379',1228.328
'0:15.383',1227.978
'0:15.387',1227.521
'0:15.391',1226.980
'0:15.395',1226.331
'0:15.398',1225.572
'0:15.402',1224.772
'0:15.406',1224.032
'0:15.410',1223.434
'0:15.414',1223.024
'0:15.418',1222.816
'0:15.422',1222.762
'0:15.426',1222.775
'0:15.430',1222.742
'0:15.434',1222.554
'0:15.438',1222.187
'0:15.441',1221.727
'0:15.445',1221.334
'0:15.449',1221.162
'0:15.453',1221.344
'0:15.457',1221.935
'0:15.461',1222.920
'0:15.465',1224.204
'0:15.469',1225.622
'0:15.473',1226.994
'0:15.477',1228.224
'0:15.480',1229.316
'0:15.484',1230.287
'0:15.488',1231.141
'0:15.492',1231.901
'0:15.496',1232.653
'0:15.500',1233.470
'0:15.504',1234.391
'0:15.508',1235.406
'0:15.512',1236.455
'0:15.516',1237.403
'0:15.520',1238.159
'0:15.523',1238.710
'0:15.527',1239.107
'0:15.531',1239.399
'0:15.535',1239.624
'0:15.539',1239.796
'0:15.543',1239.896
'0:15.547',1239.903
'0:15.551',1239.796
'0:15.555',1239.574
'0:15.559',1239.261
'0:15.563',1238.905
'0:15.566',1238.535
'0:15.570',1238.165
'0:15.574',1237.782
'0:15.578',1237.335
'0:15.582',1236.744
'0:15.586',1235.951
'0:15.590',1234.956
'0:15.594',1233.763
'0:15.598',1232.368
'0:15.602',1230.812
'0:15.605',1229.229
'0:15.609',1227.760
'0:15.613',1226.493
'0:15.617',1225.474
'0:15.621',1224.745
'0:15.625',1224.332
'0:15.629',1224.231
'0:15.633',1224.382
'0:15.637',1224.695
'0:15.641',1225.061
'0:15.645',1225.370
'0:15.648',1225.525
'0:15.652',1225.478
'0:15.656',1225.229
'0:15.660',1224.806
'0:15.664',1224.254
'0:15.668',1223.582
'0:15.672',1222.755
'0:15.676',1221.754
'0:15.680',1220.621
'0:15.684',1219.455
'0:15.688',1218.309
'0:15.691',1217.142
'0:15.695',1215.912
'0:15.699',1214.662
'0:15.703',1213.533
'0:15.707',1212.689
'0:15.711',1212.249
'0:15.715',1212.225
'0:15.719',1212.545
'0:15.723',1213.039
'0:15.727',1213.516
'0:15.730',1213.869
'0:15.734',1214.111
'0:15.738',1214.339
'0:15.742',1214.625
'0:15.746',1215.012
'0:15.750',1215.496
'0:15.754',1216.023
'0:15.758',1216.494
'0:15.762',1216.823
'0:15.766',1216.988
'0:15.770',1217.025
'0:15.773',1217.005
'0:15.777',1216.981
'0:15.781',1216.991
'0:15.785',1217.038
'0:15.789',1217.109
'0:15.793',1217.166
'0:15.797',1217.189
'0:15.801',1217.203
'0:15.805',1217.247
'0:15.809',1217.351
'0:15.813',1217.512
'0:15.816',1217.731
'0:15.820',1218.006
'0:15.824',1218.349
'0:15.828',1218.776
'0:15.832',1219.297
'0:15.836',1219.898
'0:15.840',1220.550
'0:15.844',1221.209
'0:15.848',1221.844
'0:15.852',1222.449
'0:15.855',1223.007
'0:15.859',1223.491
'0:15.863',1223.908
'0:15.867',1224.318
'0:15.871',1224.772
'0:15.875',1225.266
'0:15.879',1225.747
'0:15.883',1226.217
'0:15.887',1226.758
'0:15.891',1227.437
'0:15.895',1228.271
'0:15.898',1229.239
'0:15.902',1230.267
'0:15.906',1231.282
'0:15.910',1232.233
'0:15.914',1233.070
'0:15.918',1233.702
'0:15.922',1234.045
'0:15.926',1234.058
'0:15.930',1233.756
'0:15.934',1233.161
'0:15.938',1232.294
'0:15.941',1231.222
'0:15.945',1230.065
'0:15.949',1228.913
'0:15.953',1227.814
'0:15.957',1226.829
'0:15.961',1226.012
'0:15.965',1225.400
'0:15.969',1225.004
'0:15.973',1224.802
'0:15.977',1224.765
'0:15.980',1224.856
'0:15.984',1225.041
'0:15.988',1225.263
'0:15.992',1225.478
'0:15.996',1225.646
'0:16.000',1225.743
'0:16.004',1225.757
'0:16.008',1225.696
'0:16.012',1225.582
'0:16.016',1225.437
'0:16.020',1225.273
'0:16.023',1225.078
'0:16.027',1224.849
'0:16.031',1224.590
'0:16.035',1224.311
'0:16.039',1224.019
'0:16.043',1223.727
'0:16.047',1223.438
'0:16.051',1223.138
'0:16.055',1222.765
'0:16.059',1222.251
'0:16.063',1221.579
'0:16.066',1220.792
'0:16.070',1220.006
'0:16.074',1219.330
'0:16.078',1218.833
'0:16.082',1218.524
'0:16.086',1218.369
'0:16.090',1218.305
'0:16.094',1218.238
'0:16.098',1218.110
'0:16.102',1217.936
'0:16.105',1217.805
'0:16.109',1217.818
'0:16.113',1218.036
'0:16.117',1218.430
'0:16.121',1218.927
'0:16.125',1219.482
'0:16.129',1220.114
'0:16.133',1220.813
'0:16.137',1221.498
'0:16.141',1222.026
'0:16.145',1222.298
'0:16.148',1222.275
'0:16.152',1221.976
'0:16.156',1221.431
'0:16.160',1220.661
'0:16.164',1219.714
'0:16.168',1218.678
'0:16.172',1217.680
'0:16.176',1216.816
'0:16.180',1216.148
'0:16.184',1215.687
'0:16.188',1215.381
'0:16.191',1215.089
'0:16.195',1214.672
'0:16.199',1214.070
'0:16.203',1213.341
'0:16.207',1212.612
'0:16.211',1212.003
'0:16.215',1211.617
'0:16.219',1211.533
'0:16.223',1211.792
'0:16.227',1212.340
'0:16.230',1213.042
'0:16.234',1213.751
'0:16.238',1214.400
'0:16.242',1215.015
'0:16.246',1215.643
'0:16.250',1216.285
'0:16.254',1216.880
'0:16.258',1217.384
'0:16.262',1217.821
'0:16.266',1218.225
'0:16.270',1218.611
'0:16.273',1218.967
'0:16.277',1219.283
'0:16.281',1219.529
'0:16.285',1219.714
'0:16.289',1219.882
'0:16.293',1220.060
'0:16.297',1220.235
'0:16.301',1220.382
'0:16.305',1220.483
'0:16.309',1220.503
'0:16.313',1220.423
'0:16.316',1220.255
'0:16.320',1220.070
'0:16.324',1219.912
'0:16.328',1219.757
'0:16.332',1219.535
'0:16.336',1219.199
'0:16.340',1218.746
'0:16.344',1218.228
'0:16.348',1217.734
'0:16.352',1217.354
'0:16.355',1217.179
'0:16.359',1217.240
'0:16.363',1217.452
'0:16.367',1217.630
'0:16.371',1217.610
'0:16.375',1217.300
'0:16.379',1216.682
'0:16.383',1215.754
'0:16.387',1214.538
'0:16.391',1213.133
'0:16.395',1211.684
'0:16.398',1210.353
'0:16.402',1209.234
'0:16.406',1208.364
'0:16.410',1207.725
'0:16.414',1207.298
'0:16.418',1207.090
'0:16.422',1207.127
'0:16.426',1207.436
'0:16.430',1208.027
'0:16.434',1208.878
'0:16.438',1209.933
'0:16.441',1211.113
'0:16.445',1212.333
'0:16.449',1213.550
'0:16.453',1214.719
'0:16.457',1215.758
'0:16.461',1216.568
'0:16.465',1217.109
'0:16.469',1217.428
'0:16.473',1217.576
'0:16.477',1217.566
'0:16.480',1217.398
'0:16.484',1217.122
'0:16.488',1216.833
'0:16.492',1216.632
'0:16.496',1216.564
'0:16.500',1216.645
'0:16.504',1216.863
'0:16.508',1217.163
'0:16.512',1217.468
'0:16.516',1217.761
'0:16.520',1218.070
'0:16.523',1218.430
'0:16.527',1218.867
'0:16.531',1219.411
'0:16.535',1220.056
'0:16.539',1220.745
'0:16.543',1221.424
'0:16.547',1222.036
'0:16.551',1222.533
'0:16.555',1222.876
'0:16.559',1223.028
'0:16.563',1222.933
'0:16.566',1222.564
'0:16.570',1221.989
'0:16.574',1221.364
'0:16.578',1220.870
'0:16.582',1220.648
'0:16.586',1220.776
'0:16.590',1221.250
'0:16.594',1222.009
'0:16.598',1222.994
'0:16.602',1224.177
'0:16.605',1225.542
'0:16.609',1227.007
'0:16.613',1228.415
'0:16.617',1229.592
'0:16.621',1230.432
'0:16.625',1230.929
'0:16.629',1231.124
'0:16.633',1231.097
'0:16.637',1230.929
'0:16.641',1230.667
'0:16.645',1230.388
'0:16.648',1230.200
'0:16.652',1230.173
'0:16.656',1230.284
'0:16.660',1230.425
'0:16.664',1230.435
'0:16.668',1230.197
'0:16.672',1229.662
'0:16.676',1228.839
'0:16.680',1227.793
'0:16.684',1226.634
'0:16.688',1225.431
'0:16.691',1224.221
'0:16.695',1223.054
'0:16.699',1221.989
'0:16.703',1221.082
'0:16.707',1220.386
'0:16.711',1219.895
'0:16.715',1219.549
'0:16.719',1219.273
'0:16.723',1219.058
'0:16.727',1218.947
'0:16.730',1218.961
'0:16.734',1219.045
'0:16.738',1219.115
'0:16.742',1219.129
'0:16.746',1219.068
'0:16.750',1218.900
'0:16.754',1218.604
'0:16.758',1218.181
'0:16.762',1217.663
'0:16.766',1217.119
'0:16.770',1216.618
'0:16.773',1216.208
'0:16.777',1215.909
'0:16.781',1215.704
'0:16.785',1215.536
'0:16.789',1215.351
'0:16.793',1215.119
'0:16.797',1214.891
'0:16.801',1214.753
'0:16.805',1214.776
'0:16.809',1214.961
'0:16.813',1215.254
'0:16.816',1215.603
'0:16.820',1215.936
'0:16.824',1216.195
'0:16.828',1216.373
'0:16.832',1216.504
'0:16.836',1216.648
'0:16.840',1216.860
'0:16.844',1217.193
'0:16.848',1217.670
'0:16.852',1218.241
'0:16.855',1218.786
'0:16.859',1219.166
'0:16.863',1219.297
'0:16.867',1219.139
'0:16.871',1218.705
'0:16.875',1218.077
'0:16.879',1217.361
'0:16.883',1216.605
'0:16.887',1215.828
'0:16.891',1215.065
'0:16.895',1214.440
'0:16.898',1214.087
'0:16.902',1214.081
'0:16.906',1214.397
'0:16.910',1214.931
'0:16.914',1215.539
'0:16.918',1216.097
'0:16.922',1216.521
'0:16.926',1216.742
'0:16.930',1216.675
'0:16.934',1216.252
'0:16.938',1215.469
'0:16.941',1214.420
'0:16.945',1213.234
'0:16.949',1211.997
'0:16.953',1210.767
'0:16.957',1209.604
'0:16.961',1208.585
'0:16.965',1207.785
'0:16.969',1207.214
'0:16.973',1206.828
'0:16.977',1206.542
'0:16.980',1206.323
'0:16.984',1206.182
'0:16.988',1206.115
'0:16.992',1206.091
'0:16.996',1206.048
'0:17.000',1205.954
'0:17.004',1205.819
'0:17.008',1205.661
'0:17.012',1205.493
'0:17.016',1205.339
'0:17.020',1205.231
'0:17.023',1205.194
'0:17.027',1205.238
'0:17.031',1205.359
'0:17.035',1205.537
'0:17.039',1205.759
'0:17.043',1206.061
'0:17.047',1206.512
'0:17.051',1207.120
'0:17.055',1207.836
'0:17.059',1208.548
'0:17.063',1209.163
'0:17.066',1209.651
'0:17.070',1210.034
'0:17.074',1210.326
'0:17.078',1210.488
'0:17.082',1210.504
'0:17.086',1210.394
'0:17.090',1210.165
'0:17.094',1209.799
'0:17.098',1209.291
'0:17.102',1208.663
'0:17.105',1207.940
'0:17.109',1207.127
'0:17.113',1206.246
'0:17.117',1205.386
'0:17.121',1204.670
'0:17.125',1204.172
'0:17.129',1203.883
'0:17.133',1203.776
'0:17.137',1203.830
'0:17.141',1204.018
'0:17.145',1204.270
'0:17.148',1204.495
'0:17.152',1204.619
'0:17.156',1204.609
'0:17.160',1204.482
'0:17.164',1204.293
'0:17.168',1204.092
'0:17.172',1203.907
'0:17.176',1203.745
'0:17.180',1203.584
'0:17.184',1203.403
'0:17.188',1203.191
'0:17.191',1202.942
'0:17.195',1202.650
'0:17.199',1202.334
'0:17.203',1202.015
'0:17.207',1201.685
'0:17.211',1201.379
'0:17.215',1201.131
'0:17.219',1200.986
'0:17.223',1201.000
'0:17.227',1201.242
'0:17.230',1201.732
'0:17.234',1202.448
'0:17.238',1203.335
'0:17.242',1204.361
'0:17.246',1205.534
'0:17.250',1206.888
'0:17.254',1208.421
'0:17.258',1210.071
'0:17.262',1211.782
'0:17.266',1213.506
'0:17.270',1215.143
'0:17.273',1216.578
'0:17.277',1217.724
'0:17.281',1218.568
'0:17.285',1219.189
'0:17.289',1219.737
'0:17.293',1220.376
'0:17.297',1221.186
'0:17.301',1222.144
'0:17.305',1223.192
'0:17.309',1224.278
'0:17.313',1225.333
'0:17.316',1226.301
'0:17.320',1227.172
'0:17.324',1227.948
'0:17.328',1228.614
'0:17.332',1229.138
'0:17.336',1229.545
'0:17.340',1229.928
'0:17.344',1230.415
'0:17.348',1231.111
'0:17.352',1232.055
'0:17.355',1233.218
'0:17.359',1234.522
'0:17.363',1235.856
'0:17.367',1237.107
'0:17.371',1238.169
'0:17.375',1239.016
'0:17.379',1239.718
'0:17.383',1240.374
'0:17.387',1240.995
'0:17.391',1241.479
'0:17.395',1241.705
'0:17.398',1241.627
'0:17.402',1241.268
'0:17.406',1240.659
'0:17.410',1239.883
'0:17.414',1239.100
'0:17.418',1238.518
'0:17.422',1238.260
'0:17.426',1238.313
'0:17.430',1238.525
'0:17.434',1238.703
'0:17.438',1238.730
'0:17.441',1238.660
'0:17.445',1238.633
'0:17.449',1238.760
'0:17.453',1239.033
'0:17.457',1239.325
'0:17.461',1239.527
'0:17.465',1239.604
'0:17.469',1239.577
'0:17.473',1239.470
'0:17.477',1239.312
'0:17.480',1239.113
'0:17.484',1238.865
'0:17.488',1238.555
'0:17.492',1238.152
'0:17.496',1237.634
'0:17.500',1237.006
'0:17.504',1236.324
'0:17.508',1235.648
'0:17.512',1235.033
'0:17.516',1234.519
'0:17.520',1234.126
'0:17.523',1233.850
'0:17.527',1233.679
'0:17.531',1233.611
'0:17.535',1233.638
'0:17.539',1233.759
'0:17.543',1233.947
'0:17.547',1234.169
'0:17.551',1234.398
'0:17.555',1234.610
'0:17.559',1234.774
'0:17.563',1234.882
'0:17.566',1234.949
'0:17.570',1234.996
'0:17.574',1235.030
'0:17.578',1235.073
'0:17.582',1235.134
'0:17.586',1235.181
'0:17.590',1235.178
'0:17.594',1235.114
'0:17.598',1234.979
'0:17.602',1234.757
'0:17.605',1234.448
'0:17.609',1234.065
'0:17.613',1233.618
'0:17.617',1233.104
'0:17.621',1232.489
'0:17.625',1231.743
'0:17.629',1230.855
'0:17.633',1229.837
'0:17.637',1228.711
'0:17.641',1227.511
'0:17.645',1226.281
'0:17.648',1225.091
'0:17.652',1224.029
'0:17.656',1223.175
'0:17.660',1222.544
'0:17.664',1222.117
'0:17.668',1221.844
'0:17.672',1221.700
'0:17.676',1221.656
'0:17.680',1221.690
'0:17.684',1221.808
'0:17.688',1222.046
'0:17.691',1222.436
'0:17.695',1222.940
'0:17.699',1223.424
'0:17.703',1223.706
'0:17.707',1223.606
'0:17.711',1223.017
'0:17.715',1221.949
'0:17.719',1220.510
'0:17.723',1218.880
'0:17.727',1217.223
'0:17.730',1215.643
'0:17.734',1214.185
'0:17.738',1212.837
'0:17.742',1211.577
'0:17.746',1210.380
'0:17.750',1209.234
'0:17.754',1208.128
'0:17.758',1207.019
'0:17.762',1205.856
'0:17.766',1204.592
'0:17.770',1203.211
'0:17.773',1201.763
'0:17.777',1200.348
'0:17.781',1199.030
'0:17.785',1197.850
'0:17.789',1196.818
'0:17.793',1195.958
'0:17.797',1195.296
'0:17.801',1194.849
'0:17.805',1194.580
'0:17.809',1194.419
'0:17.813',1194.294
'0:17.816',1194.180
'0:17.820',1194.093
'0:17.824',1194.062
'0:17.828',1194.113
'0:17.832',1194.274
'0:17.836',1194.553
'0:17.840',1194.946
'0:17.844',1195.444
'0:17.848',1196.015
'0:17.852',1196.613
'0:17.855',1197.181
'0:17.859',1197.676
'0:17.863',1198.092
'0:17.867',1198.432
'0:17.871',1198.680
'0:17.875',1198.869
'0:17.879',1199.087
'0:17.883',1199.410
'0:17.887',1199.827
'0:17.891',1200.250
'0:17.895',1200.573
'0:17.898',1200.727
'0:17.902',1200.687
'0:17.906',1200.489
'0:17.910',1200.196
'0:17.914',1199.874
'0:17.918',1199.578
'0:17.922',1199.329
'0:17.926',1199.117
'0:17.930',1198.936
'0:17.934',1198.832
'0:17.938',1198.889
'0:17.941',1199.178
'0:17.945',1199.726
'0:17.949',1200.489
'0:17.953',1201.383
'0:17.957',1202.331
'0:17.961',1203.312
'0:17.965',1204.354
'0:17.969',1205.483
'0:17.973',1206.707
'0:17.977',1207.977
'0:17.980',1209.184
'0:17.984',1210.232
'0:17.988',1211.076
'0:17.992',1211.755
'0:17.996',1212.340
'0:18.000',1212.891
'0:18.004',1213.375
'0:18.008',1213.714
'0:18.012',1213.832
'0:18.016',1213.714
'0:18.020',1213.418
'0:18.023',1213.066
'0:18.027',1212.777
'0:18.031',1212.615
'0:18.035',1212.625
'0:18.039',1212.830
'0:18.043',1213.203
'0:18.047',1213.691
'0:18.051',1214.269
'0:18.055',1214.901
'0:18.059',1215.553
'0:18.063',1216.215
'0:18.066',1216.890
'0:18.070',1217.576
'0:18.074',1218.299
'0:18.078',1219.065
'0:18.082',1219.851
'0:18.086',1220.601
'0:18.090',1221.270
'0:18.094',1221.831
'0:18.098',1222.251
'0:18.102',1222.483
'0:18.105',1222.527
'0:18.109',1222.419
'0:18.113',1222.221
'0:18.117',1222.006
'0:18.121',1221.871
'0:18.125',1221.885
'0:18.129',1222.039
'0:18.133',1222.255
'0:18.137',1222.406
'0:18.141',1222.379
'0:18.145',1222.113
'0:18.148',1221.613
'0:18.152',1220.927
'0:18.156',1220.134
'0:18.160',1219.317
'0:18.164',1218.574
'0:18.168',1217.983
'0:18.172',1217.569
'0:18.176',1217.341
'0:18.180',1217.317
'0:18.184',1217.475
'0:18.188',1217.764
'0:18.191',1218.161
'0:18.195',1218.692
'0:18.199',1219.371
'0:18.203',1220.110
'0:18.207',1220.752
'0:18.211',1221.135
'0:18.215',1221.139
'0:18.219',1220.715
'0:18.223',1219.902
'0:18.227',1218.813
'0:18.230',1217.623
'0:18.234',1216.517
'0:18.238',1215.637
'0:18.242',1215.052
'0:18.246',1214.770
'0:18.250',1214.729
'0:18.254',1214.827
'0:18.258',1214.951
'0:18.262',1215.065
'0:18.266',1215.210
'0:18.270',1215.418
'0:18.273',1215.690
'0:18.277',1215.990
'0:18.281',1216.272
'0:18.285',1216.504
'0:18.289',1216.699
'0:18.293',1216.867
'0:18.297',1217.025
'0:18.301',1217.196
'0:18.305',1217.408
'0:18.309',1217.647
'0:18.313',1217.865
'0:18.316',1218.047
'0:18.320',1218.205
'0:18.324',1218.383
'0:18.328',1218.574
'0:18.332',1218.725
'0:18.336',1218.752
'0:18.340',1218.564
'0:18.344',1218.168
'0:18.348',1217.677
'0:18.352',1217.247
'0:18.355',1217.018
'0:18.359',1217.072
'0:18.363',1217.405
'0:18.367',1217.932
'0:18.371',1218.487
'0:18.375',1218.877
'0:18.379',1218.974
'0:18.383',1218.766
'0:18.387',1218.356
'0:18.391',1217.879
'0:18.395',1217.435
'0:18.398',1217.055
'0:18.402',1216.746
'0:18.406',1216.507
'0:18.410',1216.319
'0:18.414',1216.161
'0:18.418',1216.000
'0:18.422',1215.828
'0:18.426',1215.670
'0:18.430',1215.556
'0:18.434',1215.529
'0:18.438',1215.569
'0:18.441',1215.630
'0:18.445',1215.704
'0:18.449',1215.828
'0:18.453',1216.013
'0:18.457',1216.215
'0:18.461',1216.379
'0:18.465',1216.490
'0:18.469',1216.548
'0:18.473',1216.574
'0:18.477',1216.598
'0:18.480',1216.648
'0:18.484',1216.732
'0:18.488',1216.874
'0:18.492',1217.119
'0:18.496',1217.489
'0:18.500',1217.973
'0:18.504',1218.514
'0:18.508',1219.068
'0:18.512',1219.599
'0:18.516',1220.070
'0:18.520',1220.460
'0:18.523',1220.749
'0:18.527',1220.924
'0:18.531',1221.008
'0:18.535',1221.048
'0:18.539',1221.078
'0:18.543',1221.122
'0:18.547',1221.219
'0:18.551',1221.408
'0:18.555',1221.697
'0:18.559',1222.083
'0:18.563',1222.517
'0:18.566',1222.944
'0:18.570',1223.320
'0:18.574',1223.622
'0:18.578',1223.811
'0:18.582',1223.851
'0:18.586',1223.777
'0:18.590',1223.636
'0:18.594',1223.421
'0:18.598',1223.044
'0:18.602',1222.453
'0:18.605',1221.663
'0:18.609',1220.769
'0:18.613',1219.858
'0:18.617',1218.988
'0:18.621',1218.178
'0:18.625',1217.411
'0:18.629',1216.662
'0:18.633',1215.919
'0:18.637',1215.183
'0:18.641',1214.447
'0:18.645',1213.708
'0:18.648',1212.982
'0:18.652',1212.286
'0:18.656',1211.630
'0:18.660',1211.025
'0:18.664',1210.481
'0:18.668',1209.943
'0:18.672',1209.315
'0:18.676',1208.515
'0:18.680',1207.496
'0:18.684',1206.233
'0:18.688',1204.740
'0:18.691',1203.141
'0:18.695',1201.611
'0:18.699',1200.344
'0:18.703',1199.487
'0:18.707',1199.121
'0:18.711',1199.265
'0:18.715',1199.853
'0:18.719',1200.751
'0:18.723',1201.779
'0:18.727',1202.761
'0:18.730',1203.584
'0:18.734',1204.203
'0:18.738',1204.626
'0:18.742',1204.905
'0:18.746',1205.113
'0:18.750',1205.332
'0:18.754',1205.591
'0:18.758',1205.903
'0:18.762',1206.300
'0:18.766',1206.834
'0:18.770',1207.530
'0:18.773',1208.387
'0:18.777',1209.362
'0:18.781',1210.407
'0:18.785',1211.469
'0:18.789',1212.518
'0:18.793',1213.546
'0:18.797',1214.568
'0:18.801',1215.654
'0:18.805',1216.924
'0:18.809',1218.457
'0:18.813',1220.245
'0:18.816',1222.171
'0:18.820',1224.069
'0:18.824',1225.817
'0:18.828',1227.390
'0:18.832',1228.819
'0:18.836',1230.133
'0:18.840',1231.356
'0:18.844',1232.522
'0:18.848',1233.652
'0:18.852',1234.747
'0:18.855',1235.789
'0:18.859',1236.724
'0:18.863',1237.480
'0:18.867',1238.021
'0:18.871',1238.344
'0:18.875',1238.465
'0:18.879',1238.391
'0:18.883',1238.118
'0:18.887',1237.631
'0:18.891',1236.949
'0:18.895',1236.129
'0:18.898',1235.221
'0:18.902',1234.273
'0:18.906',1233.366
'0:18.910',1232.633
'0:18.914',1232.176
'0:18.918',1232.015
'0:18.922',1232.042
'0:18.926',1232.085
'0:18.930',1231.988
'0:18.934',1231.638
'0:18.938',1231.020
'0:18.941',1230.166
'0:18.945',1229.134
'0:18.949',1228.005
'0:18.953',1226.839
'0:18.957',1225.673
'0:18.961',1224.523
'0:18.965',1223.417
'0:18.969',1222.342
'0:18.973',1221.226
'0:18.977',1219.982
'0:18.980',1218.551
'0:18.984',1216.944
'0:18.988',1215.257
'0:18.992',1213.637
'0:18.996',1212.225
'0:19.000',1211.136
'0:19.004',1210.424
'0:19.008',1210.071
'0:19.012',1210.000
'0:19.016',1210.105
'0:19.020',1210.316
'0:19.023',1210.612
'0:19.027',1211.002
'0:19.031',1211.459
'0:19.035',1211.869
'0:19.039',1212.071
'0:19.043',1211.933
'0:19.047',1211.476
'0:19.051',1210.834
'0:19.055',1210.175
'0:19.059',1209.614
'0:19.063',1209.160
'0:19.066',1208.753
'0:19.070',1208.347
'0:19.074',1207.977
'0:19.078',1207.762
'0:19.082',1207.789
'0:19.086',1208.081
'0:19.090',1208.626
'0:19.094',1209.409
'0:19.098',1210.353
'0:19.102',1211.348
'0:19.105',1212.259
'0:19.109',1212.931
'0:19.113',1213.244
'0:19.117',1213.180
'0:19.121',1212.824
'0:19.125',1212.303
'0:19.129',1211.711
'0:19.133',1211.113
'0:19.137',1210.521
'0:19.141',1209.933
'0:19.145',1209.348
'0:19.148',1208.797
'0:19.152',1208.310
'0:19.156',1207.937
'0:19.160',1207.701
'0:19.164',1207.621
'0:19.168',1207.695
'0:19.172',1207.890
'0:19.176',1208.145
'0:19.180',1208.394
'0:19.184',1208.579
'0:19.188',1208.686
'0:19.191',1208.730
'0:19.195',1208.723
'0:19.199',1208.683
'0:19.203',1208.626
'0:19.207',1208.562
'0:19.211',1208.521
'0:19.215',1208.518
'0:19.219',1208.555
'0:19.223',1208.609
'0:19.227',1208.666
'0:19.230',1208.723
'0:19.234',1208.770
'0:19.238',1208.777
'0:19.242',1208.713
'0:19.246',1208.555
'0:19.250',1208.313
'0:19.254',1207.987
'0:19.258',1207.567
'0:19.262',1207.063
'0:19.266',1206.508
'0:19.270',1205.960
'0:19.273',1205.463
'0:19.277',1205.033
'0:19.281',1204.646
'0:19.285',1204.290
'0:19.289',1203.977
'0:19.293',1203.756
'0:19.297',1203.698
'0:19.301',1203.843
'0:19.305',1204.169
'0:19.309',1204.596
'0:19.313',1205.019
'0:19.316',1205.366
'0:19.320',1205.618
'0:19.324',1205.796
'0:19.328',1205.930
'0:19.332',1206.044
'0:19.336',1206.162
'0:19.340',1206.260
'0:19.344',1206.270
'0:19.348',1206.095
'0:19.352',1205.698
'0:19.355',1205.107
'0:19.359',1204.424
'0:19.363',1203.789
'0:19.367',1203.288
'0:19.371',1202.905
'0:19.375',1202.573
'0:19.379',1202.260
'0:19.383',1201.951
'0:19.387',1201.621
'0:19.391',1201.235
'0:19.395',1200.805
'0:19.398',1200.391
'0:19.402',1200.065
'0:19.406',1199.840
'0:19.410',1199.665
'0:19.414',1199.497
'0:19.418',1199.292
'0:19.422',1199.013
'0:19.426',1198.674
'0:19.430',1198.331
'0:19.434',1198.059
'0:19.438',1197.881
'0:19.441',1197.807
'0:19.445',1197.867
'0:19.449',1198.112
'0:19.453',1198.580
'0:19.457',1199.205
'0:19.461',1199.870
'0:19.465',1200.432
'0:19.469',1200.808
'0:19.473',1200.953
'0:19.477',1200.872
'0:19.480',1200.610
'0:19.484',1200.257
'0:19.488',1199.904
'0:19.492',1199.615
'0:19.496',1199.417
'0:19.500',1199.322
'0:19.504',1199.312
'0:19.508',1199.346
'0:19.512',1199.343
'0:19.516',1199.235
'0:19.520',1198.996
'0:19.523',1198.691
'0:19.527',1198.455
'0:19.531',1198.422
'0:19.535',1198.660
'0:19.539',1199.168
'0:19.543',1199.884
'0:19.547',1200.744
'0:19.551',1201.695
'0:19.555',1202.694
'0:19.559',1203.688
'0:19.563',1204.670
'0:19.566',1205.655
'0:19.570',1206.686
'0:19.574',1207.809
'0:19.578',1208.989
'0:19.582',1210.158
'0:19.586',1211.267
'0:19.590',1212.326
'0:19.594',1213.311
'0:19.598',1214.181
'0:19.602',1214.928
'0:19.605',1215.559
'0:19.609',1216.107
'0:19.613',1216.595
'0:19.617',1217.025
'0:19.621',1217.401
'0:19.625',1217.721
'0:19.629',1217.973
'0:19.633',1218.178
'0:19.637',1218.349
'0:19.641',1218.473
'0:19.645',1218.510
'0:19.648',1218.430
'0:19.652',1218.221
'0:19.656',1217.902
'0:19.660',1217.505
'0:19.664',1217.035
'0:19.668',1216.494
'0:19.672',1215.865
'0:19.676',1215.126
'0:19.680',1214.249
'0:19.684',1213.220
'0:19.688',1212.024
'0:19.691',1210.716
'0:19.695',1209.402
'0:19.699',1208.165
'0:19.703',1207.043
'0:19.707',1206.038
'0:19.711',1205.140
'0:19.715',1204.371
'0:19.719',1203.752
'0:19.723',1203.295
'0:19.727',1202.972
'0:19.730',1202.704
'0:19.734',1202.391
'0:19.738',1201.957
'0:19.742',1201.359
'0:19.746',1200.579
'0:19.750',1199.638
'0:19.754',1198.559
'0:19.758',1197.380
'0:19.762',1196.150
'0:19.766',1194.916
'0:19.770',1193.720
'0:19.773',1192.577
'0:19.777',1191.505
'0:19.781',1190.527
'0:19.785',1189.670
'0:19.789',1188.910
'0:19.793',1188.191
'0:19.797',1187.475
'0:19.801',1186.799
'0:19.805',1186.262
'0:19.809',1185.946
'0:19.813',1185.872
'0:19.816',1185.959
'0:19.820',1186.073
'0:19.824',1186.130
'0:19.828',1186.134
'0:19.832',1186.157
'0:19.836',1186.275
'0:19.840',1186.524
'0:19.844',1186.927
'0:19.848',1187.488
'0:19.852',1188.238
'0:19.855',1189.216
'0:19.859',1190.466
'0:19.863',1191.975
'0:19.867',1193.662
'0:19.871',1195.430
'0:19.875',1197.218
'0:19.879',1199.003
'0:19.883',1200.768
'0:19.887',1202.488
'0:19.891',1204.159
'0:19.895',1205.776
'0:19.898',1207.335
'0:19.902',1208.824
'0:19.906',1210.232
'0:19.910',1211.556
'0:19.914',1212.783
'0:19.918',1213.855
'0:19.922',1214.692
'0:19.926',1215.270
'0:19.930',1215.664
'0:19.934',1216.003
'0:19.938',1216.343
'0:19.941',1216.638
'0:19.945',1216.786
'0:19.949',1216.719
'0:19.953',1216.467
'0:19.957',1216.107
'0:19.961',1215.727
'0:19.965',1215.398
'0:19.969',1215.159
'0:19.973',1215.001
'0:19.977',1214.880
'0:19.980',1214.712
'0:19.984',1214.407
'0:19.988',1213.899
'0:19.992',1213.193
'0:19.996',1212.353
'0:20.000',1211.469
'0:20.004',1210.582
'0:20.008',1209.661
'0:20.012',1208.703
'0:20.016',1207.785
'0:20.020',1207.029
'0:20.023',1206.515
'0:20.027',1206.266
'0:20.031',1206.229
'0:20.035',1206.293
'0:20.039',1206.310
'0:20.043',1206.165
'0:20.047',1205.799
'0:20.051',1205.191
'0:20.055',1204.391
'0:20.059',1203.527
'0:20.063',1202.720
'0:20.066',1202.041
'0:20.070',1201.490
'0:20.074',1201.050
'0:20.078',1200.697
'0:20.082',1200.411
'0:20.086',1200.176
'0:20.090',1199.981
'0:20.094',1199.847
'0:20.098',1199.803
'0:20.102',1199.894
'0:20.105',1200.132
'0:20.109',1200.495
'0:20.113',1200.916
'0:20.117',1201.302
'0:20.121',1201.584
'0:20.125',1201.759
'0:20.129',1201.850
'0:20.133',1201.867
'0:20.137',1201.840
'0:20.141',1201.810
'0:20.145',1201.793
'0:20.148',1201.796
'0:20.152',1201.799
'0:20.156',1201.783
'0:20.160',1201.715
'0:20.164',1201.598
'0:20.168',1201.463
'0:20.172',1201.342
'0:20.176',1201.255
'0:20.180',1201.228
'0:20.184',1201.265
'0:20.188',1201.356
'0:20.191',1201.447
'0:20.195',1201.490
'0:20.199',1201.480
'0:20.203',1201.447
'0:20.207',1201.450
'0:20.211',1201.557
'0:20.215',1201.847
'0:20.219',1202.364
'0:20.223',1203.134
'0:20.227',1204.108
'0:20.230',1205.147
'0:20.234',1206.061
'0:20.238',1206.717
'0:20.242',1207.039
'0:20.246',1207.029
'0:20.250',1206.740
'0:20.254',1206.276
'0:20.258',1205.769
'0:20.262',1205.322
'0:20.266',1204.986
'0:20.270',1204.754
'0:20.273',1204.592
'0:20.277',1204.465
'0:20.281',1204.354
'0:20.285',1204.256
'0:20.289',1204.193
'0:20.293',1204.216
'0:20.297',1204.394
'0:20.301',1204.811
'0:20.305',1205.540
'0:20.309',1206.602
'0:20.313',1207.933
'0:20.316',1209.405
'0:20.320',1210.847
'0:20.324',1212.101
'0:20.328',1213.062
'0:20.332',1213.704
'0:20.336',1214.094
'0:20.340',1214.339
'0:20.344',1214.554
'0:20.348',1214.820
'0:20.352',1215.143
'0:20.355',1215.482
'0:20.359',1215.811
'0:20.363',1216.117
'0:20.367',1216.386
'0:20.371',1216.611
'0:20.375',1216.796
'0:20.379',1216.961
'0:20.383',1217.132
'0:20.387',1217.344
'0:20.391',1217.610
'0:20.395',1217.922
'0:20.398',1218.258
'0:20.402',1218.571
'0:20.406',1218.762
'0:20.410',1218.766
'0:20.414',1218.584
'0:20.418',1218.262
'0:20.422',1217.862
'0:20.426',1217.438
'0:20.430',1217.035
'0:20.434',1216.675
'0:20.438',1216.349
'0:20.441',1216.050
'0:20.445',1215.771
'0:20.449',1215.543
'0:20.453',1215.428
'0:20.457',1215.459
'0:20.461',1215.576
'0:20.465',1215.637
'0:20.469',1215.509
'0:20.473',1215.143
'0:20.477',1214.575
'0:20.480',1213.913
'0:20.484',1213.284
'0:20.488',1212.834
'0:20.492',1212.652
'0:20.496',1212.770
'0:20.500',1213.133
'0:20.504',1213.617
'0:20.508',1214.070
'0:20.512',1214.376
'0:20.516',1214.450
'0:20.520',1214.242
'0:20.523',1213.761
'0:20.527',1213.103
'0:20.531',1212.450
'0:20.535',1211.987
'0:20.539',1211.809
'0:20.543',1211.919
'0:20.547',1212.229
'0:20.551',1212.635
'0:20.555',1213.079
'0:20.559',1213.523
'0:20.563',1213.946
'0:20.566',1214.360
'0:20.570',1214.773
'0:20.574',1215.133
'0:20.578',1215.338
'0:20.582',1215.338
'0:20.586',1215.176
'0:20.590',1214.931
'0:20.594',1214.645
'0:20.598',1214.356
'0:20.602',1214.128
'0:20.605',1214.034
'0:20.609',1214.104
'0:20.613',1214.323
'0:20.617',1214.622
'0:20.621',1214.931
'0:20.625',1215.196
'0:20.629',1215.375
'0:20.633',1215.459
'0:20.637',1215.465
'0:20.641',1215.425
'0:20.645',1215.398
'0:20.648',1215.452
'0:20.652',1215.643
'0:20.656',1215.966
'0:20.660',1216.403
'0:20.664',1216.917
'0:20.668',1217.458
'0:20.672',1217.963
'0:20.676',1218.356
'0:20.680',1218.537
'0:20.684',1218.447
'0:20.688',1218.110
'0:20.691',1217.610
'0:20.695',1217.045
'0:20.699',1216.494
'0:20.703',1215.976
'0:20.707',1215.485
'0:20.711',1215.012
'0:20.715',1214.565
'0:20.719',1214.181
'0:20.723',1213.896
'0:20.727',1213.701
'0:20.730',1213.573
'0:20.734',1213.509
'0:20.738',1213.509
'0:20.742',1213.526
'0:20.746',1213.466
'0:20.750',1213.314
'0:20.754',1213.156
'0:20.758',1213.119
'0:20.762',1213.291
'0:20.766',1213.637
'0:20.770',1214.047
'0:20.773',1214.417
'0:20.777',1214.712
'0:20.781',1214.961
'0:20.785',1215.223
'0:20.789',1215.533
'0:20.793',1215.838
'0:20.797',1216.047
'0:20.801',1216.070
'0:20.805',1215.889
'0:20.809',1215.522
'0:20.813',1215.045
'0:20.816',1214.507
'0:20.820',1213.889
'0:20.824',1213.123
'0:20.828',1212.151
'0:20.832',1210.978
'0:20.836',1209.654
'0:20.840',1208.236
'0:20.844',1206.791
'0:20.848',1205.402
'0:20.852',1204.176
'0:20.855',1203.184
'0:20.859',1202.448
'0:20.863',1201.984
'0:20.867',1201.813
'0:20.871',1201.934
'0:20.875',1202.287
'0:20.879',1202.771
'0:20.883',1203.288
'0:20.887',1203.816
'0:20.891',1204.408
'0:20.895',1205.120
'0:20.898',1205.977
'0:20.902',1206.949
'0:20.906',1207.947
'0:20.910',1208.814
'0:20.914',1209.426
'0:20.918',1209.792
'0:20.922',1210.051
'0:20.926',1210.404
'0:20.930',1210.975
'0:20.934',1211.748
'0:20.938',1212.595
'0:20.941',1213.331
'0:20.945',1213.818
'0:20.949',1213.986
'0:20.953',1213.835
'0:20.957',1213.425
'0:20.961',1212.840
'0:20.965',1212.145
'0:20.969',1211.405
'0:20.973',1210.699
'0:20.977',1210.071
'0:20.980',1209.483
'0:20.984',1208.837
'0:20.988',1208.054
'0:20.992',1207.083
'0:20.996',1205.934
'0:21.000',1204.609
'0:21.004',1203.141
'0:21.008',1201.618
'0:21.012',1200.206
'0:21.016',1199.064
'0:21.020',1198.274
'0:21.023',1197.864
'0:21.027',1197.850
'0:21.031',1198.254
'0:21.035',1199.070
'0:21.039',1200.247
'0:21.043',1201.665
'0:21.047',1203.181
'0:21.051',1204.616
'0:21.055',1205.779
'0:21.059',1206.542
'0:21.063',1206.895
'0:21.066',1206.905
'0:21.070',1206.636
'0:21.074',1206.122
'0:21.078',1205.429
'0:21.082',1204.693
'0:21.086',1204.112
'0:21.090',1203.830
'0:21.094',1203.910
'0:21.098',1204.310
'0:21.102',1204.915
'0:21.105',1205.564
'0:21.109',1206.159
'0:21.113',1206.700
'0:21.117',1207.268
'0:21.121',1207.890
'0:21.125',1208.488
'0:21.129',1208.915
'0:21.133',1209.022
'0:21.137',1208.767
'0:21.141',1208.226
'0:21.145',1207.574
'0:21.148',1207.019
'0:21.152',1206.740
'0:21.156',1206.851
'0:21.160',1207.365
'0:21.164',1208.175
'0:21.168',1209.059
'0:21.172',1209.782
'0:21.176',1210.195
'0:21.180',1210.313
'0:21.184',1210.262
'0:21.188',1210.189
'0:21.191',1210.172
'0:21.195',1210.178
'0:21.199',1210.131
'0:21.203',1209.967
'0:21.207',1209.671
'0:21.211',1209.264
'0:21.215',1208.794
'0:21.219',1208.330
'0:21.223',1207.933
'0:21.227',1207.641
'0:21.230',1207.463
'0:21.234',1207.389
'0:21.238',1207.433
'0:21.242',1207.644
'0:21.246',1208.048
'0:21.250',1208.592
'0:21.254',1209.133
'0:21.258',1209.476
'0:21.262',1209.459
'0:21.266',1209.049
'0:21.270',1208.340
'0:21.273',1207.506
'0:21.277',1206.750
'0:21.281',1206.219
'0:21.285',1206.001
'0:21.289',1206.075
'0:21.293',1206.330
'0:21.297',1206.616
'0:21.301',1206.811
'0:21.305',1206.875
'0:21.309',1206.797
'0:21.313',1206.619
'0:21.316',1206.424
'0:21.320',1206.290
'0:21.324',1206.246
'0:21.328',1206.286
'0:21.332',1206.327
'0:21.336',1206.293
'0:21.340',1206.179
'0:21.344',1206.048
'0:21.348',1205.910
'0:21.352',1205.715
'0:21.355',1205.406
'0:21.359',1204.989
'0:21.363',1204.515
'0:21.367',1204.004
'0:21.371',1203.426
'0:21.375',1202.778
'0:21.379',1202.115
'0:21.383',1201.521
'0:21.387',1201.047
'0:21.391',1200.737
'0:21.395',1200.657
'0:21.398',1200.889
'0:21.402',1201.484
'0:21.406',1202.425
'0:21.410',1203.611
'0:21.414',1204.892
'0:21.418',1206.095
'0:21.422',1207.103
'0:21.426',1207.856
'0:21.430',1208.350
'0:21.434',1208.565
'0:21.438',1208.478
'0:21.441',1208.095
'0:21.445',1207.510
'0:21.449',1206.858
'0:21.453',1206.270
'0:21.457',1205.796
'0:21.461',1205.483
'0:21.465',1205.389
'0:21.469',1205.547
'0:21.473',1205.890
'0:21.477',1206.280
'0:21.480',1206.555
'0:21.484',1206.609
'0:21.488',1206.441
'0:21.492',1206.165
'0:21.496',1205.923
'0:21.500',1205.806
'0:21.504',1205.813
'0:21.508',1205.920
'0:21.512',1206.115
'0:21.516',1206.367
'0:21.520',1206.653
'0:21.523',1207.002
'0:21.527',1207.466
'0:21.531',1208.034
'0:21.535',1208.609
'0:21.539',1209.073
'0:21.543',1209.389
'0:21.547',1209.621
'0:21.551',1209.863
'0:21.555',1210.158
'0:21.559',1210.484
'0:21.563',1210.777
'0:21.566',1211.022
'0:21.570',1211.224
'0:21.574',1211.375
'0:21.578',1211.516
'0:21.582',1211.694
'0:21.586',1211.933
'0:21.590',1212.205
'0:21.594',1212.491
'0:21.598',1212.777
'0:21.602',1213.079
'0:21.605',1213.408
'0:21.609',1213.761
'0:21.613',1214.124
'0:21.617',1214.477
'0:21.621',1214.810
'0:21.625',1215.136
'0:21.629',1215.472
'0:21.633',1215.795
'0:21.637',1216.077
'0:21.641',1216.299
'0:21.645',1216.464
'0:21.648',1216.611
'0:21.652',1216.773
'0:21.656',1216.927
'0:21.660',1216.974
'0:21.664',1216.800
'0:21.668',1216.366
'0:21.672',1215.680
'0:21.676',1214.763
'0:21.680',1213.650
'0:21.684',1212.397
'0:21.688',1211.069
'0:21.691',1209.792
'0:21.695',1208.710
'0:21.699',1207.910
'0:21.703',1207.412
'0:21.707',1207.157
'0:21.711',1207.063
'0:21.715',1207.073
'0:21.719',1207.164
'0:21.723',1207.288
'0:21.727',1207.409
'0:21.730',1207.540
'0:21.734',1207.748
'0:21.738',1208.064
'0:21.742',1208.478
'0:21.746',1208.938
'0:21.750',1209.405
'0:21.754',1209.859
'0:21.758',1210.343
'0:21.762',1210.968
'0:21.766',1211.798
'0:21.770',1212.770
'0:21.773',1213.734
'0:21.777',1214.528
'0:21.781',1215.025
'0:21.785',1215.207
'0:21.789',1215.126
'0:21.793',1214.860
'0:21.797',1214.464
'0:21.801',1213.939
'0:21.805',1213.331
'0:21.809',1212.689
'0:21.813',1212.061
'0:21.816',1211.503
'0:21.820',1211.089
'0:21.824',1210.830
'0:21.828',1210.683
'0:21.832',1210.588
'0:21.836',1210.521
'0:21.840',1210.481
'0:21.844',1210.484
'0:21.848',1210.555
'0:21.852',1210.720
'0:21.855',1211.005
'0:21.859',1211.422
'0:21.863',1211.936
'0:21.867',1212.487
'0:21.871',1213.022
'0:21.875',1213.496
'0:21.879',1213.892
'0:21.883',1214.245
'0:21.887',1214.638
'0:21.891',1215.143
'0:21.895',1215.768
'0:21.898',1216.440
'0:21.902',1217.045
'0:21.906',1217.519
'0:21.910',1217.895
'0:21.914',1218.245
'0:21.918',1218.584
'0:21.922',1218.873
'0:21.926',1219.045
'0:21.930',1219.082
'0:21.934',1219.045
'0:21.938',1219.062
'0:21.941',1219.270
'0:21.945',1219.737
'0:21.949',1220.456
'0:21.953',1221.377
'0:21.957',1222.409
'0:21.961',1223.384
'0:21.965',1224.080
'0:21.969',1224.278
'0:21.973',1223.854
'0:21.977',1222.823
'0:21.980',1221.307
'0:21.984',1219.509
'0:21.988',1217.647
'0:21.992',1215.946
'0:21.996',1214.598
'0:22.000',1213.721
'0:22.004',1213.341
'0:22.008',1213.398
'0:22.012',1213.758
'0:22.016',1214.255
'0:22.020',1214.763
'0:22.023',1215.159
'0:22.027',1215.351
'0:22.031',1215.291
'0:22.035',1215.012
'0:22.039',1214.561
'0:22.043',1213.980
'0:22.047',1213.308
'0:22.051',1212.595
'0:22.055',1211.889
'0:22.059',1211.170
'0:22.063',1210.353
'0:22.066',1209.392
'0:22.070',1208.337
'0:22.074',1207.278
'0:22.078',1206.293
'0:22.082',1205.386
'0:22.086',1204.529
'0:22.090',1203.729
'0:22.094',1203.067
'0:22.098',1202.657
'0:22.102',1202.519
'0:22.105',1202.549
'0:22.109',1202.556
'0:22.113',1202.371
'0:22.117',1201.954
'0:22.121',1201.369
'0:22.125',1200.771
'0:22.129',1200.321
'0:22.133',1200.116
'0:22.137',1200.193
'0:22.141',1200.542
'0:22.145',1201.151
'0:22.148',1201.978
'0:22.152',1202.915
'0:22.156',1203.796
'0:22.160',1204.468
'0:22.164',1204.875
'0:22.168',1205.036
'0:22.172',1205.033
'0:22.176',1204.952
'0:22.180',1204.878
'0:22.184',1204.875
'0:22.188',1204.979
'0:22.191',1205.214
'0:22.195',1205.577
'0:22.199',1206.041
'0:22.203',1206.579
'0:22.207',1207.177
'0:22.211',1207.856
'0:22.215',1208.612
'0:22.219',1209.372
'0:22.223',1210.020
'0:22.227',1210.484
'0:22.230',1210.757
'0:22.234',1210.854
'0:22.238',1210.787
'0:22.242',1210.558
'0:22.246',1210.158
'0:22.250',1209.604
'0:22.254',1208.938
'0:22.258',1208.226
'0:22.262',1207.523
'0:22.266',1206.888
'0:22.270',1206.370
'0:22.273',1206.021
'0:22.277',1205.873
'0:22.281',1205.927
'0:22.285',1206.172
'0:22.289',1206.565
'0:22.293',1207.056
'0:22.297',1207.587
'0:22.301',1208.085
'0:22.305',1208.441
'0:22.309',1208.552
'0:22.313',1208.367
'0:22.316',1207.920
'0:22.320',1207.251
'0:22.324',1206.424
'0:22.328',1205.550
'0:22.332',1204.781
'0:22.336',1204.250
'0:22.340',1204.031
'0:22.344',1204.135
'0:22.348',1204.515
'0:22.352',1205.090
'0:22.355',1205.765
'0:22.359',1206.475
'0:22.363',1207.194
'0:22.367',1207.913
'0:22.371',1208.622
'0:22.375',1209.298
'0:22.379',1209.916
'0:22.383',1210.464
'0:22.387',1210.921
'0:22.391',1211.284
'0:22.395',1211.580
'0:22.398',1211.849
'0:22.402',1212.098
'0:22.406',1212.326
'0:22.410',1212.498
'0:22.414',1212.578
'0:22.418',1212.551
'0:22.422',1212.427
'0:22.426',1212.222
'0:22.430',1211.967
'0:22.434',1211.681
'0:22.438',1211.412
'0:22.441',1211.227
'0:22.445',1211.190
'0:22.449',1211.318
'0:22.453',1211.533
'0:22.457',1211.684
'0:22.461',1211.664
'0:22.465',1211.483
'0:22.469',1211.220
'0:22.473',1210.945
'0:22.477',1210.703
'0:22.480',1210.535
'0:22.484',1210.478
'0:22.488',1210.518
'0:22.492',1210.555
'0:22.496',1210.461
'0:22.500',1210.175
'0:22.504',1209.752
'0:22.508',1209.321
'0:22.512',1208.965
'0:22.516',1208.653
'0:22.520',1208.313
'0:22.523',1207.923
'0:22.527',1207.550
'0:22.531',1207.258
'0:22.535',1207.039
'0:22.539',1206.834
'0:22.543',1206.633
'0:22.547',1206.468
'0:22.551',1206.384
'0:22.555',1206.424
'0:22.559',1206.626
'0:22.563',1207.009
'0:22.566',1207.567
'0:22.570',1208.253
'0:22.574',1209.002
'0:22.578',1209.782
'0:22.582',1210.565
'0:22.586',1211.308
'0:22.590',1211.987
'0:22.594',1212.582
'0:22.598',1213.103
'0:22.602',1213.600
'0:22.605',1214.155
'0:22.609',1214.830
'0:22.613',1215.633
'0:22.617',1216.511
'0:22.621',1217.462
'0:22.625',1218.537
'0:22.629',1219.811
'0:22.633',1221.350
'0:22.637',1223.142
'0:22.641',1225.041
'0:22.645',1226.825
'0:22.648',1228.288
'0:22.652',1229.289
'0:22.656',1229.766
'0:22.660',1229.733
'0:22.664',1229.272
'0:22.668',1228.519
'0:22.672',1227.672
'0:22.676',1226.926
'0:22.680',1226.422
'0:22.684',1226.190
'0:22.688',1226.153
'0:22.691',1226.163
'0:22.695',1226.100
'0:22.699',1225.928
'0:22.703',1225.713
'0:22.707',1225.609
'0:22.711',1225.784
'0:22.715',1226.318
'0:22.719',1227.155
'0:22.723',1228.140
'0:22.727',1229.061
'0:22.730',1229.753
'0:22.734',1230.116
'0:22.738',1230.133
'0:22.742',1229.823
'0:22.746',1229.266
'0:22.750',1228.593
'0:22.754',1227.941
'0:22.758',1227.390
'0:22.762',1226.920
'0:22.766',1226.489
'0:22.770',1226.079
'0:22.773',1225.703
'0:22.777',1225.350
'0:22.781',1225.007
'0:22.785',1224.664
'0:22.789',1224.325
'0:22.793',1223.979
'0:22.797',1223.612
'0:22.801',1223.206
'0:22.805',1222.796
'0:22.809',1222.460
'0:22.813',1222.305
'0:22.816',1222.376
'0:22.820',1222.654
'0:22.824',1223.075
'0:22.828',1223.501
'0:22.832',1223.754
'0:22.836',1223.659
'0:22.840',1223.135
'0:22.844',1222.214
'0:22.848',1221.018
'0:22.852',1219.693
'0:22.855',1218.373
'0:22.859',1217.156
'0:22.863',1216.101
'0:22.867',1215.166
'0:22.871',1214.306
'0:22.875',1213.516
'0:22.879',1212.871
'0:22.883',1212.414
'0:22.887',1212.145
'0:22.891',1212.027
'0:22.895',1211.980
'0:22.898',1211.923
'0:22.902',1211.812
'0:22.906',1211.698
'0:22.910',1211.640
'0:22.914',1211.681
'0:22.918',1211.822
'0:22.922',1212.057
'0:22.926',1212.350
'0:22.930',1212.666
'0:22.934',1212.971
'0:22.938',1213.244
'0:22.941',1213.502
'0:22.945',1213.812
'0:22.949',1214.188
'0:22.953',1214.622
'0:22.957',1215.072
'0:22.961',1215.529
'0:22.965',1215.990
'0:22.969',1216.477
'0:22.973',1217.025
'0:22.977',1217.633
'0:22.980',1218.215
'0:22.984',1218.618
'0:22.988',1218.705
'0:22.992',1218.420
'0:22.996',1217.764
'0:23.000',1216.827
'0:23.004',1215.738
'0:23.008',1214.602
'0:23.012',1213.459
'0:23.016',1212.326
'0:23.020',1211.247
'0:23.023',1210.249
'0:23.027',1209.321
'0:23.031',1208.474
'0:23.035',1207.755
'0:23.039',1207.180
'0:23.043',1206.740
'0:23.047',1206.414
'0:23.051',1206.179
'0:23.055',1205.977
'0:23.059',1205.789
'0:23.063',1205.644
'0:23.066',1205.567
'0:23.070',1205.540
'0:23.074',1205.527
'0:23.078',1205.490
'0:23.082',1205.409
'0:23.086',1205.285
'0:23.090',1205.164
'0:23.094',1205.144
'0:23.098',1205.308
'0:23.102',1205.685
'0:23.105',1206.216
'0:23.109',1206.797
'0:23.113',1207.375
'0:23.117',1207.977
'0:23.121',1208.656
'0:23.125',1209.389
'0:23.129',1210.047
'0:23.133',1210.464
'0:23.137',1210.545
'0:23.141',1210.306
'0:23.145',1209.873
'0:23.148',1209.426
'0:23.152',1209.116
'0:23.156',1208.985
'0:23.160',1208.999
'0:23.164',1209.093
'0:23.168',1209.227
'0:23.172',1209.368
'0:23.176',1209.483
'0:23.180',1209.513
'0:23.184',1209.362
'0:23.188',1208.945
'0:23.191',1208.269
'0:23.195',1207.436
'0:23.199',1206.606
'0:23.203',1205.917
'0:23.207',1205.483
'0:23.211',1205.335
'0:23.215',1205.413
'0:23.219',1205.577
'0:23.223',1205.665
'0:23.227',1205.591
'0:23.230',1205.359
'0:23.234',1205.056
'0:23.238',1204.804
'0:23.242',1204.713
'0:23.246',1204.808
'0:23.250',1205.036
'0:23.254',1205.278
'0:23.258',1205.409
'0:23.262',1205.329
'0:23.266',1205.019
'0:23.270',1204.549
'0:23.273',1204.048
'0:23.277',1203.702
'0:23.281',1203.645
'0:23.285',1203.957
'0:23.289',1204.606
'0:23.293',1205.456
'0:23.297',1206.350
'0:23.301',1207.191
'0:23.305',1207.974
'0:23.309',1208.720
'0:23.313',1209.416
'0:23.316',1210.054
'0:23.320',1210.636
'0:23.324',1211.167
'0:23.328',1211.657
'0:23.332',1212.114
'0:23.336',1212.541
'0:23.340',1212.951
'0:23.344',1213.355
'0:23.348',1213.734
'0:23.352',1214.064
'0:23.355',1214.306
'0:23.359',1214.450
'0:23.363',1214.524
'0:23.367',1214.554
'0:23.371',1214.571
'0:23.375',1214.578
'0:23.379',1214.554
'0:23.383',1214.457
'0:23.387',1214.265
'0:23.391',1214.007
'0:23.395',1213.765
'0:23.398',1213.640
'0:23.402',1213.677
'0:23.406',1213.855
'0:23.410',1214.111
'0:23.414',1214.400
'0:23.418',1214.696
'0:23.422',1214.961
