'Elapsed time','wrist_ppg'
'hh:mm:ss.mmm','mV'
'0:00.000',1284.252
'0:00.004',1258.611
'0:00.008',1287.182
'0:00.012',1276.920
'0:00.016',1273.990
'0:00.020',1268.866
'0:00.023',1260.805
'0:00.027',1246.884
'0:00.031',1255.681
'0:00.035',1243.954
'0:00.039',1276.191
'0:00.043',1254.209
'0:00.047',1259.340
'0:00.051',1286.446
'0:00.055',1324.543
'0:00.059',1329.674
'0:00.063',1336.262
'0:00.066',1373.623
'0:00.070',1345.788
'0:00.074',1361.174
'0:00.078',1390.474
'0:00.082',1379.490
'0:00.086',1397.070
'0:00.090',1441.755
'0:00.094',1408.061
'0:00.098',1447.623
'0:00.102',1434.430
'0:00.105',1425.640
'0:00.109',1439.561
'0:00.113',1444.685
'0:00.117',1473.263
'0:00.121',1449.816
'0:00.125',1443.220
'0:00.129',1458.606
'0:00.133',1468.868
'0:00.137',1457.877
'0:00.141',1443.220
'0:00.145',1442.491
'0:00.148',1442.491
'0:00.152',1452.746
'0:00.156',1436.631
'0:00.160',1441.026
'0:00.164',1434.430
'0:00.168',1437.360
'0:00.172',1435.166
'0:00.176',1449.087
'0:00.180',1439.561
'0:00.184',1471.062
'0:00.188',1468.868
'0:00.191',1462.272
'0:00.195',1445.421
'0:00.199',1435.166
'0:00.203',1417.579
'0:00.207',1428.570
'0:00.211',1414.649
'0:00.215',1443.220
'0:00.219',1421.982
'0:00.223',1401.465
'0:00.227',1421.982
'0:00.230',1394.869
'0:00.234',1367.034
'0:00.238',1382.420
'0:00.242',1363.368
'0:00.246',1367.763
'0:00.250',1340.657
'0:00.254',1334.069
'0:00.258',1373.623
'0:00.262',1338.464
'0:00.266',1315.016
'0:00.270',1310.622
'0:00.273',1330.402
'0:00.277',1340.657
'0:00.281',1303.297
'0:00.285',1294.507
'0:00.289',1291.577
'0:00.293',1293.042
'0:00.297',1297.437
'0:00.301',1321.613
'0:00.305',1315.016
'0:00.309',1353.113
'0:00.313',1308.428
'0:00.316',1348.718
'0:00.320',1328.209
'0:00.324',1327.472
'0:00.328',1324.543
'0:00.332',1356.779
'0:00.336',1353.113
'0:00.340',1298.902
'0:00.344',1315.016
'0:00.348',1320.876
'0:00.352',1279.121
'0:00.355',1304.033
'0:00.359',1315.016
'0:00.363',1283.516
'0:00.367',1258.611
'0:00.371',1263.735
'0:00.375',1301.095
'0:00.379',1282.051
'0:00.383',1265.936
'0:00.387',1254.209
'0:00.391',1284.981
'0:00.395',1297.437
'0:00.398',1293.042
'0:00.402',1273.261
'0:00.406',1282.051
'0:00.410',1311.358
'0:00.414',1275.455
'0:00.418',1279.121
'0:00.422',1280.586
'0:00.426',1296.701
'0:00.430',1323.806
'0:00.434',1328.209
'0:00.438',1288.647
'0:00.441',1338.464
'0:00.445',1304.762
'0:00.449',1312.823
'0:00.453',1341.393
'0:00.457',1351.648
'0:00.461',1339.192
'0:00.465',1328.937
'0:00.469',1322.341
'0:00.473',1318.683
'0:00.477',1362.639
'0:00.480',1315.753
'0:00.484',1354.578
'0:00.488',1361.174
'0:00.492',1336.999
'0:00.496',1336.262
'0:00.500',1367.034
'0:00.504',1323.806
'0:00.508',1345.788
'0:00.512',1328.209
'0:00.516',1319.411
'0:00.520',1360.438
'0:00.523',1328.209
'0:00.527',1360.438
'0:00.531',1323.806
'0:00.535',1326.744
'0:00.539',1356.043
'0:00.543',1311.358
'0:00.547',1355.314
'0:00.551',1347.253
'0:00.555',1347.982
'0:00.559',1354.578
'0:00.563',1339.928
'0:00.566',1327.472
'0:00.570',1343.587
'0:00.574',1323.078
'0:00.578',1364.104
'0:00.582',1323.806
'0:00.586',1322.341
'0:00.590',1350.183
'0:00.594',1367.034
'0:00.598',1332.604
'0:00.602',1361.174
'0:00.605',1354.578
'0:00.609',1372.158
'0:00.613',1333.332
'0:00.617',1369.228
'0:00.621',1340.657
'0:00.625',1382.420
'0:00.629',1343.587
'0:00.633',1388.280
'0:00.637',1368.499
'0:00.641',1345.052
'0:00.645',1388.280
'0:00.648',1372.894
'0:00.652',1364.833
'0:00.656',1386.079
'0:00.660',1374.359
'0:00.664',1362.639
'0:00.668',1368.499
'0:00.672',1321.613
'0:00.676',1353.849
'0:00.680',1307.692
'0:00.684',1305.498
'0:00.688',1309.893
'0:00.691',1311.358
'0:00.695',1324.543
'0:00.699',1309.157
'0:00.703',1306.963
'0:00.707',1307.692
'0:00.711',1348.718
'0:00.715',1347.253
'0:00.719',1339.192
'0:00.723',1383.149
'0:00.727',1352.384
'0:00.730',1356.779
'0:00.734',1378.754
'0:00.738',1397.070
'0:00.742',1390.474
'0:00.746',1433.702
'0:00.750',1414.649
'0:00.754',1399.271
'0:00.758',1439.561
'0:00.762',1422.710
'0:00.766',1428.570
'0:00.770',1431.500
'0:00.773',1429.307
'0:00.777',1431.500
'0:00.781',1434.430
'0:00.785',1406.596
'0:00.789',1426.377
'0:00.793',1398.535
'0:00.797',1418.316
'0:00.801',1387.544
'0:00.805',1423.447
'0:00.809',1404.395
'0:00.813',1394.140
'0:00.816',1386.815
'0:00.820',1392.675
'0:00.824',1409.526
'0:00.828',1412.456
'0:00.832',1394.869
'0:00.836',1407.325
'0:00.840',1405.860
'0:00.844',1390.474
'0:00.848',1408.789
'0:00.852',1391.210
'0:00.855',1380.219
'0:00.859',1373.623
'0:00.863',1396.333
'0:00.867',1415.386
'0:00.871',1411.719
'0:00.875',1395.605
'0:00.879',1372.894
'0:00.883',1392.675
'0:00.887',1403.666
'0:00.891',1367.034
'0:00.895',1404.395
'0:00.898',1395.605
'0:00.902',1396.333
'0:00.906',1402.201
'0:00.910',1356.043
'0:00.914',1369.964
'0:00.918',1384.614
'0:00.922',1393.404
'0:00.926',1389.745
'0:00.930',1347.253
'0:00.934',1383.885
'0:00.938',1364.104
'0:00.941',1361.903
'0:00.945',1355.314
'0:00.949',1371.429
'0:00.953',1339.192
'0:00.957',1320.148
'0:00.961',1361.174
'0:00.965',1326.007
'0:00.969',1335.534
'0:00.973',1326.007
'0:00.977',1339.928
'0:00.980',1344.323
'0:00.984',1318.683
'0:00.988',1327.472
'0:00.992',1335.534
'0:00.996',1333.332
'0:01.000',1327.472
'0:01.004',1306.227
'0:01.008',1304.762
'0:01.012',1289.376
'0:01.016',1329.674
'0:01.020',1294.507
'0:01.023',1313.551
'0:01.027',1262.270
'0:01.031',1293.042
'0:01.035',1276.920
'0:01.039',1293.042
'0:01.043',1273.990
'0:01.047',1249.085
'0:01.051',1238.094
'0:01.055',1240.296
'0:01.059',1244.690
'0:01.063',1247.620
'0:01.066',1262.270
'0:01.070',1272.525
'0:01.074',1295.236
'0:01.078',1297.437
'0:01.082',1287.911
'0:01.086',1276.191
'0:01.090',1260.076
'0:01.094',1269.595
'0:01.098',1265.936
'0:01.102',1275.455
'0:01.105',1317.218
'0:01.109',1293.771
'0:01.113',1300.367
'0:01.117',1287.182
'0:01.121',1300.367
'0:01.125',1307.692
'0:01.129',1301.095
'0:01.133',1316.481
'0:01.137',1329.674
'0:01.141',1300.367
'0:01.145',1334.069
'0:01.148',1345.052
'0:01.152',1353.113
'0:01.156',1333.332
'0:01.160',1357.508
'0:01.164',1358.973
'0:01.168',1360.438
'0:01.172',1356.043
'0:01.176',1339.928
'0:01.180',1312.087
'0:01.184',1356.779
'0:01.188',1334.069
'0:01.191',1313.551
'0:01.195',1359.709
'0:01.199',1325.271
'0:01.203',1335.534
'0:01.207',1336.999
'0:01.211',1339.192
'0:01.215',1325.271
'0:01.219',1347.982
'0:01.223',1362.639
'0:01.227',1369.228
'0:01.230',1369.964
'0:01.234',1372.158
'0:01.238',1368.499
'0:01.242',1340.657
'0:01.246',1331.867
'0:01.250',1371.429
'0:01.254',1340.657
'0:01.258',1378.025
'0:01.262',1375.824
'0:01.266',1337.727
'0:01.270',1348.718
'0:01.273',1362.639
'0:01.277',1355.314
'0:01.281',1370.693
'0:01.285',1380.219
'0:01.289',1367.034
'0:01.293',1362.639
'0:01.297',1378.025
'0:01.301',1371.429
'0:01.305',1402.201
'0:01.309',1388.280
'0:01.313',1364.833
'0:01.316',1379.490
'0:01.320',1375.824
'0:01.324',1386.079
'0:01.328',1394.869
'0:01.332',1419.781
'0:01.336',1378.025
'0:01.340',1398.535
'0:01.344',1401.465
'0:01.348',1380.219
'0:01.352',1414.649
'0:01.355',1391.939
'0:01.359',1364.104
'0:01.363',1364.833
'0:01.367',1358.973
'0:01.371',1358.973
'0:01.375',1357.508
'0:01.379',1397.070
'0:01.383',1358.973
'0:01.387',1374.359
'0:01.391',1394.869
'0:01.395',1364.104
'0:01.398',1394.869
'0:01.402',1390.474
'0:01.406',1364.833
'0:01.410',1383.149
'0:01.414',1372.158
'0:01.418',1378.025
'0:01.422',1372.158
'0:01.426',1356.779
'0:01.430',1358.973
'0:01.434',1361.174
'0:01.438',1375.095
'0:01.441',1407.325
'0:01.445',1394.140
'0:01.449',1374.359
'0:01.453',1383.885
'0:01.457',1369.228
'0:01.461',1394.140
'0:01.465',1409.526
'0:01.469',1410.254
'0:01.473',1402.930
'0:01.477',1397.806
'0:01.480',1383.885
'0:01.484',1403.666
'0:01.488',1418.316
'0:01.492',1419.781
'0:01.496',1405.131
'0:01.500',1403.666
'0:01.504',1413.921
'0:01.508',1404.395
'0:01.512',1419.044
'0:01.516',1417.579
'0:01.520',1402.930
'0:01.523',1378.754
'0:01.527',1423.447
'0:01.531',1402.930
'0:01.535',1402.930
'0:01.539',1398.535
'0:01.543',1386.815
'0:01.547',1408.061
'0:01.551',1419.044
'0:01.555',1423.447
'0:01.559',1397.070
'0:01.563',1385.350
'0:01.566',1385.350
'0:01.570',1390.474
'0:01.574',1410.991
'0:01.578',1422.710
'0:01.582',1380.219
'0:01.586',1421.982
'0:01.590',1399.271
'0:01.594',1379.490
'0:01.598',1383.149
'0:01.602',1391.210
'0:01.605',1372.158
'0:01.609',1400.000
'0:01.613',1398.535
'0:01.617',1372.894
'0:01.621',1362.639
'0:01.625',1360.438
'0:01.629',1358.244
'0:01.633',1380.219
'0:01.637',1374.359
'0:01.641',1336.262
'0:01.645',1344.323
'0:01.648',1319.411
'0:01.652',1349.447
'0:01.656',1342.122
'0:01.660',1312.823
'0:01.664',1306.227
'0:01.668',1333.332
'0:01.672',1297.437
'0:01.676',1327.472
'0:01.680',1295.236
'0:01.684',1313.551
'0:01.688',1267.401
'0:01.691',1284.252
'0:01.695',1257.875
'0:01.699',1256.410
'0:01.703',1279.857
'0:01.707',1281.322
'0:01.711',1260.076
'0:01.715',1282.787
'0:01.719',1280.586
'0:01.723',1284.252
'0:01.727',1287.182
'0:01.730',1242.489
'0:01.734',1276.920
'0:01.738',1249.814
'0:01.742',1252.744
'0:01.746',1294.507
'0:01.750',1299.630
'0:01.754',1290.841
'0:01.758',1269.595
'0:01.762',1292.306
'0:01.766',1316.481
'0:01.770',1293.771
'0:01.773',1320.148
'0:01.777',1292.306
'0:01.781',1295.236
'0:01.785',1279.857
'0:01.789',1290.841
'0:01.793',1333.332
'0:01.797',1310.622
'0:01.801',1342.122
'0:01.805',1345.788
'0:01.809',1350.183
'0:01.813',1342.858
'0:01.816',1307.692
'0:01.820',1359.709
'0:01.824',1337.727
'0:01.828',1330.402
'0:01.832',1347.982
'0:01.836',1353.849
'0:01.840',1345.788
'0:01.844',1320.148
'0:01.848',1358.973
'0:01.852',1356.043
'0:01.855',1320.148
'0:01.859',1334.069
'0:01.863',1323.078
'0:01.867',1321.613
'0:01.871',1358.244
'0:01.875',1372.158
'0:01.879',1368.499
'0:01.883',1361.174
'0:01.887',1331.867
'0:01.891',1376.560
'0:01.895',1360.438
'0:01.898',1335.534
'0:01.902',1342.122
'0:01.906',1378.025
'0:01.910',1388.280
'0:01.914',1369.964
'0:01.918',1390.474
'0:01.922',1344.323
'0:01.926',1367.763
'0:01.930',1387.544
'0:01.934',1391.210
'0:01.938',1350.183
'0:01.941',1372.894
'0:01.945',1389.745
'0:01.949',1393.404
'0:01.953',1396.333
'0:01.957',1378.025
'0:01.961',1360.438
'0:01.965',1364.833
'0:01.969',1375.095
'0:01.973',1386.815
'0:01.977',1396.333
'0:01.980',1414.649
'0:01.984',1395.605
'0:01.988',1377.289
'0:01.992',1382.420
'0:01.996',1391.939
'0:02.000',1378.025
'0:02.004',1410.991
'0:02.008',1368.499
'0:02.012',1367.763
'0:02.016',1357.508
'0:02.020',1363.368
'0:02.023',1339.928
'0:02.027',1347.982
'0:02.031',1375.824
'0:02.035',1341.393
'0:02.039',1330.402
'0:02.043',1342.858
'0:02.047',1342.858
'0:02.051',1326.744
'0:02.055',1369.964
'0:02.059',1340.657
'0:02.063',1353.113
'0:02.066',1383.149
'0:02.070',1367.034
'0:02.074',1367.034
'0:02.078',1361.174
'0:02.082',1369.228
'0:02.086',1371.429
'0:02.090',1367.763
'0:02.094',1372.894
'0:02.098',1402.930
'0:02.102',1415.386
'0:02.105',1381.684
'0:02.109',1389.009
'0:02.113',1377.289
'0:02.117',1392.675
'0:02.121',1368.499
'0:02.125',1386.079
'0:02.129',1408.789
'0:02.133',1408.061
'0:02.137',1394.140
'0:02.141',1383.885
'0:02.145',1380.219
'0:02.148',1384.614
'0:02.152',1410.254
'0:02.156',1403.666
'0:02.160',1388.280
'0:02.164',1404.395
'0:02.168',1394.140
'0:02.172',1404.395
'0:02.176',1429.307
'0:02.180',1391.210
'0:02.184',1403.666
'0:02.188',1411.719
'0:02.191',1402.930
'0:02.195',1391.939
'0:02.199',1391.210
'0:02.203',1416.114
'0:02.207',1432.237
'0:02.211',1391.210
'0:02.215',1418.316
'0:02.219',1388.280
'0:02.223',1430.035
'0:02.227',1388.280
'0:02.230',1383.149
'0:02.234',1394.140
'0:02.238',1402.930
'0:02.242',1407.325
'0:02.246',1394.869
'0:02.250',1377.289
'0:02.254',1365.569
'0:02.258',1403.666
'0:02.262',1372.894
'0:02.266',1394.869
'0:02.270',1358.973
'0:02.273',1365.569
'0:02.277',1384.614
'0:02.281',1375.824
'0:02.285',1381.684
'0:02.289',1349.447
'0:02.293',1337.727
'0:02.297',1363.368
'0:02.301',1338.464
'0:02.305',1361.903
'0:02.309',1352.384
'0:02.313',1359.709
'0:02.316',1339.192
'0:02.320',1363.368
'0:02.324',1381.684
'0:02.328',1380.219
'0:02.332',1339.928
'0:02.336',1367.763
'0:02.340',1361.903
'0:02.344',1340.657
'0:02.348',1311.358
'0:02.352',1334.797
'0:02.355',1324.543
'0:02.359',1299.630
'0:02.363',1313.551
'0:02.367',1259.340
'0:02.371',1301.832
'0:02.375',1258.611
'0:02.379',1278.385
'0:02.383',1305.498
'0:02.387',1292.306
'0:02.391',1298.902
'0:02.395',1304.762
'0:02.398',1304.033
'0:02.402',1285.717
'0:02.406',1303.297
'0:02.410',1301.095
'0:02.414',1301.095
'0:02.418',1300.367
'0:02.422',1296.701
'0:02.426',1299.630
'0:02.430',1293.042
'0:02.434',1298.166
'0:02.438',1293.771
'0:02.441',1294.507
'0:02.445',1290.112
'0:02.449',1254.209
'0:02.453',1283.516
'0:02.457',1282.787
'0:02.461',1301.095
'0:02.465',1290.841
'0:02.469',1276.191
'0:02.473',1312.087
'0:02.477',1279.121
'0:02.480',1311.358
'0:02.484',1286.446
'0:02.488',1288.647
'0:02.492',1282.051
'0:02.496',1324.543
'0:02.500',1300.367
'0:02.504',1309.157
'0:02.508',1315.016
'0:02.512',1320.876
'0:02.516',1321.613
'0:02.520',1310.622
'0:02.523',1353.849
'0:02.527',1350.920
'0:02.531',1326.007
'0:02.535',1345.052
'0:02.539',1364.104
'0:02.543',1372.158
'0:02.547',1374.359
'0:02.551',1375.824
'0:02.555',1365.569
'0:02.559',1350.183
'0:02.563',1343.587
'0:02.566',1335.534
'0:02.570',1336.999
'0:02.574',1381.684
'0:02.578',1358.244
'0:02.582',1364.833
'0:02.586',1367.763
'0:02.590',1366.298
'0:02.594',1342.858
'0:02.598',1368.499
'0:02.602',1389.745
'0:02.605',1389.745
'0:02.609',1342.858
'0:02.613',1345.052
'0:02.617',1349.447
'0:02.621',1365.569
'0:02.625',1356.043
'0:02.629',1389.745
'0:02.633',1383.885
'0:02.637',1365.569
'0:02.641',1380.219
'0:02.645',1405.131
'0:02.648',1364.104
'0:02.652',1393.404
'0:02.656',1389.009
'0:02.660',1389.009
'0:02.664',1385.350
'0:02.668',1389.009
'0:02.672',1409.526
'0:02.676',1396.333
'0:02.680',1405.860
'0:02.684',1367.763
'0:02.688',1392.675
'0:02.691',1348.718
'0:02.695',1392.675
'0:02.699',1373.623
'0:02.703',1361.903
'0:02.707',1342.858
'0:02.711',1369.964
'0:02.715',1391.939
'0:02.719',1395.605
'0:02.723',1399.271
'0:02.727',1388.280
'0:02.730',1360.438
'0:02.734',1408.789
'0:02.738',1371.429
'0:02.742',1400.000
'0:02.746',1408.061
'0:02.750',1416.851
'0:02.754',1414.649
'0:02.758',1397.806
'0:02.762',1380.955
'0:02.766',1397.070
'0:02.770',1419.044
'0:02.773',1409.526
'0:02.777',1424.175
'0:02.781',1402.930
'0:02.785',1394.869
'0:02.789',1397.070
'0:02.793',1402.201
'0:02.797',1398.535
'0:02.801',1398.535
'0:02.805',1397.806
'0:02.809',1400.000
'0:02.813',1396.333
'0:02.816',1397.070
'0:02.820',1399.271
'0:02.824',1407.325
'0:02.828',1419.781
'0:02.832',1435.166
'0:02.836',1407.325
'0:02.840',1420.509
'0:02.844',1427.842
'0:02.848',1442.491
'0:02.852',1441.026
'0:02.855',1440.290
'0:02.859',1436.631
'0:02.863',1399.271
'0:02.867',1410.991
'0:02.871',1418.316
'0:02.875',1394.140
'0:02.879',1383.149
'0:02.883',1386.815
'0:02.887',1416.114
'0:02.891',1414.649
'0:02.895',1413.184
'0:02.898',1409.526
'0:02.902',1361.903
'0:02.906',1376.560
'0:02.910',1394.140
'0:02.914',1393.404
'0:02.918',1339.192
'0:02.922',1380.955
'0:02.926',1361.174
'0:02.930',1353.849
'0:02.934',1335.534
'0:02.938',1349.447
'0:02.941',1364.833
'0:02.945',1324.543
'0:02.949',1320.148
'0:02.953',1346.517
'0:02.957',1353.849
'0:02.961',1343.587
'0:02.965',1312.087
'0:02.969',1356.043
'0:02.973',1306.963
'0:02.977',1317.946
'0:02.980',1361.903
'0:02.984',1353.849
'0:02.988',1334.069
'0:02.992',1323.806
'0:02.996',1345.788
'0:03.000',1372.894
'0:03.004',1372.894
'0:03.008',1347.982
'0:03.012',1330.402
'0:03.016',1344.323
'0:03.020',1327.472
'0:03.023',1357.508
'0:03.027',1353.849
'0:03.031',1309.893
'0:03.035',1341.393
'0:03.039',1306.963
'0:03.043',1290.112
'0:03.047',1286.446
'0:03.051',1315.753
'0:03.055',1331.139
'0:03.059',1331.867
'0:03.063',1330.402
'0:03.066',1331.867
'0:03.070',1317.946
'0:03.074',1317.218
'0:03.078',1324.543
'0:03.082',1320.148
'0:03.086',1320.148
'0:03.090',1311.358
'0:03.094',1314.288
'0:03.098',1311.358
'0:03.102',1320.876
'0:03.105',1326.007
'0:03.109',1276.920
'0:03.113',1279.121
'0:03.117',1317.218
'0:03.121',1293.042
'0:03.125',1274.726
'0:03.129',1306.963
'0:03.133',1317.218
'0:03.137',1304.033
'0:03.141',1303.297
'0:03.145',1326.007
'0:03.148',1283.516
'0:03.152',1293.042
'0:03.156',1310.622
'0:03.160',1337.727
'0:03.164',1304.033
'0:03.168',1298.166
'0:03.172',1323.806
'0:03.176',1348.718
'0:03.180',1338.464
'0:03.184',1311.358
'0:03.188',1347.253
'0:03.191',1320.148
'0:03.195',1358.244
'0:03.199',1318.683
'0:03.203',1357.508
'0:03.207',1314.288
'0:03.211',1357.508
'0:03.215',1319.411
'0:03.219',1337.727
'0:03.223',1349.447
'0:03.227',1318.683
'0:03.230',1351.648
'0:03.234',1356.779
'0:03.238',1328.209
'0:03.242',1327.472
'0:03.246',1326.007
'0:03.250',1359.709
'0:03.254',1372.158
'0:03.258',1367.034
'0:03.262',1358.973
'0:03.266',1340.657
'0:03.270',1382.420
'0:03.273',1347.253
'0:03.277',1353.849
'0:03.281',1383.149
'0:03.285',1383.885
'0:03.289',1361.903
'0:03.293',1369.964
'0:03.297',1380.955
'0:03.301',1361.174
'0:03.305',1379.490
'0:03.309',1412.456
'0:03.313',1369.228
'0:03.316',1396.333
'0:03.320',1408.789
'0:03.324',1370.693
'0:03.328',1410.254
'0:03.332',1411.719
'0:03.336',1381.684
'0:03.340',1386.815
'0:03.344',1359.709
'0:03.348',1346.517
'0:03.352',1358.244
'0:03.355',1364.833
'0:03.359',1365.569
'0:03.363',1374.359
'0:03.367',1378.754
'0:03.371',1370.693
'0:03.375',1361.903
'0:03.379',1333.332
'0:03.383',1364.104
'0:03.387',1370.693
'0:03.391',1339.192
'0:03.395',1357.508
'0:03.398',1388.280
'0:03.402',1367.763
'0:03.406',1375.824
'0:03.410',1356.043
'0:03.414',1387.544
'0:03.418',1388.280
'0:03.422',1361.903
'0:03.426',1383.149
'0:03.430',1408.061
'0:03.434',1386.815
'0:03.438',1386.079
'0:03.441',1369.228
'0:03.445',1368.499
'0:03.449',1387.544
'0:03.453',1399.271
'0:03.457',1365.569
'0:03.461',1398.535
'0:03.465',1370.693
'0:03.469',1397.806
'0:03.473',1364.833
'0:03.477',1405.131
'0:03.480',1386.079
'0:03.484',1367.763
'0:03.488',1376.560
'0:03.492',1395.605
'0:03.496',1357.508
'0:03.500',1372.894
'0:03.504',1391.939
'0:03.508',1389.745
'0:03.512',1378.754
'0:03.516',1394.869
'0:03.520',1368.499
'0:03.523',1378.754
'0:03.527',1379.490
'0:03.531',1394.869
'0:03.535',1423.447
'0:03.539',1385.350
'0:03.543',1419.044
'0:03.547',1383.149
'0:03.551',1405.860
'0:03.555',1390.474
'0:03.559',1421.246
'0:03.563',1419.781
'0:03.566',1400.000
'0:03.570',1372.158
'0:03.574',1366.298
'0:03.578',1385.350
'0:03.582',1353.113
'0:03.586',1349.447
'0:03.590',1356.043
'0:03.594',1338.464
'0:03.598',1378.025
'0:03.602',1378.025
'0:03.605',1328.937
'0:03.609',1319.411
'0:03.613',1358.973
'0:03.617',1334.797
'0:03.621',1331.867
'0:03.625',1342.122
'0:03.629',1347.253
'0:03.633',1341.393
'0:03.637',1319.411
'0:03.641',1355.314
'0:03.645',1312.087
'0:03.648',1335.534
'0:03.652',1328.937
'0:03.656',1313.551
'0:03.660',1324.543
'0:03.664',1328.209
'0:03.668',1360.438
'0:03.672',1353.113
'0:03.676',1353.849
'0:03.680',1353.849
'0:03.684',1320.148
'0:03.688',1299.630
'0:03.691',1305.498
'0:03.695',1334.797
'0:03.699',1315.016
'0:03.703',1331.867
'0:03.707',1291.577
'0:03.711',1334.797
'0:03.715',1331.139
'0:03.719',1287.182
'0:03.723',1332.604
'0:03.727',1291.577
'0:03.730',1336.999
'0:03.734',1309.157
'0:03.738',1285.717
'0:03.742',1326.744
'0:03.746',1294.507
'0:03.750',1299.630
'0:03.754',1329.674
'0:03.758',1322.341
'0:03.762',1290.112
'0:03.766',1304.033
'0:03.770',1314.288
'0:03.773',1331.867
'0:03.777',1326.007
'0:03.781',1331.867
'0:03.785',1334.797
'0:03.789',1315.753
'0:03.793',1290.112
'0:03.797',1301.832
'0:03.801',1308.428
'0:03.805',1326.007
'0:03.809',1338.464
'0:03.813',1347.982
'0:03.816',1353.849
'0:03.820',1354.578
'0:03.824',1350.183
'0:03.828',1314.288
'0:03.832',1353.849
'0:03.836',1320.876
'0:03.840',1331.867
'0:03.844',1361.903
'0:03.848',1360.438
'0:03.852',1328.209
'0:03.855',1328.209
'0:03.859',1330.402
'0:03.863',1352.384
'0:03.867',1343.587
'0:03.871',1353.849
'0:03.875',1375.824
'0:03.879',1345.052
'0:03.883',1327.472
'0:03.887',1347.253
'0:03.891',1375.095
'0:03.895',1335.534
'0:03.898',1331.139
'0:03.902',1371.429
'0:03.906',1371.429
'0:03.910',1374.359
'0:03.914',1361.174
'0:03.918',1346.517
'0:03.922',1326.744
'0:03.926',1326.744
'0:03.930',1326.744
'0:03.934',1328.937
'0:03.938',1349.447
'0:03.941',1350.920
'0:03.945',1353.113
'0:03.949',1367.034
'0:03.953',1370.693
'0:03.957',1373.623
'0:03.961',1368.499
'0:03.965',1358.973
'0:03.969',1371.429
'0:03.973',1375.824
'0:03.977',1340.657
'0:03.980',1328.209
'0:03.984',1339.192
'0:03.988',1367.763
'0:03.992',1365.569
'0:03.996',1342.858
'0:04.000',1380.955
'0:04.004',1340.657
'0:04.008',1348.718
'0:04.012',1379.490
'0:04.016',1364.833
'0:04.020',1363.368
'0:04.023',1352.384
'0:04.027',1347.253
'0:04.031',1347.982
'0:04.035',1368.499
'0:04.039',1353.849
'0:04.043',1340.657
'0:04.047',1347.982
'0:04.051',1394.140
'0:04.055',1364.104
'0:04.059',1380.955
'0:04.063',1393.404
'0:04.066',1369.228
'0:04.070',1397.806
'0:04.074',1405.860
'0:04.078',1412.456
'0:04.082',1380.955
'0:04.086',1394.140
'0:04.090',1406.596
'0:04.094',1394.869
'0:04.098',1405.860
'0:04.102',1400.736
'0:04.105',1394.869
'0:04.109',1386.079
'0:04.113',1404.395
'0:04.117',1388.280
'0:04.121',1383.149
'0:04.125',1375.095
'0:04.129',1372.894
'0:04.133',1376.560
'0:04.137',1383.885
'0:04.141',1398.535
'0:04.145',1367.034
'0:04.148',1386.079
'0:04.152',1408.789
'0:04.156',1361.903
'0:04.160',1393.404
'0:04.164',1404.395
'0:04.168',1360.438
'0:04.172',1382.420
'0:04.176',1359.709
'0:04.180',1397.806
'0:04.184',1405.131
'0:04.188',1403.666
'0:04.191',1371.429
'0:04.195',1386.079
'0:04.199',1383.885
'0:04.203',1374.359
'0:04.207',1369.964
'0:04.211',1383.885
'0:04.215',1373.623
'0:04.219',1387.544
'0:04.223',1386.079
'0:04.227',1391.210
'0:04.230',1410.991
'0:04.234',1367.763
'0:04.238',1386.079
'0:04.242',1361.174
'0:04.246',1403.666
'0:04.250',1404.395
'0:04.254',1383.885
'0:04.258',1397.070
'0:04.262',1364.833
'0:04.266',1367.034
'0:04.270',1344.323
'0:04.273',1380.955
'0:04.277',1346.517
'0:04.281',1350.920
'0:04.285',1364.104
'0:04.289',1367.034
'0:04.293',1359.709
'0:04.297',1347.253
'0:04.301',1362.639
'0:04.305',1334.797
'0:04.309',1345.052
'0:04.313',1360.438
'0:04.316',1361.174
'0:04.320',1349.447
'0:04.324',1359.709
'0:04.328',1347.982
'0:04.332',1345.052
'0:04.336',1352.384
'0:04.340',1349.447
'0:04.344',1339.192
'0:04.348',1327.472
'0:04.352',1306.227
'0:04.355',1304.033
'0:04.359',1325.271
'0:04.363',1287.182
'0:04.367',1320.876
'0:04.371',1310.622
'0:04.375',1274.726
'0:04.379',1312.823
'0:04.383',1283.516
'0:04.387',1298.166
'0:04.391',1268.130
'0:04.395',1313.551
'0:04.398',1291.577
'0:04.402',1268.866
'0:04.406',1287.182
'0:04.410',1299.630
'0:04.414',1303.297
'0:04.418',1271.796
'0:04.422',1307.692
'0:04.426',1320.148
'0:04.430',1298.166
'0:04.434',1280.586
'0:04.438',1274.726
'0:04.441',1290.112
'0:04.445',1291.577
'0:04.449',1292.306
'0:04.453',1274.726
'0:04.457',1322.341
'0:04.461',1323.806
'0:04.465',1290.112
'0:04.469',1330.402
'0:04.473',1331.867
'0:04.477',1330.402
'0:04.480',1339.928
'0:04.484',1300.367
'0:04.488',1339.192
'0:04.492',1337.727
'0:04.496',1320.148
'0:04.500',1358.973
'0:04.504',1340.657
'0:04.508',1325.271
'0:04.512',1354.578
'0:04.516',1373.623
'0:04.520',1366.298
'0:04.523',1353.113
'0:04.527',1342.122
'0:04.531',1389.009
'0:04.535',1354.578
'0:04.539',1376.560
'0:04.543',1388.280
'0:04.547',1364.833
'0:04.551',1394.869
'0:04.555',1376.560
'0:04.559',1353.113
'0:04.563',1396.333
'0:04.566',1372.894
'0:04.570',1350.920
'0:04.574',1389.745
'0:04.578',1356.043
'0:04.582',1396.333
'0:04.586',1391.210
'0:04.590',1367.763
'0:04.594',1368.499
'0:04.598',1349.447
'0:04.602',1376.560
'0:04.605',1394.869
'0:04.609',1384.614
'0:04.613',1390.474
'0:04.617',1378.025
'0:04.621',1380.955
'0:04.625',1375.824
'0:04.629',1395.605
'0:04.633',1394.140
'0:04.637',1395.605
'0:04.641',1392.675
'0:04.645',1383.885
'0:04.648',1386.079
'0:04.652',1355.314
'0:04.656',1364.104
'0:04.660',1353.113
'0:04.664',1396.333
'0:04.668',1356.779
'0:04.672',1380.219
'0:04.676',1369.964
'0:04.680',1353.849
'0:04.684',1357.508
'0:04.688',1354.578
'0:04.691',1353.849
'0:04.695',1362.639
'0:04.699',1365.569
'0:04.703',1339.192
'0:04.707',1372.158
'0:04.711',1331.867
'0:04.715',1335.534
'0:04.719',1326.007
'0:04.723',1353.849
'0:04.727',1328.937
'0:04.730',1336.262
'0:04.734',1361.903
'0:04.738',1378.754
'0:04.742',1358.973
'0:04.746',1380.219
'0:04.750',1394.140
'0:04.754',1388.280
'0:04.758',1402.201
'0:04.762',1421.246
'0:04.766',1390.474
'0:04.770',1398.535
'0:04.773',1415.386
'0:04.777',1380.955
'0:04.781',1405.131
'0:04.785',1418.316
'0:04.789',1405.131
'0:04.793',1385.350
'0:04.797',1389.009
'0:04.801',1421.982
'0:04.805',1413.921
'0:04.809',1413.184
'0:04.813',1400.000
'0:04.816',1406.596
'0:04.820',1411.719
'0:04.824',1374.359
'0:04.828',1372.894
'0:04.832',1398.535
'0:04.836',1412.456
'0:04.840',1374.359
'0:04.844',1405.860
'0:04.848',1362.639
'0:04.852',1378.754
'0:04.855',1405.860
'0:04.859',1387.544
'0:04.863',1358.973
'0:04.867',1398.535
'0:04.871',1359.709
'0:04.875',1399.271
'0:04.879',1361.903
'0:04.883',1402.201
'0:04.887',1364.104
'0:04.891',1402.201
'0:04.895',1385.350
'0:04.898',1358.973
'0:04.902',1397.806
'0:04.906',1402.201
'0:04.910',1388.280
'0:04.914',1356.779
'0:04.918',1395.605
'0:04.922',1367.034
'0:04.926',1366.298
'0:04.930',1391.210
'0:04.934',1369.964
'0:04.938',1346.517
'0:04.941',1350.920
'0:04.945',1380.219
'0:04.949',1341.393
'0:04.953',1367.763
'0:04.957',1366.298
'0:04.961',1351.648
'0:04.965',1378.754
'0:04.969',1367.034
'0:04.973',1353.113
'0:04.977',1354.578
'0:04.980',1340.657
'0:04.984',1334.069
'0:04.988',1344.323
'0:04.992',1339.192
'0:04.996',1369.964
'0:05.000',1347.253
'0:05.004',1347.982
'0:05.008',1380.219
'0:05.012',1377.289
'0:05.016',1380.955
'0:05.020',1384.614
'0:05.023',1355.314
'0:05.027',1349.447
'0:05.031',1361.903
'0:05.035',1358.244
'0:05.039',1355.314
'0:05.043',1338.464
'0:05.047',1334.069
'0:05.051',1339.192
'0:05.055',1303.297
'0:05.059',1290.112
'0:05.063',1301.095
'0:05.066',1299.630
'0:05.070',1286.446
'0:05.074',1284.252
'0:05.078',1285.717
'0:05.082',1265.936
'0:05.086',1284.252
'0:05.090',1243.954
'0:05.094',1258.611
'0:05.098',1295.972
'0:05.102',1281.322
'0:05.105',1282.787
'0:05.109',1259.340
'0:05.113',1298.166
'0:05.117',1298.902
'0:05.121',1275.455
'0:05.125',1263.735
'0:05.129',1263.006
'0:05.133',1280.586
'0:05.137',1307.692
'0:05.141',1298.166
'0:05.145',1286.446
'0:05.148',1269.595
'0:05.152',1277.656
'0:05.156',1288.647
'0:05.160',1297.437
'0:05.164',1334.069
'0:05.168',1337.727
'0:05.172',1329.674
'0:05.176',1336.999
'0:05.180',1312.823
'0:05.184',1353.849
'0:05.188',1361.903
'0:05.191',1326.007
'0:05.195',1340.657
'0:05.199',1371.429
'0:05.203',1330.402
'0:05.207',1336.262
'0:05.211',1351.648
'0:05.215',1364.833
'0:05.219',1382.420
'0:05.223',1340.657
'0:05.227',1360.438
'0:05.230',1369.964
'0:05.234',1349.447
'0:05.238',1369.228
'0:05.242',1372.158
'0:05.246',1349.447
'0:05.250',1397.806
'0:05.254',1352.384
'0:05.258',1383.149
'0:05.262',1379.490
'0:05.266',1361.174
'0:05.270',1400.736
'0:05.273',1404.395
'0:05.277',1378.754
'0:05.281',1383.885
'0:05.285',1404.395
'0:05.289',1394.140
'0:05.293',1359.709
'0:05.297',1381.684
'0:05.301',1389.009
'0:05.305',1405.860
'0:05.309',1402.201
'0:05.313',1405.131
'0:05.316',1383.149
'0:05.320',1366.298
'0:05.324',1380.955
'0:05.328',1360.438
'0:05.332',1365.569
'0:05.336',1380.219
'0:05.340',1397.806
'0:05.344',1412.456
'0:05.348',1366.298
'0:05.352',1378.754
'0:05.355',1355.314
'0:05.359',1374.359
'0:05.363',1347.982
'0:05.367',1338.464
'0:05.371',1319.411
'0:05.375',1312.087
'0:05.379',1323.078
'0:05.383',1304.033
'0:05.387',1315.016
'0:05.391',1311.358
'0:05.395',1328.209
'0:05.398',1326.007
'0:05.402',1344.323
'0:05.406',1367.034
'0:05.410',1369.964
'0:05.414',1371.429
'0:05.418',1409.526
'0:05.422',1419.781
'0:05.426',1421.982
'0:05.430',1392.675
'0:05.434',1419.781
'0:05.438',1405.860
'0:05.441',1432.965
'0:05.445',1394.140
'0:05.449',1431.500
'0:05.453',1391.939
'0:05.457',1434.430
'0:05.461',1415.386
'0:05.465',1415.386
'0:05.469',1404.395
'0:05.473',1421.982
'0:05.477',1392.675
'0:05.480',1389.009
'0:05.484',1410.254
'0:05.488',1413.184
'0:05.492',1367.763
'0:05.496',1400.736
'0:05.500',1375.824
'0:05.504',1354.578
'0:05.508',1365.569
'0:05.512',1391.939
'0:05.516',1394.140
'0:05.520',1388.280
'0:05.523',1386.815
'0:05.527',1371.429
'0:05.531',1372.894
'0:05.535',1371.429
'0:05.539',1378.754
'0:05.543',1355.314
'0:05.547',1379.490
'0:05.551',1371.429
'0:05.555',1347.253
'0:05.559',1368.499
'0:05.563',1385.350
'0:05.566',1353.113
'0:05.570',1394.140
'0:05.574',1377.289
'0:05.578',1361.903
'0:05.582',1359.709
'0:05.586',1383.885
'0:05.590',1363.368
'0:05.594',1375.824
'0:05.598',1394.869
'0:05.602',1392.675
'0:05.605',1385.350
'0:05.609',1387.544
'0:05.613',1386.815
'0:05.617',1382.420
'0:05.621',1347.253
'0:05.625',1372.158
'0:05.629',1371.429
'0:05.633',1331.139
'0:05.637',1348.718
'0:05.641',1377.289
'0:05.645',1358.244
'0:05.648',1345.052
'0:05.652',1349.447
'0:05.656',1367.034
'0:05.660',1331.867
'0:05.664',1380.955
'0:05.668',1365.569
'0:05.672',1342.858
'0:05.676',1356.779
'0:05.680',1394.869
'0:05.684',1376.560
'0:05.688',1357.508
'0:05.691',1393.404
'0:05.695',1350.920
'0:05.699',1347.982
'0:05.703',1365.569
'0:05.707',1323.078
'0:05.711',1311.358
'0:05.715',1311.358
'0:05.719',1337.727
'0:05.723',1325.271
'0:05.727',1275.455
'0:05.730',1289.376
'0:05.734',1299.630
'0:05.738',1279.121
'0:05.742',1311.358
'0:05.746',1278.385
'0:05.750',1266.665
'0:05.754',1284.252
'0:05.758',1321.613
'0:05.762',1305.498
'0:05.766',1312.087
'0:05.770',1284.981
'0:05.773',1292.306
'0:05.777',1304.033
'0:05.781',1317.218
'0:05.785',1307.692
'0:05.789',1296.701
'0:05.793',1337.727
'0:05.797',1292.306
'0:05.801',1340.657
'0:05.805',1292.306
'0:05.809',1304.033
'0:05.813',1314.288
'0:05.816',1308.428
'0:05.820',1299.630
'0:05.824',1345.052
'0:05.828',1320.148
'0:05.832',1341.393
'0:05.836',1309.157
'0:05.840',1312.823
'0:05.844',1317.946
'0:05.848',1326.007
'0:05.852',1325.271
'0:05.855',1319.411
'0:05.859',1331.867
'0:05.863',1362.639
'0:05.867',1349.447
'0:05.871',1365.569
'0:05.875',1339.928
'0:05.879',1373.623
'0:05.883',1328.937
'0:05.887',1366.298
'0:05.891',1328.209
'0:05.895',1375.095
'0:05.898',1328.937
'0:05.902',1371.429
'0:05.906',1328.937
'0:05.910',1370.693
'0:05.914',1366.298
'0:05.918',1337.727
'0:05.922',1367.034
'0:05.926',1375.095
'0:05.930',1331.867
'0:05.934',1369.228
'0:05.938',1346.517
'0:05.941',1378.025
'0:05.945',1350.183
'0:05.949',1340.657
'0:05.953',1382.420
'0:05.957',1383.885
'0:05.961',1385.350
'0:05.965',1381.684
'0:05.969',1386.815
'0:05.973',1381.684
'0:05.977',1367.034
'0:05.980',1347.982
'0:05.984',1387.544
'0:05.988',1345.788
'0:05.992',1378.754
'0:05.996',1361.903
'0:06.000',1362.639
'0:06.004',1398.535
'0:06.008',1399.271
'0:06.012',1403.666
'0:06.016',1400.736
'0:06.020',1394.140
'0:06.023',1388.280
'0:06.027',1389.009
'0:06.031',1397.806
'0:06.035',1422.710
'0:06.039',1379.490
'0:06.043',1403.666
'0:06.047',1400.736
'0:06.051',1402.201
'0:06.055',1347.253
'0:06.059',1369.964
'0:06.063',1383.885
'0:06.066',1360.438
'0:06.070',1330.402
'0:06.074',1329.674
'0:06.078',1338.464
'0:06.082',1323.806
'0:06.086',1326.744
'0:06.090',1371.429
'0:06.094',1342.858
'0:06.098',1347.982
'0:06.102',1361.903
'0:06.105',1389.745
'0:06.109',1361.903
'0:06.113',1391.210
'0:06.117',1398.535
'0:06.121',1403.666
'0:06.125',1406.596
'0:06.129',1408.061
'0:06.133',1411.719
'0:06.137',1382.420
'0:06.141',1375.095
'0:06.145',1415.386
'0:06.148',1395.605
'0:06.152',1379.490
'0:06.156',1395.605
'0:06.160',1408.789
'0:06.164',1388.280
'0:06.168',1375.824
'0:06.172',1375.095
'0:06.176',1402.201
'0:06.180',1381.684
'0:06.184',1383.885
'0:06.188',1397.806
'0:06.191',1412.456
'0:06.195',1365.569
'0:06.199',1386.815
'0:06.203',1408.789
'0:06.207',1368.499
'0:06.211',1377.289
'0:06.215',1403.666
'0:06.219',1394.140
'0:06.223',1378.025
'0:06.227',1395.605
'0:06.230',1406.596
'0:06.234',1397.806
'0:06.238',1368.499
'0:06.242',1364.833
'0:06.246',1364.104
'0:06.250',1362.639
'0:06.254',1374.359
'0:06.258',1393.404
'0:06.262',1377.289
'0:06.266',1399.271
'0:06.270',1408.061
'0:06.273',1397.806
'0:06.277',1360.438
'0:06.281',1394.869
'0:06.285',1364.104
'0:06.289',1402.201
'0:06.293',1399.271
'0:06.297',1353.849
'0:06.301',1362.639
'0:06.305',1388.280
'0:06.309',1361.903
'0:06.313',1359.709
'0:06.316',1374.359
'0:06.320',1382.420
'0:06.324',1380.955
'0:06.328',1332.604
'0:06.332',1331.139
'0:06.336',1339.928
'0:06.340',1349.447
'0:06.344',1360.438
'0:06.348',1378.754
'0:06.352',1368.499
'0:06.355',1334.797
'0:06.359',1338.464
'0:06.363',1370.693
'0:06.367',1344.323
'0:06.371',1358.244
'0:06.375',1328.209
'0:06.379',1369.228
'0:06.383',1331.867
'0:06.387',1331.867
'0:06.391',1314.288
'0:06.395',1346.517
'0:06.398',1291.577
'0:06.402',1308.428
'0:06.406',1280.586
'0:06.410',1274.726
'0:06.414',1296.701
'0:06.418',1317.946
'0:06.422',1281.322
'0:06.426',1265.200
'0:06.430',1306.227
'0:06.434',1312.087
'0:06.438',1314.288
'0:06.441',1306.963
'0:06.445',1295.236
'0:06.449',1276.920
'0:06.453',1317.946
'0:06.457',1321.613
'0:06.461',1304.762
'0:06.465',1317.946
'0:06.469',1324.543
'0:06.473',1326.007
'0:06.477',1294.507
'0:06.480',1308.428
'0:06.484',1337.727
'0:06.488',1312.823
'0:06.492',1307.692
'0:06.496',1295.236
'0:06.500',1331.867
'0:06.504',1334.797
'0:06.508',1306.963
'0:06.512',1350.920
'0:06.516',1306.227
'0:06.520',1315.016
'0:06.523',1349.447
'0:06.527',1348.718
'0:06.531',1338.464
'0:06.535',1326.007
'0:06.539',1318.683
'0:06.543',1366.298
'0:06.547',1327.472
'0:06.551',1369.228
'0:06.555',1353.113
'0:06.559',1357.508
'0:06.563',1340.657
'0:06.566',1339.928
'0:06.570',1347.253
'0:06.574',1364.833
'0:06.578',1353.113
'0:06.582',1361.903
'0:06.586',1357.508
'0:06.590',1367.034
'0:06.594',1350.920
'0:06.598',1349.447
'0:06.602',1347.253
'0:06.605',1324.543
'0:06.609',1372.158
'0:06.613',1331.867
'0:06.617',1369.964
'0:06.621',1353.849
'0:06.625',1329.674
'0:06.629',1358.973
'0:06.633',1377.289
'0:06.637',1375.095
'0:06.641',1370.693
'0:06.645',1385.350
'0:06.648',1375.824
'0:06.652',1360.438
'0:06.656',1369.228
'0:06.660',1369.964
'0:06.664',1377.289
'0:06.668',1347.982
'0:06.672',1391.210
'0:06.676',1357.508
'0:06.680',1353.113
'0:06.684',1384.614
'0:06.688',1397.806
'0:06.691',1402.201
'0:06.695',1408.061
'0:06.699',1406.596
'0:06.703',1410.254
'0:06.707',1412.456
'0:06.711',1411.719
'0:06.715',1381.684
'0:06.719',1385.350
'0:06.723',1395.605
'0:06.727',1396.333
'0:06.730',1372.894
'0:06.734',1366.298
'0:06.738',1392.675
'0:06.742',1366.298
'0:06.746',1358.244
'0:06.750',1382.420
'0:06.754',1356.043
'0:06.758',1349.447
'0:06.762',1390.474
'0:06.766',1347.982
'0:06.770',1361.903
'0:06.773',1392.675
'0:06.777',1382.420
'0:06.781',1391.939
'0:06.785',1361.174
'0:06.789',1383.885
'0:06.793',1402.930
'0:06.797',1367.034
'0:06.801',1364.104
'0:06.805',1368.499
'0:06.809',1413.921
'0:06.813',1410.991
'0:06.816',1377.289
'0:06.820',1369.964
'0:06.824',1377.289
'0:06.828',1378.025
'0:06.832',1411.719
'0:06.836',1414.649
'0:06.840',1416.114
'0:06.844',1386.079
'0:06.848',1370.693
'0:06.852',1378.754
'0:06.855',1379.490
'0:06.859',1394.140
'0:06.863',1364.104
'0:06.867',1408.789
'0:06.871',1386.815
'0:06.875',1358.973
'0:06.879',1397.070
'0:06.883',1393.404
'0:06.887',1352.384
'0:06.891',1357.508
'0:06.895',1376.560
'0:06.898',1347.982
'0:06.902',1380.219
'0:06.906',1393.404
'0:06.910',1381.684
'0:06.914',1387.544
'0:06.918',1361.903
'0:06.922',1380.955
'0:06.926',1391.939
'0:06.930',1350.183
'0:06.934',1397.070
'0:06.938',1370.693
'0:06.941',1380.955
'0:06.945',1394.140
'0:06.949',1363.368
'0:06.953',1361.903
'0:06.957',1369.964
'0:06.961',1376.560
'0:06.965',1386.815
'0:06.969',1369.964
'0:06.973',1346.517
'0:06.977',1391.210
'0:06.980',1387.544
'0:06.984',1385.350
'0:06.988',1362.639
'0:06.992',1337.727
'0:06.996',1326.744
'0:07.000',1351.648
'0:07.004',1321.613
'0:07.008',1367.763
'0:07.012',1341.393
'0:07.016',1339.192
'0:07.020',1317.218
'0:07.023',1348.718
'0:07.027',1364.104
'0:07.031',1342.858
'0:07.035',1364.833
'0:07.039',1328.937
'0:07.043',1341.393
'0:07.047',1364.104
'0:07.051',1375.824
'0:07.055',1371.429
'0:07.059',1364.833
'0:07.063',1324.543
'0:07.066',1367.763
'0:07.070',1364.833
'0:07.074',1340.657
'0:07.078',1307.692
'0:07.082',1343.587
'0:07.086',1334.069
'0:07.090',1335.534
'0:07.094',1336.999
'0:07.098',1310.622
'0:07.102',1295.236
'0:07.105',1317.946
'0:07.109',1309.893
'0:07.113',1299.630
'0:07.117',1307.692
'0:07.121',1301.832
'0:07.125',1324.543
'0:07.129',1336.999
'0:07.133',1332.604
'0:07.137',1318.683
'0:07.141',1288.647
'0:07.145',1338.464
'0:07.148',1328.209
'0:07.152',1287.911
'0:07.156',1315.016
'0:07.160',1301.832
'0:07.164',1316.481
'0:07.168',1322.341
'0:07.172',1287.182
'0:07.176',1310.622
'0:07.180',1332.604
'0:07.184',1332.604
'0:07.188',1292.306
'0:07.191',1336.262
'0:07.195',1287.182
'0:07.199',1331.867
'0:07.203',1326.744
'0:07.207',1312.823
'0:07.211',1310.622
'0:07.215',1323.806
'0:07.219',1338.464
'0:07.223',1332.604
'0:07.227',1336.999
'0:07.230',1354.578
'0:07.234',1309.893
'0:07.238',1343.587
'0:07.242',1363.368
'0:07.246',1330.402
'0:07.250',1331.867
'0:07.254',1323.806
'0:07.258',1342.122
'0:07.262',1356.779
'0:07.266',1382.420
'0:07.270',1375.095
'0:07.273',1364.833
'0:07.277',1345.788
'0:07.281',1391.939
'0:07.285',1364.833
'0:07.289',1373.623
'0:07.293',1388.280
'0:07.297',1365.569
'0:07.301',1394.869
'0:07.305',1393.404
'0:07.309',1368.499
'0:07.313',1367.763
'0:07.316',1401.465
'0:07.320',1409.526
'0:07.324',1412.456
'0:07.328',1415.386
'0:07.332',1404.395
'0:07.336',1411.719
'0:07.340',1416.114
'0:07.344',1416.114
'0:07.348',1380.955
'0:07.352',1380.955
'0:07.355',1417.579
'0:07.359',1383.885
'0:07.363',1416.851
'0:07.367',1389.745
'0:07.371',1368.499
'0:07.375',1361.174
'0:07.379',1404.395
'0:07.383',1377.289
'0:07.387',1388.280
'0:07.391',1369.228
'0:07.395',1334.069
'0:07.398',1336.999
'0:07.402',1309.893
'0:07.406',1329.674
'0:07.410',1289.376
'0:07.414',1300.367
'0:07.418',1287.911
'0:07.422',1276.191
'0:07.426',1260.805
'0:07.430',1268.130
'0:07.434',1242.489
'0:07.438',1256.410
'0:07.441',1275.455
'0:07.445',1299.630
'0:07.449',1273.261
'0:07.453',1275.455
'0:07.457',1336.999
'0:07.461',1324.543
'0:07.465',1321.613
'0:07.469',1378.025
'0:07.473',1375.824
'0:07.477',1369.228
'0:07.480',1392.675
'0:07.484',1408.789
'0:07.488',1400.736
'0:07.492',1407.325
'0:07.496',1431.500
'0:07.500',1441.755
'0:07.504',1443.220
'0:07.508',1426.377
'0:07.512',1412.456
'0:07.516',1436.631
'0:07.520',1454.947
'0:07.523',1435.166
'0:07.527',1416.114
'0:07.531',1423.447
'0:07.535',1411.719
'0:07.539',1426.377
'0:07.543',1451.281
'0:07.547',1404.395
'0:07.551',1425.640
'0:07.555',1410.254
'0:07.559',1408.789
'0:07.563',1430.035
'0:07.566',1396.333
'0:07.570',1403.666
'0:07.574',1422.710
'0:07.578',1389.745
'0:07.582',1421.246
'0:07.586',1382.420
'0:07.590',1413.921
'0:07.594',1380.219
'0:07.598',1397.070
'0:07.602',1422.710
'0:07.605',1419.044
'0:07.609',1419.044
'0:07.613',1408.061
'0:07.617',1405.860
'0:07.621',1389.745
'0:07.625',1400.000
'0:07.629',1391.939
'0:07.633',1410.991
'0:07.637',1429.307
'0:07.641',1421.982
'0:07.645',1391.939
'0:07.648',1411.719
'0:07.652',1416.851
'0:07.656',1396.333
'0:07.660',1386.079
'0:07.664',1379.490
'0:07.668',1404.395
'0:07.672',1417.579
'0:07.676',1372.894
'0:07.680',1412.456
'0:07.684',1372.894
'0:07.688',1364.833
'0:07.691',1369.228
'0:07.695',1392.675
'0:07.699',1385.350
'0:07.703',1401.465
'0:07.707',1383.885
'0:07.711',1359.709
'0:07.715',1358.244
'0:07.719',1380.219
'0:07.723',1364.833
'0:07.727',1361.903
'0:07.730',1370.693
'0:07.734',1323.078
'0:07.738',1322.341
'0:07.742',1309.893
'0:07.746',1351.648
'0:07.750',1339.192
'0:07.754',1311.358
'0:07.758',1320.148
'0:07.762',1276.191
'0:07.766',1270.331
'0:07.770',1285.717
'0:07.773',1265.936
'0:07.777',1241.024
'0:07.781',1241.024
'0:07.785',1254.209
'0:07.789',1265.200
'0:07.793',1255.681
'0:07.797',1226.375
'0:07.801',1265.936
'0:07.805',1262.270
'0:07.809',1270.331
'0:07.813',1273.261
'0:07.816',1234.436
'0:07.820',1275.455
'0:07.824',1293.042
'0:07.828',1284.252
'0:07.832',1249.085
'0:07.836',1299.630
'0:07.840',1256.410
'0:07.844',1277.656
'0:07.848',1306.227
'0:07.852',1309.893
'0:07.855',1297.437
'0:07.859',1284.252
'0:07.863',1282.051
'0:07.867',1282.051
'0:07.871',1298.902
'0:07.875',1307.692
'0:07.879',1325.271
'0:07.883',1339.192
'0:07.887',1342.858
'0:07.891',1304.033
'0:07.895',1307.692
'0:07.898',1309.893
'0:07.902',1331.139
'0:07.906',1360.438
'0:07.910',1352.384
'0:07.914',1327.472
'0:07.918',1336.999
'0:07.922',1372.894
'0:07.926',1331.139
'0:07.930',1372.894
'0:07.934',1353.849
'0:07.938',1356.043
'0:07.941',1334.797
'0:07.945',1355.314
'0:07.949',1380.219
'0:07.953',1333.332
'0:07.957',1363.368
'0:07.961',1336.999
'0:07.965',1376.560
'0:07.969',1349.447
'0:07.973',1331.867
'0:07.977',1365.569
'0:07.980',1353.849
'0:07.984',1326.744
'0:07.988',1344.323
'0:07.992',1367.034
'0:07.996',1358.244
'0:08.000',1323.078
'0:08.004',1351.648
'0:08.008',1338.464
'0:08.012',1357.508
'0:08.016',1317.946
'0:08.020',1364.833
'0:08.023',1334.069
'0:08.027',1350.920
'0:08.031',1315.753
'0:08.035',1360.438
'0:08.039',1327.472
'0:08.043',1360.438
'0:08.047',1369.228
'0:08.051',1364.833
'0:08.055',1350.183
'0:08.059',1348.718
'0:08.063',1364.833
'0:08.066',1383.149
'0:08.070',1382.420
'0:08.074',1357.508
'0:08.078',1372.894
'0:08.082',1399.271
'0:08.086',1410.254
'0:08.090',1384.614
'0:08.094',1423.447
'0:08.098',1394.140
'0:08.102',1430.772
'0:08.105',1417.579
'0:08.109',1404.395
'0:08.113',1402.201
'0:08.117',1430.772
'0:08.121',1391.210
'0:08.125',1403.666
'0:08.129',1402.201
'0:08.133',1408.789
'0:08.137',1389.009
'0:08.141',1385.350
'0:08.145',1426.377
'0:08.148',1389.009
'0:08.152',1398.535
'0:08.156',1424.912
'0:08.160',1415.386
'0:08.164',1383.149
'0:08.168',1411.719
'0:08.172',1424.912
'0:08.176',1402.201
'0:08.180',1384.614
'0:08.184',1393.404
'0:08.188',1391.210
'0:08.191',1378.025
'0:08.195',1390.474
'0:08.199',1412.456
'0:08.203',1398.535
'0:08.207',1400.000
'0:08.211',1413.184
'0:08.215',1411.719
'0:08.219',1408.789
'0:08.223',1389.745
'0:08.227',1380.955
'0:08.230',1381.684
'0:08.234',1410.254
'0:08.238',1369.964
'0:08.242',1389.009
'0:08.246',1364.104
'0:08.250',1393.404
'0:08.254',1377.289
'0:08.258',1358.973
'0:08.262',1362.639
'0:08.266',1400.000
'0:08.270',1360.438
'0:08.273',1381.684
'0:08.277',1372.894
'0:08.281',1394.140
'0:08.285',1355.314
'0:08.289',1363.368
'0:08.293',1393.404
'0:08.297',1393.404
'0:08.301',1381.684
'0:08.305',1386.079
'0:08.309',1356.043
'0:08.313',1374.359
'0:08.316',1365.569
'0:08.320',1383.885
'0:08.324',1385.350
'0:08.328',1350.183
'0:08.332',1347.253
'0:08.336',1383.149
'0:08.340',1381.684
'0:08.344',1365.569
'0:08.348',1331.867
'0:08.352',1372.158
'0:08.355',1358.244
'0:08.359',1353.849
'0:08.363',1335.534
'0:08.367',1358.244
'0:08.371',1335.534
'0:08.375',1323.806
'0:08.379',1352.384
'0:08.383',1300.367
'0:08.387',1334.797
'0:08.391',1318.683
'0:08.395',1345.052
'0:08.398',1307.692
'0:08.402',1334.069
'0:08.406',1352.384
'0:08.410',1307.692
'0:08.414',1328.937
'0:08.418',1364.104
'0:08.422',1363.368
'0:08.426',1336.999
'0:08.430',1348.718
'0:08.434',1378.754
'0:08.438',1364.833
'0:08.441',1339.192
'0:08.445',1345.052
'0:08.449',1358.973
'0:08.453',1361.903
'0:08.457',1331.139
'0:08.461',1361.174
'0:08.465',1343.587
'0:08.469',1322.341
'0:08.473',1339.192
'0:08.477',1334.069
'0:08.480',1309.157
'0:08.484',1325.271
'0:08.488',1334.069
'0:08.492',1326.744
'0:08.496',1326.007
'0:08.500',1308.428
'0:08.504',1312.823
'0:08.508',1314.288
'0:08.512',1306.227
'0:08.516',1344.323
'0:08.520',1293.042
'0:08.523',1339.928
'0:08.527',1304.033
'0:08.531',1293.771
'0:08.535',1293.042
'0:08.539',1335.534
'0:08.543',1334.797
'0:08.547',1307.692
'0:08.551',1306.963
'0:08.555',1330.402
'0:08.559',1312.087
'0:08.563',1302.560
'0:08.566',1289.376
'0:08.570',1326.007
'0:08.574',1293.771
'0:08.578',1336.262
'0:08.582',1317.946
'0:08.586',1299.630
'0:08.590',1309.157
'0:08.594',1347.982
'0:08.598',1346.517
'0:08.602',1308.428
'0:08.605',1348.718
'0:08.609',1320.148
'0:08.613',1331.139
'0:08.617',1320.876
'0:08.621',1355.314
'0:08.625',1320.876
'0:08.629',1356.779
'0:08.633',1340.657
'0:08.637',1346.517
'0:08.641',1335.534
'0:08.645',1317.218
'0:08.648',1339.192
'0:08.652',1363.368
'0:08.656',1328.937
'0:08.660',1326.007
'0:08.664',1357.508
'0:08.668',1358.973
'0:08.672',1356.779
'0:08.676',1340.657
'0:08.680',1333.332
'0:08.684',1336.262
'0:08.688',1351.648
'0:08.691',1364.833
'0:08.695',1371.429
'0:08.699',1361.174
'0:08.703',1329.674
'0:08.707',1335.534
'0:08.711',1342.122
'0:08.715',1358.973
'0:08.719',1334.069
'0:08.723',1362.639
'0:08.727',1350.183
'0:08.730',1358.244
'0:08.734',1364.833
'0:08.738',1367.034
'0:08.742',1369.228
'0:08.746',1352.384
'0:08.750',1347.253
'0:08.754',1392.675
'0:08.758',1383.149
'0:08.762',1381.684
'0:08.766',1367.034
'0:08.770',1393.404
'0:08.773',1406.596
'0:08.777',1389.009
'0:08.781',1377.289
'0:08.785',1392.675
'0:08.789',1400.000
'0:08.793',1404.395
'0:08.797',1358.973
'0:08.801',1366.298
'0:08.805',1393.404
'0:08.809',1342.858
'0:08.813',1352.384
'0:08.816',1383.885
'0:08.820',1340.657
'0:08.824',1343.587
'0:08.828',1346.517
'0:08.832',1393.404
'0:08.836',1372.158
'0:08.840',1392.675
'0:08.844',1389.745
'0:08.848',1380.955
'0:08.852',1370.693
'0:08.855',1416.851
'0:08.859',1408.061
'0:08.863',1387.544
'0:08.867',1422.710
'0:08.871',1393.404
'0:08.875',1383.885
'0:08.879',1386.079
'0:08.883',1400.736
'0:08.887',1406.596
'0:08.891',1426.377
'0:08.895',1387.544
'0:08.898',1390.474
'0:08.902',1392.675
'0:08.906',1417.579
'0:08.910',1399.271
'0:08.914',1392.675
'0:08.918',1416.114
'0:08.922',1429.307
'0:08.926',1415.386
'0:08.930',1403.666
'0:08.934',1387.544
'0:08.938',1402.201
'0:08.941',1427.105
'0:08.945',1383.885
'0:08.949',1403.666
'0:08.953',1416.114
'0:08.957',1418.316
'0:08.961',1427.842
'0:08.965',1418.316
'0:08.969',1398.535
'0:08.973',1383.885
'0:08.977',1390.474
'0:08.980',1418.316
'0:08.984',1420.509
'0:08.988',1383.149
'0:08.992',1408.061
'0:08.996',1380.219
'0:09.000',1417.579
'0:09.004',1400.000
'0:09.008',1390.474
'0:09.012',1378.754
'0:09.016',1399.271
'0:09.020',1363.368
'0:09.023',1372.894
'0:09.027',1355.314
'0:09.031',1375.095
'0:09.035',1345.052
'0:09.039',1342.122
'0:09.043',1338.464
'0:09.047',1347.982
'0:09.051',1353.113
'0:09.055',1367.034
'0:09.059',1326.744
'0:09.063',1372.158
'0:09.066',1336.262
'0:09.070',1317.946
'0:09.074',1325.271
'0:09.078',1343.587
'0:09.082',1315.753
'0:09.086',1326.007
'0:09.090',1359.709
'0:09.094',1321.613
'0:09.098',1349.447
'0:09.102',1338.464
'0:09.105',1369.228
'0:09.109',1326.007
'0:09.113',1352.384
'0:09.117',1337.727
'0:09.121',1371.429
'0:09.125',1360.438
'0:09.129',1358.244
'0:09.133',1338.464
'0:09.137',1325.271
'0:09.141',1326.744
'0:09.145',1313.551
'0:09.148',1339.928
'0:09.152',1328.937
'0:09.156',1327.472
'0:09.160',1306.963
'0:09.164',1284.252
'0:09.168',1310.622
'0:09.172',1288.647
'0:09.176',1314.288
'0:09.180',1265.200
'0:09.184',1271.796
'0:09.188',1268.866
'0:09.191',1281.322
'0:09.195',1272.525
'0:09.199',1282.051
'0:09.203',1317.218
'0:09.207',1318.683
'0:09.211',1306.963
'0:09.215',1293.771
'0:09.219',1323.806
'0:09.223',1317.946
'0:09.227',1291.577
'0:09.230',1284.981
'0:09.234',1323.806
'0:09.238',1327.472
'0:09.242',1317.218
'0:09.246',1330.402
'0:09.250',1327.472
'0:09.254',1301.832
'0:09.258',1317.946
'0:09.262',1326.744
'0:09.266',1292.306
'0:09.270',1300.367
'0:09.273',1338.464
'0:09.277',1334.797
'0:09.281',1311.358
'0:09.285',1303.297
'0:09.289',1336.262
'0:09.293',1310.622
'0:09.297',1348.718
'0:09.301',1360.438
'0:09.305',1353.849
'0:09.309',1349.447
'0:09.313',1360.438
'0:09.316',1363.368
'0:09.320',1367.034
'0:09.324',1368.499
'0:09.328',1368.499
'0:09.332',1358.973
'0:09.336',1336.999
'0:09.340',1349.447
'0:09.344',1370.693
'0:09.348',1361.903
'0:09.352',1342.122
'0:09.355',1336.999
'0:09.359',1369.964
'0:09.363',1374.359
'0:09.367',1361.174
'0:09.371',1341.393
'0:09.375',1375.824
'0:09.379',1334.069
'0:09.383',1356.779
'0:09.387',1364.104
'0:09.391',1375.824
'0:09.395',1361.174
'0:09.398',1341.393
'0:09.402',1342.858
'0:09.406',1363.368
'0:09.410',1380.219
'0:09.414',1378.754
'0:09.418',1375.824
'0:09.422',1350.183
'0:09.426',1357.508
'0:09.430',1351.648
'0:09.434',1354.578
'0:09.438',1378.754
'0:09.441',1401.465
'0:09.445',1367.763
'0:09.449',1394.869
'0:09.453',1389.009
'0:09.457',1400.000
'0:09.461',1391.939
'0:09.465',1378.025
'0:09.469',1395.605
'0:09.473',1404.395
'0:09.477',1367.034
'0:09.480',1358.244
'0:09.484',1377.289
'0:09.488',1396.333
'0:09.492',1347.253
'0:09.496',1387.544
'0:09.500',1370.693
'0:09.504',1354.578
'0:09.508',1367.034
'0:09.512',1387.544
'0:09.516',1394.869
'0:09.520',1392.675
'0:09.523',1386.815
'0:09.527',1361.174
'0:09.531',1389.009
'0:09.535',1388.280
'0:09.539',1367.034
'0:09.543',1408.789
'0:09.547',1417.579
'0:09.551',1386.079
'0:09.555',1378.025
'0:09.559',1414.649
'0:09.563',1384.614
'0:09.566',1405.860
'0:09.570',1421.246
'0:09.574',1416.114
'0:09.578',1420.509
'0:09.582',1412.456
'0:09.586',1417.579
'0:09.590',1399.271
'0:09.594',1416.114
'0:09.598',1441.026
'0:09.602',1435.895
'0:09.605',1422.710
'0:09.609',1422.710
'0:09.613',1424.175
'0:09.617',1422.710
'0:09.621',1408.789
'0:09.625',1424.912
'0:09.629',1426.377
'0:09.633',1408.061
'0:09.637',1393.404
'0:09.641',1432.965
'0:09.645',1397.806
'0:09.648',1432.237
'0:09.652',1408.061
'0:09.656',1386.079
'0:09.660',1403.666
'0:09.664',1425.640
'0:09.668',1420.509
'0:09.672',1405.860
'0:09.676',1390.474
'0:09.680',1393.404
'0:09.684',1375.824
'0:09.688',1369.228
'0:09.691',1374.359
'0:09.695',1376.560
'0:09.699',1363.368
'0:09.703',1371.429
'0:09.707',1385.350
'0:09.711',1368.499
'0:09.715',1340.657
'0:09.719',1367.763
'0:09.723',1353.113
'0:09.727',1357.508
'0:09.730',1361.174
'0:09.734',1351.648
'0:09.738',1325.271
'0:09.742',1325.271
'0:09.746',1315.016
'0:09.750',1360.438
'0:09.754',1353.849
'0:09.758',1317.946
'0:09.762',1356.779
'0:09.766',1315.753
'0:09.770',1355.314
'0:09.773',1339.928
'0:09.777',1331.139
'0:09.781',1351.648
'0:09.785',1369.964
'0:09.789',1380.219
'0:09.793',1331.867
'0:09.797',1378.754
'0:09.801',1352.384
'0:09.805',1370.693
'0:09.809',1360.438
'0:09.813',1348.718
'0:09.816',1312.087
'0:09.820',1295.972
'0:09.824',1317.946
'0:09.828',1295.972
'0:09.832',1288.647
'0:09.836',1309.157
'0:09.840',1260.076
'0:09.844',1298.902
'0:09.848',1246.884
'0:09.852',1293.771
'0:09.855',1253.480
'0:09.859',1247.620
'0:09.863',1260.805
'0:09.867',1290.112
'0:09.871',1290.112
'0:09.875',1298.166
'0:09.879',1296.701
'0:09.883',1303.297
'0:09.887',1304.762
'0:09.891',1307.692
'0:09.895',1268.866
'0:09.898',1303.297
'0:09.902',1259.340
'0:09.906',1296.701
'0:09.910',1308.428
'0:09.914',1310.622
'0:09.918',1308.428
'0:09.922',1284.252
'0:09.926',1308.428
'0:09.930',1302.560
'0:09.934',1322.341
'0:09.938',1302.560
'0:09.941',1332.604
'0:09.945',1287.182
'0:09.949',1293.771
'0:09.953',1294.507
'0:09.957',1305.498
'0:09.961',1326.007
'0:09.965',1353.113
'0:09.969',1307.692
'0:09.973',1354.578
'0:09.977',1314.288
'0:09.980',1326.007
'0:09.984',1342.858
'0:09.988',1316.481
'0:09.992',1360.438
'0:09.996',1337.727
'0:10.000',1320.876
'0:10.004',1323.806
'0:10.008',1347.982
'0:10.012',1366.298
'0:10.016',1336.999
'0:10.020',1376.560
'0:10.023',1352.384
'0:10.027',1345.788
'0:10.031',1366.298
'0:10.035',1367.763
'0:10.039',1346.517
'0:10.043',1388.280
'0:10.047',1348.718
'0:10.051',1374.359
'0:10.055',1397.806
'0:10.059',1396.333
'0:10.063',1377.289
'0:10.066',1402.201
'0:10.070',1358.973
'0:10.074',1402.930
'0:10.078',1369.228
'0:10.082',1375.095
'0:10.086',1403.666
'0:10.090',1356.043
'0:10.094',1404.395
'0:10.098',1358.973
'0:10.102',1397.070
'0:10.105',1391.210
'0:10.109',1356.043
'0:10.113',1389.009
'0:10.117',1369.964
'0:10.121',1369.964
'0:10.125',1395.605
'0:10.129',1410.254
'0:10.133',1380.955
'0:10.137',1365.569
'0:10.141',1372.894
'0:10.145',1367.034
'0:10.148',1356.043
'0:10.152',1389.745
'0:10.156',1375.095
'0:10.160',1349.447
'0:10.164',1375.824
'0:10.168',1361.903
'0:10.172',1366.298
'0:10.176',1331.867
'0:10.180',1323.806
'0:10.184',1339.192
'0:10.188',1331.139
'0:10.191',1331.139
'0:10.195',1367.763
'0:10.199',1376.560
'0:10.203',1376.560
'0:10.207',1350.183
'0:10.211',1359.709
'0:10.215',1366.298
'0:10.219',1375.824
'0:10.223',1400.736
'0:10.227',1404.395
'0:10.230',1388.280
'0:10.234',1399.271
'0:10.238',1408.061
'0:10.242',1418.316
'0:10.246',1420.509
'0:10.250',1417.579
'0:10.254',1443.220
'0:10.258',1457.141
'0:10.262',1445.421
'0:10.266',1418.316
'0:10.270',1452.017
'0:10.273',1446.158
'0:10.277',1439.561
'0:10.281',1431.500
'0:10.285',1430.772
'0:10.289',1419.781
'0:10.293',1413.921
'0:10.297',1440.290
'0:10.301',1442.491
'0:10.305',1424.912
'0:10.309',1411.719
'0:10.313',1421.246
'0:10.316',1401.465
'0:10.320',1435.166
'0:10.324',1440.290
'0:10.328',1412.456
'0:10.332',1417.579
'0:10.336',1391.939
'0:10.340',1406.596
'0:10.344',1411.719
'0:10.348',1387.544
'0:10.352',1409.526
'0:10.355',1424.912
'0:10.359',1414.649
'0:10.363',1421.982
'0:10.367',1419.044
'0:10.371',1397.806
'0:10.375',1374.359
'0:10.379',1384.614
'0:10.383',1406.596
'0:10.387',1402.201
'0:10.391',1372.894
'0:10.395',1350.920
'0:10.398',1390.474
'0:10.402',1386.079
'0:10.406',1374.359
'0:10.410',1380.219
'0:10.414',1346.517
'0:10.418',1339.192
'0:10.422',1369.964
'0:10.426',1325.271
'0:10.430',1350.183
'0:10.434',1350.920
'0:10.438',1320.148
'0:10.441',1335.534
'0:10.445',1367.034
'0:10.449',1335.534
'0:10.453',1323.806
'0:10.457',1359.709
'0:10.461',1326.744
'0:10.465',1320.876
'0:10.469',1322.341
'0:10.473',1358.244
'0:10.477',1315.016
'0:10.480',1309.893
'0:10.484',1340.657
'0:10.488',1328.937
'0:10.492',1309.157
'0:10.496',1309.893
'0:10.500',1317.218
'0:10.504',1260.805
'0:10.508',1302.560
'0:10.512',1290.841
'0:10.516',1265.200
'0:10.520',1246.884
'0:10.523',1284.981
'0:10.527',1242.489
'0:10.531',1268.130
'0:10.535',1293.042
'0:10.539',1293.042
'0:10.543',1261.541
'0:10.547',1300.367
'0:10.551',1270.331
'0:10.555',1273.990
'0:10.559',1300.367
'0:10.563',1303.297
'0:10.566',1276.191
'0:10.570',1295.972
'0:10.574',1321.613
'0:10.578',1301.095
'0:10.582',1309.893
'0:10.586',1320.876
'0:10.590',1326.007
'0:10.594',1284.252
'0:10.598',1334.069
'0:10.602',1287.911
'0:10.605',1295.972
'0:10.609',1309.157
'0:10.613',1297.437
'0:10.617',1332.604
'0:10.621',1344.323
'0:10.625',1304.033
'0:10.629',1340.657
'0:10.633',1356.043
'0:10.637',1359.709
'0:10.641',1359.709
'0:10.645',1359.709
'0:10.648',1351.648
'0:10.652',1342.858
'0:10.656',1345.052
'0:10.660',1358.244
'0:10.664',1329.674
'0:10.668',1357.508
'0:10.672',1336.999
'0:10.676',1355.314
'0:10.680',1332.604
'0:10.684',1363.368
'0:10.688',1377.289
'0:10.691',1333.332
'0:10.695',1364.833
'0:10.699',1364.104
'0:10.703',1342.122
'0:10.707',1378.025
'0:10.711',1331.867
'0:10.715',1366.298
'0:10.719',1344.323
'0:10.723',1371.429
'0:10.727',1330.402
'0:10.730',1377.289
'0:10.734',1328.937
'0:10.738',1374.359
'0:10.742',1351.648
'0:10.746',1325.271
'0:10.750',1325.271
'0:10.754',1323.806
'0:10.758',1339.928
'0:10.762',1358.973
'0:10.766',1351.648
'0:10.770',1367.034
'0:10.773',1369.964
'0:10.777',1369.964
'0:10.781',1361.903
'0:10.785',1356.779
'0:10.789',1328.937
'0:10.793',1365.569
'0:10.797',1364.833
'0:10.801',1346.517
'0:10.805',1375.095
'0:10.809',1377.289
'0:10.813',1372.158
'0:10.816',1358.973
'0:10.820',1394.140
'0:10.824',1394.140
'0:10.828',1409.526
'0:10.832',1400.736
'0:10.836',1372.894
'0:10.840',1368.499
'0:10.844',1400.736
'0:10.848',1386.079
'0:10.852',1395.605
'0:10.855',1349.447
'0:10.859',1353.849
'0:10.863',1391.939
'0:10.867',1346.517
'0:10.871',1371.429
'0:10.875',1389.009
'0:10.879',1387.544
'0:10.883',1364.104
'0:10.887',1381.684
'0:10.891',1357.508
'0:10.895',1380.219
'0:10.898',1401.465
'0:10.902',1389.745
'0:10.906',1361.174
'0:10.910',1363.368
'0:10.914',1365.569
'0:10.918',1367.763
'0:10.922',1370.693
'0:10.926',1412.456
'0:10.930',1410.254
'0:10.934',1400.000
'0:10.938',1385.350
'0:10.941',1375.095
'0:10.945',1400.000
'0:10.949',1405.131
'0:10.953',1393.404
'0:10.957',1406.596
'0:10.961',1391.939
'0:10.965',1372.894
'0:10.969',1416.851
'0:10.973',1386.815
'0:10.977',1377.289
'0:10.980',1404.395
'0:10.984',1410.991
'0:10.988',1378.754
'0:10.992',1387.544
'0:10.996',1394.140
'0:11.000',1379.490
'0:11.004',1364.833
'0:11.008',1361.174
'0:11.012',1402.930
'0:11.016',1406.596
'0:11.020',1402.930
'0:11.023',1406.596
'0:11.027',1409.526
'0:11.031',1406.596
'0:11.035',1408.789
'0:11.039',1408.789
'0:11.043',1389.009
'0:11.047',1362.639
'0:11.051',1367.034
'0:11.055',1405.131
'0:11.059',1392.675
'0:11.063',1364.104
'0:11.066',1401.465
'0:11.070',1387.544
'0:11.074',1382.420
'0:11.078',1394.869
'0:11.082',1389.009
'0:11.086',1361.903
'0:11.090',1352.384
'0:11.094',1345.052
'0:11.098',1373.623
'0:11.102',1372.894
'0:11.105',1367.034
'0:11.109',1346.517
'0:11.113',1339.192
'0:11.117',1333.332
'0:11.121',1375.824
'0:11.125',1356.779
'0:11.129',1372.894
'0:11.133',1378.754
'0:11.137',1358.973
'0:11.141',1353.113
'0:11.145',1353.849
'0:11.148',1342.858
'0:11.152',1340.657
'0:11.156',1353.113
'0:11.160',1377.289
'0:11.164',1378.754
'0:11.168',1345.788
'0:11.172',1363.368
'0:11.176',1353.113
'0:11.180',1354.578
'0:11.184',1320.148
'0:11.188',1315.753
'0:11.191',1279.857
'0:11.195',1294.507
'0:11.199',1312.087
'0:11.203',1255.681
'0:11.207',1274.726
'0:11.211',1285.717
'0:11.215',1293.771
'0:11.219',1280.586
'0:11.223',1258.611
'0:11.227',1293.042
'0:11.230',1268.866
'0:11.234',1255.681
'0:11.238',1260.076
'0:11.242',1283.516
'0:11.246',1301.832
'0:11.250',1292.306
'0:11.254',1272.525
'0:11.258',1255.681
'0:11.262',1302.560
'0:11.266',1279.857
'0:11.270',1260.076
'0:11.273',1275.455
'0:11.277',1292.306
'0:11.281',1312.087
'0:11.285',1280.586
'0:11.289',1302.560
'0:11.293',1312.087
'0:11.297',1312.823
'0:11.301',1315.753
'0:11.305',1279.857
'0:11.309',1325.271
'0:11.313',1297.437
'0:11.316',1296.701
'0:11.320',1290.112
'0:11.324',1285.717
'0:11.328',1301.095
'0:11.332',1336.999
'0:11.336',1293.042
'0:11.340',1340.657
'0:11.344',1343.587
'0:11.348',1336.262
'0:11.352',1339.192
'0:11.355',1302.560
'0:11.359',1342.858
'0:11.363',1305.498
'0:11.367',1340.657
'0:11.371',1352.384
'0:11.375',1309.893
'0:11.379',1315.753
'0:11.383',1327.472
'0:11.387',1336.999
'0:11.391',1331.139
'0:11.395',1368.499
'0:11.398',1328.937
'0:11.402',1335.534
'0:11.406',1347.982
'0:11.410',1352.384
'0:11.414',1361.174
'0:11.418',1342.122
'0:11.422',1383.885
'0:11.426',1366.298
'0:11.430',1368.499
'0:11.434',1350.920
'0:11.438',1353.849
'0:11.441',1359.709
'0:11.445',1362.639
'0:11.449',1372.158
'0:11.453',1393.404
'0:11.457',1390.474
'0:11.461',1391.939
'0:11.465',1400.000
'0:11.469',1383.149
'0:11.473',1419.044
'0:11.477',1381.684
'0:11.480',1410.991
'0:11.484',1419.044
'0:11.488',1410.991
'0:11.492',1427.105
'0:11.496',1427.105
'0:11.500',1416.114
'0:11.504',1412.456
'0:11.508',1398.535
'0:11.512',1392.675
'0:11.516',1389.009
'0:11.520',1370.693
'0:11.523',1389.009
'0:11.527',1353.849
'0:11.531',1360.438
'0:11.535',1331.867
'0:11.539',1344.323
'0:11.543',1353.849
'0:11.547',1342.858
'0:11.551',1342.858
'0:11.555',1322.341
'0:11.559',1361.174
'0:11.563',1367.034
'0:11.566',1329.674
'0:11.570',1361.903
'0:11.574',1347.982
'0:11.578',1363.368
'0:11.582',1356.043
'0:11.586',1402.930
'0:11.590',1371.429
'0:11.594',1401.465
'0:11.598',1403.666
'0:11.602',1418.316
'0:11.605',1397.070
'0:11.609',1400.000
'0:11.613',1399.271
'0:11.617',1395.605
'0:11.621',1415.386
'0:11.625',1391.210
'0:11.629',1390.474
'0:11.633',1396.333
'0:11.637',1390.474
'0:11.641',1389.745
'0:11.645',1392.675
'0:11.648',1391.939
'0:11.652',1419.044
'0:11.656',1412.456
'0:11.660',1378.025
'0:11.664',1389.745
'0:11.668',1416.114
'0:11.672',1397.806
'0:11.676',1371.429
'0:11.680',1364.833
'0:11.684',1365.569
'0:11.688',1375.095
'0:11.691',1404.395
'0:11.695',1397.806
'0:11.699',1403.666
'0:11.703',1395.605
'0:11.707',1375.095
'0:11.711',1375.095
'0:11.715',1387.544
'0:11.719',1372.894
'0:11.723',1370.693
'0:11.727',1369.228
'0:11.730',1375.824
'0:11.734',1402.930
'0:11.738',1405.860
'0:11.742',1375.824
'0:11.746',1386.815
'0:11.750',1361.174
'0:11.754',1397.806
'0:11.758',1367.763
'0:11.762',1354.578
'0:11.766',1393.404
'0:11.770',1358.973
'0:11.773',1355.314
'0:11.777',1388.280
'0:11.781',1382.420
'0:11.785',1383.149
'0:11.789',1359.709
'0:11.793',1330.402
'0:11.797',1339.928
'0:11.801',1365.569
'0:11.805',1327.472
'0:11.809',1334.069
'0:11.813',1340.657
'0:11.816',1362.639
'0:11.820',1375.095
'0:11.824',1372.894
'0:11.828',1369.964
'0:11.832',1384.614
'0:11.836',1350.920
'0:11.840',1336.262
'0:11.844',1328.209
'0:11.848',1336.262
'0:11.852',1315.753
'0:11.855',1306.963
'0:11.859',1347.982
'0:11.863',1336.999
'0:11.867',1328.209
'0:11.871',1284.981
'0:11.875',1300.367
'0:11.879',1313.551
'0:11.883',1301.095
'0:11.887',1300.367
'0:11.891',1303.297
'0:11.895',1286.446
'0:11.898',1304.762
'0:11.902',1266.665
'0:11.906',1305.498
'0:11.910',1262.270
'0:11.914',1268.866
'0:11.918',1263.735
'0:11.922',1270.331
'0:11.926',1320.148
'0:11.930',1300.367
'0:11.934',1283.516
'0:11.938',1278.385
'0:11.941',1299.630
'0:11.945',1328.937
'0:11.949',1331.867
'0:11.953',1285.717
'0:11.957',1306.963
'0:11.961',1338.464
'0:11.965',1340.657
'0:11.969',1344.323
'0:11.973',1337.727
'0:11.977',1298.902
'0:11.980',1345.788
'0:11.984',1354.578
'0:11.988',1309.893
'0:11.992',1341.393
'0:11.996',1361.174
'0:12.000',1358.244
'0:12.004',1355.314
'0:12.008',1323.806
'0:12.012',1367.034
'0:12.016',1340.657
'0:12.020',1364.833
'0:12.023',1328.209
'0:12.027',1334.069
'0:12.031',1345.052
'0:12.035',1372.894
'0:12.039',1361.174
'0:12.043',1359.709
'0:12.047',1355.314
'0:12.051',1373.623
'0:12.055',1327.472
'0:12.059',1369.228
'0:12.063',1370.693
'0:12.066',1349.447
'0:12.070',1344.323
'0:12.074',1348.718
'0:12.078',1350.183
'0:12.082',1360.438
'0:12.086',1326.007
'0:12.090',1335.534
'0:12.094',1371.429
'0:12.098',1362.639
'0:12.102',1328.937
'0:12.105',1348.718
'0:12.109',1350.183
'0:12.113',1350.920
'0:12.117',1369.964
'0:12.121',1344.323
'0:12.125',1339.192
'0:12.129',1379.490
'0:12.133',1353.849
'0:12.137',1350.183
'0:12.141',1377.289
'0:12.145',1364.833
'0:12.148',1393.404
'0:12.152',1386.815
'0:12.156',1396.333
'0:12.160',1398.535
'0:12.164',1364.833
'0:12.168',1394.869
'0:12.172',1372.158
'0:12.176',1390.474
'0:12.180',1394.869
'0:12.184',1372.158
'0:12.188',1381.684
'0:12.191',1362.639
'0:12.195',1352.384
'0:12.199',1392.675
'0:12.203',1367.763
'0:12.207',1328.937
'0:12.211',1356.043
'0:12.215',1342.858
'0:12.219',1337.727
'0:12.223',1337.727
'0:12.227',1328.937
'0:12.230',1315.016
'0:12.234',1348.718
'0:12.238',1350.920
'0:12.242',1315.753
'0:12.246',1369.964
'0:12.250',1348.718
'0:12.254',1375.095
'0:12.258',1334.797
'0:12.262',1350.183
'0:12.266',1358.973
'0:12.270',1350.183
'0:12.273',1394.869
'0:12.277',1367.034
'0:12.281',1384.614
'0:12.285',1383.149
'0:12.289',1378.025
'0:12.293',1416.114
'0:12.297',1394.869
'0:12.301',1417.579
'0:12.305',1406.596
'0:12.309',1432.237
'0:12.313',1391.939
'0:12.316',1401.465
'0:12.320',1430.035
'0:12.324',1429.307
'0:12.328',1394.140
'0:12.332',1405.860
'0:12.336',1427.105
'0:12.340',1410.991
'0:12.344',1386.079
'0:12.348',1416.851
'0:12.352',1424.175
'0:12.355',1423.447
'0:12.359',1422.710
'0:12.363',1397.806
'0:12.367',1372.894
'0:12.371',1375.095
'0:12.375',1394.140
'0:12.379',1402.201
'0:12.383',1402.201
'0:12.387',1370.693
'0:12.391',1414.649
'0:12.395',1401.465
'0:12.398',1402.201
'0:12.402',1368.499
'0:12.406',1375.095
'0:12.410',1402.201
'0:12.414',1377.289
'0:12.418',1376.560
'0:12.422',1356.043
'0:12.426',1388.280
'0:12.430',1397.806
'0:12.434',1389.009
'0:12.438',1378.025
'0:12.441',1347.253
'0:12.445',1353.849
'0:12.449',1375.095
'0:12.453',1369.964
'0:12.457',1355.314
'0:12.461',1342.858
'0:12.465',1372.894
'0:12.469',1323.078
'0:12.473',1363.368
'0:12.477',1352.384
'0:12.480',1339.928
'0:12.484',1321.613
'0:12.488',1334.797
'0:12.492',1345.052
'0:12.496',1349.447
'0:12.500',1340.657
'0:12.504',1344.323
'0:12.508',1381.684
'0:12.512',1389.745
'0:12.516',1384.614
'0:12.520',1346.517
'0:12.523',1372.158
'0:12.527',1372.894
'0:12.531',1329.674
'0:12.535',1323.078
'0:12.539',1331.139
'0:12.543',1347.253
'0:12.547',1305.498
'0:12.551',1287.911
'0:12.555',1290.112
'0:12.559',1324.543
'0:12.563',1317.946
'0:12.566',1323.806
'0:12.570',1324.543
'0:12.574',1324.543
'0:12.578',1298.902
'0:12.582',1284.252
'0:12.586',1327.472
'0:12.590',1286.446
'0:12.594',1307.692
'0:12.598',1291.577
'0:12.602',1326.744
'0:12.605',1281.322
'0:12.609',1328.937
'0:12.613',1316.481
'0:12.617',1282.051
'0:12.621',1329.674
'0:12.625',1287.182
'0:12.629',1295.972
'0:12.633',1304.762
'0:12.637',1330.402
'0:12.641',1331.139
'0:12.645',1317.946
'0:12.648',1287.182
'0:12.652',1308.428
'0:12.656',1336.999
'0:12.660',1332.604
'0:12.664',1326.744
'0:12.668',1347.253
'0:12.672',1344.323
'0:12.676',1315.016
'0:12.680',1350.920
'0:12.684',1306.227
'0:12.688',1341.393
'0:12.691',1340.657
'0:12.695',1320.148
'0:12.699',1331.867
'0:12.703',1331.139
'0:12.707',1328.209
'0:12.711',1333.332
'0:12.715',1317.218
'0:12.719',1349.447
'0:12.723',1348.718
'0:12.727',1308.428
'0:12.730',1334.797
'0:12.734',1353.113
'0:12.738',1355.314
'0:12.742',1359.709
'0:12.746',1361.903
'0:12.750',1347.982
'0:12.754',1322.341
'0:12.758',1329.674
'0:12.762',1366.298
'0:12.766',1328.937
'0:12.770',1325.271
'0:12.773',1339.192
'0:12.777',1339.928
'0:12.781',1355.314
'0:12.785',1367.763
'0:12.789',1345.052
'0:12.793',1342.122
'0:12.797',1358.244
'0:12.801',1349.447
'0:12.805',1356.779
'0:12.809',1383.885
'0:12.813',1406.596
'0:12.816',1402.930
'0:12.820',1403.666
'0:12.824',1410.254
'0:12.828',1391.210
'0:12.832',1399.271
'0:12.836',1438.096
'0:12.840',1398.535
'0:12.844',1402.201
'0:12.848',1427.105
'0:12.852',1406.596
'0:12.855',1432.965
'0:12.859',1430.035
'0:12.863',1426.377
'0:12.867',1432.237
'0:12.871',1384.614
'0:12.875',1411.719
'0:12.879',1380.219
'0:12.883',1372.158
'0:12.887',1372.158
'0:12.891',1368.499
'0:12.895',1380.955
'0:12.898',1408.789
'0:12.902',1386.815
'0:12.906',1357.508
'0:12.910',1402.930
'0:12.914',1372.894
'0:12.918',1382.420
'0:12.922',1384.614
'0:12.926',1369.228
'0:12.930',1360.438
'0:12.934',1372.894
'0:12.938',1378.025
'0:12.941',1389.009
'0:12.945',1349.447
'0:12.949',1346.517
'0:12.953',1364.833
'0:12.957',1389.009
'0:12.961',1389.745
'0:12.965',1362.639
'0:12.969',1357.508
'0:12.973',1350.920
'0:12.977',1360.438
'0:12.980',1386.079
'0:12.984',1355.314
'0:12.988',1380.955
'0:12.992',1344.323
'0:12.996',1381.684
'0:13.000',1336.262
'0:13.004',1382.420
'0:13.008',1340.657
'0:13.012',1380.955
'0:13.016',1364.104
'0:13.020',1334.069
'0:13.023',1377.289
'0:13.027',1336.262
'0:13.031',1342.122
'0:13.035',1348.718
'0:13.039',1366.298
'0:13.043',1331.867
'0:13.047',1359.709
'0:13.051',1380.219
'0:13.055',1375.824
'0:13.059',1369.964
'0:13.063',1364.104
'0:13.066',1345.052
'0:13.070',1388.280
'0:13.074',1364.104
'0:13.078',1391.210
'0:13.082',1367.763
'0:13.086',1354.578
'0:13.090',1370.693
'0:13.094',1378.025
'0:13.098',1391.939
'0:13.102',1383.885
'0:13.105',1386.815
'0:13.109',1402.930
'0:13.113',1393.404
'0:13.117',1366.298
'0:13.121',1373.623
'0:13.125',1407.325
'0:13.129',1359.709
'0:13.133',1389.009
'0:13.137',1407.325
'0:13.141',1364.104
'0:13.145',1405.860
'0:13.148',1368.499
'0:13.152',1391.210
'0:13.156',1388.280
'0:13.160',1394.140
'0:13.164',1400.000
'0:13.168',1353.849
'0:13.172',1400.736
'0:13.176',1364.104
'0:13.180',1386.815
'0:13.184',1358.244
'0:13.188',1347.253
'0:13.191',1360.438
'0:13.195',1369.228
'0:13.199',1341.393
'0:13.203',1369.964
'0:13.207',1353.113
'0:13.211',1349.447
'0:13.215',1341.393
'0:13.219',1281.322
'0:13.223',1321.613
'0:13.227',1312.823
'0:13.230',1263.735
'0:13.234',1299.630
'0:13.238',1255.681
'0:13.242',1296.701
'0:13.246',1252.744
'0:13.250',1246.884
'0:13.254',1281.322
'0:13.258',1300.367
'0:13.262',1288.647
'0:13.266',1274.726
'0:13.270',1276.920
'0:13.273',1310.622
'0:13.277',1279.857
'0:13.281',1317.946
'0:13.285',1283.516
'0:13.289',1295.972
'0:13.293',1300.367
'0:13.297',1298.166
'0:13.301',1328.209
'0:13.305',1316.481
'0:13.309',1287.182
'0:13.313',1329.674
'0:13.316',1283.516
'0:13.320',1318.683
'0:13.324',1284.981
'0:13.328',1331.139
'0:13.332',1307.692
'0:13.336',1289.376
'0:13.340',1290.112
'0:13.344',1326.744
'0:13.348',1334.069
'0:13.352',1310.622
'0:13.355',1306.963
'0:13.359',1324.543
'0:13.363',1341.393
'0:13.367',1326.744
'0:13.371',1314.288
'0:13.375',1347.982
'0:13.379',1312.087
'0:13.383',1350.183
'0:13.387',1322.341
'0:13.391',1346.517
'0:13.395',1305.498
'0:13.398',1331.867
'0:13.402',1331.867
'0:13.406',1336.262
'0:13.410',1323.806
'0:13.414',1361.903
'0:13.418',1320.148
'0:13.422',1323.806
'0:13.426',1331.867
'0:13.430',1365.569
'0:13.434',1349.447
'0:13.438',1380.219
'0:13.441',1382.420
'0:13.445',1382.420
'0:13.449',1383.149
'0:13.453',1391.939
'0:13.457',1372.894
'0:13.461',1353.849
'0:13.465',1369.964
'0:13.469',1390.474
'0:13.473',1361.174
'0:13.477',1393.404
'0:13.480',1350.183
'0:13.484',1372.158
'0:13.488',1396.333
'0:13.492',1356.779
'0:13.496',1393.404
'0:13.500',1374.359
'0:13.504',1367.034
'0:13.508',1400.000
'0:13.512',1410.991
'0:13.516',1397.070
'0:13.520',1389.745
'0:13.523',1397.070
'0:13.527',1430.035
'0:13.531',1395.605
'0:13.535',1394.140
'0:13.539',1402.930
'0:13.543',1391.210
'0:13.547',1399.271
'0:13.551',1374.359
'0:13.555',1375.824
'0:13.559',1401.465
'0:13.563',1391.939
'0:13.566',1381.684
'0:13.570',1399.271
'0:13.574',1347.982
'0:13.578',1350.920
'0:13.582',1358.973
'0:13.586',1389.009
'0:13.590',1390.474
'0:13.594',1387.544
'0:13.598',1361.174
'0:13.602',1389.745
'0:13.605',1388.280
'0:13.609',1385.350
'0:13.613',1355.314
'0:13.617',1370.693
'0:13.621',1390.474
'0:13.625',1387.544
'0:13.629',1362.639
'0:13.633',1367.763
'0:13.637',1381.684
'0:13.641',1368.499
'0:13.645',1390.474
'0:13.648',1409.526
'0:13.652',1387.544
'0:13.656',1402.201
'0:13.660',1388.280
'0:13.664',1416.114
'0:13.668',1374.359
'0:13.672',1406.596
'0:13.676',1398.535
'0:13.680',1402.201
'0:13.684',1417.579
'0:13.688',1398.535
'0:13.691',1413.921
'0:13.695',1390.474
'0:13.699',1389.009
'0:13.703',1405.860
'0:13.707',1410.254
'0:13.711',1396.333
'0:13.715',1370.693
'0:13.719',1374.359
'0:13.723',1409.526
'0:13.727',1375.824
'0:13.730',1376.560
'0:13.734',1405.131
'0:13.738',1380.219
'0:13.742',1401.465
'0:13.746',1380.219
'0:13.750',1387.544
'0:13.754',1410.991
'0:13.758',1425.640
'0:13.762',1423.447
'0:13.766',1424.175
'0:13.770',1402.201
'0:13.773',1389.745
'0:13.777',1395.605
'0:13.781',1403.666
'0:13.785',1422.710
'0:13.789',1389.009
'0:13.793',1425.640
'0:13.797',1414.649
'0:13.801',1411.719
'0:13.805',1410.254
'0:13.809',1372.894
'0:13.813',1402.201
'0:13.816',1364.104
'0:13.820',1362.639
'0:13.824',1381.684
'0:13.828',1347.982
'0:13.832',1372.894
'0:13.836',1352.384
'0:13.840',1365.569
'0:13.844',1387.544
'0:13.848',1379.490
'0:13.852',1381.684
'0:13.855',1371.429
'0:13.859',1342.858
'0:13.863',1346.517
'0:13.867',1372.158
'0:13.871',1344.323
'0:13.875',1346.517
'0:13.879',1302.560
'0:13.883',1299.630
'0:13.887',1293.042
'0:13.891',1279.121
'0:13.895',1268.130
'0:13.898',1278.385
'0:13.902',1264.471
'0:13.906',1295.972
'0:13.910',1285.717
'0:13.914',1254.209
'0:13.918',1235.164
'0:13.922',1232.234
'0:13.926',1243.225
'0:13.930',1282.787
'0:13.934',1233.699
'0:13.938',1277.656
'0:13.941',1287.182
'0:13.945',1287.182
'0:13.949',1282.787
'0:13.953',1294.507
'0:13.957',1248.349
'0:13.961',1282.051
'0:13.965',1263.006
'0:13.969',1269.595
'0:13.973',1258.611
'0:13.977',1263.006
'0:13.980',1290.112
'0:13.984',1313.551
'0:13.988',1320.876
'0:13.992',1320.148
'0:13.996',1324.543
'0:14.000',1329.674
'0:14.004',1283.516
'0:14.008',1334.069
'0:14.012',1301.832
'0:14.016',1315.753
'0:14.020',1341.393
'0:14.023',1344.323
'0:14.027',1336.262
'0:14.031',1307.692
'0:14.035',1309.893
'0:14.039',1336.999
'0:14.043',1315.016
'0:14.047',1355.314
'0:14.051',1307.692
'0:14.055',1321.613
'0:14.059',1350.183
'0:14.063',1357.508
'0:14.066',1341.393
'0:14.070',1358.244
'0:14.074',1314.288
'0:14.078',1352.384
'0:14.082',1344.323
'0:14.086',1324.543
'0:14.090',1370.693
'0:14.094',1356.043
'0:14.098',1341.393
'0:14.102',1331.139
'0:14.105',1378.025
'0:14.109',1371.429
'0:14.113',1352.384
'0:14.117',1358.973
'0:14.121',1365.569
'0:14.125',1393.404
'0:14.129',1396.333
'0:14.133',1396.333
'0:14.137',1386.815
'0:14.141',1372.894
'0:14.145',1360.438
'0:14.148',1404.395
'0:14.152',1369.964
'0:14.156',1380.955
'0:14.160',1401.465
'0:14.164',1367.034
'0:14.168',1411.719
'0:14.172',1384.614
'0:14.176',1387.544
'0:14.180',1393.404
'0:14.184',1402.201
'0:14.188',1425.640
'0:14.191',1419.044
'0:14.195',1400.000
'0:14.199',1399.271
'0:14.203',1403.666
'0:14.207',1422.710
'0:14.211',1393.404
'0:14.215',1386.079
'0:14.219',1421.246
'0:14.223',1392.675
'0:14.227',1361.174
'0:14.230',1347.253
'0:14.234',1356.043
'0:14.238',1328.937
'0:14.242',1328.209
'0:14.246',1353.849
'0:14.250',1307.692
'0:14.254',1346.517
'0:14.258',1350.920
'0:14.262',1327.472
'0:14.266',1354.578
'0:14.270',1329.674
'0:14.273',1350.183
'0:14.277',1364.104
'0:14.281',1335.534
'0:14.285',1374.359
'0:14.289',1333.332
'0:14.293',1338.464
'0:14.297',1369.228
'0:14.301',1394.140
'0:14.305',1369.228
'0:14.309',1388.280
'0:14.313',1367.034
'0:14.316',1394.140
'0:14.320',1407.325
'0:14.324',1394.869
'0:14.328',1416.851
'0:14.332',1386.079
'0:14.336',1380.219
'0:14.340',1390.474
'0:14.344',1383.885
'0:14.348',1396.333
'0:14.352',1407.325
'0:14.355',1432.237
'0:14.359',1427.842
'0:14.363',1401.465
'0:14.367',1402.201
'0:14.371',1390.474
'0:14.375',1391.939
'0:14.379',1402.930
'0:14.383',1424.175
'0:14.387',1405.860
'0:14.391',1405.131
'0:14.395',1429.307
'0:14.398',1416.114
'0:14.402',1402.201
'0:14.406',1418.316
'0:14.410',1426.377
'0:14.414',1405.860
'0:14.418',1443.220
'0:14.422',1419.044
'0:14.426',1400.736
'0:14.430',1411.719
'0:14.434',1405.860
'0:14.438',1402.201
'0:14.441',1411.719
'0:14.445',1413.921
'0:14.449',1420.509
'0:14.453',1387.544
'0:14.457',1384.614
'0:14.461',1399.271
'0:14.465',1380.955
'0:14.469',1371.429
'0:14.473',1367.763
'0:14.477',1372.894
'0:14.480',1391.939
'0:14.484',1367.763
'0:14.488',1354.578
'0:14.492',1377.289
'0:14.496',1346.517
'0:14.500',1338.464
'0:14.504',1335.534
'0:14.508',1333.332
'0:14.512',1358.973
'0:14.516',1334.069
'0:14.520',1376.560
'0:14.523',1372.894
'0:14.527',1337.727
'0:14.531',1324.543
'0:14.535',1364.833
'0:14.539',1356.779
'0:14.543',1355.314
'0:14.547',1334.069
'0:14.551',1329.674
'0:14.555',1317.218
'0:14.559',1268.866
'0:14.563',1271.060
'0:14.566',1281.322
'0:14.570',1260.805
'0:14.574',1226.375
'0:14.578',1220.515
'0:14.582',1224.173
'0:14.586',1236.629
'0:14.590',1245.419
'0:14.594',1205.129
'0:14.598',1232.971
'0:14.602',1249.085
'0:14.605',1205.129
'0:14.609',1232.971
'0:14.613',1244.690
'0:14.617',1263.006
'0:14.621',1268.130
'0:14.625',1289.376
'0:14.629',1250.550
'0:14.633',1283.516
'0:14.637',1284.252
'0:14.641',1311.358
'0:14.645',1314.288
'0:14.648',1296.701
'0:14.652',1319.411
'0:14.656',1306.963
'0:14.660',1333.332
'0:14.664',1319.411
'0:14.668',1326.007
'0:14.672',1299.630
'0:14.676',1352.384
'0:14.680',1333.332
'0:14.684',1359.709
'0:14.688',1360.438
'0:14.691',1331.139
'0:14.695',1350.183
'0:14.699',1361.174
'0:14.703',1369.228
'0:14.707',1347.982
'0:14.711',1389.009
'0:14.715',1379.490
'0:14.719',1374.359
'0:14.723',1374.359
'0:14.727',1406.596
'0:14.730',1361.903
'0:14.734',1407.325
'0:14.738',1363.368
'0:14.742',1392.675
'0:14.746',1394.869
'0:14.750',1384.614
'0:14.754',1380.219
'0:14.758',1397.806
'0:14.762',1396.333
'0:14.766',1373.623
'0:14.770',1388.280
'0:14.773',1408.061
'0:14.777',1386.079
'0:14.781',1365.569
'0:14.785',1394.869
'0:14.789',1393.404
'0:14.793',1365.569
'0:14.797',1362.639
'0:14.801',1372.158
'0:14.805',1361.903
'0:14.809',1365.569
'0:14.813',1397.806
'0:14.816',1362.639
'0:14.820',1401.465
'0:14.824',1390.474
'0:14.828',1355.314
'0:14.832',1354.578
'0:14.836',1356.779
'0:14.840',1372.894
'0:14.844',1390.474
'0:14.848',1380.219
'0:14.852',1367.763
'0:14.855',1358.973
'0:14.859',1397.070
'0:14.863',1356.043
'0:14.867',1399.271
'0:14.871',1364.104
'0:14.875',1365.569
'0:14.879',1383.149
'0:14.883',1383.149
'0:14.887',1391.210
'0:14.891',1383.149
'0:14.895',1328.209
'0:14.898',1369.228
'0:14.902',1347.982
'0:14.906',1313.551
'0:14.910',1353.113
'0:14.914',1331.139
'0:14.918',1300.367
'0:14.922',1336.262
'0:14.926',1350.183
'0:14.930',1348.718
'0:14.934',1311.358
'0:14.938',1345.052
'0:14.941',1354.578
'0:14.945',1355.314
'0:14.949',1338.464
'0:14.953',1378.025
'0:14.957',1368.499
'0:14.961',1343.587
'0:14.965',1383.885
'0:14.969',1386.079
'0:14.973',1402.930
'0:14.977',1400.000
'0:14.980',1375.095
'0:14.984',1415.386
'0:14.988',1383.885
'0:14.992',1419.781
'0:14.996',1399.271
'0:15.000',1405.860
'0:15.004',1424.175
'0:15.008',1391.939
'0:15.012',1412.456
'0:15.016',1383.149
'0:15.020',1410.254
'0:15.023',1426.377
'0:15.027',1396.333
'0:15.031',1381.684
'0:15.035',1416.114
'0:15.039',1394.140
'0:15.043',1374.359
'0:15.047',1383.885
'0:15.051',1397.806
'0:15.055',1371.429
'0:15.059',1380.219
'0:15.063',1379.490
'0:15.066',1366.298
'0:15.070',1391.939
'0:15.074',1398.535
'0:15.078',1407.325
'0:15.082',1385.350
'0:15.086',1384.614
'0:15.090',1362.639
'0:15.094',1370.693
'0:15.098',1364.833
'0:15.102',1398.535
'0:15.105',1384.614
'0:15.109',1410.254
'0:15.113',1408.061
'0:15.117',1374.359
'0:15.121',1376.560
'0:15.125',1383.149
'0:15.129',1384.614
'0:15.133',1421.246
'0:15.137',1402.930
'0:15.141',1388.280
'0:15.145',1391.210
'0:15.148',1410.991
'0:15.152',1430.772
'0:15.156',1422.710
'0:15.160',1400.736
'0:15.164',1415.386
'0:15.168',1423.447
'0:15.172',1400.000
'0:15.176',1410.991
'0:15.180',1379.490
'0:15.184',1378.025
'0:15.188',1399.271
'0:15.191',1391.939
'0:15.195',1394.140
'0:15.199',1360.438
'0:15.203',1375.824
'0:15.207',1354.578
'0:15.211',1358.973
'0:15.215',1390.474
'0:15.219',1382.420
'0:15.223',1330.402
'0:15.227',1316.481
'0:15.230',1323.806
'0:15.234',1316.481
'0:15.238',1331.139
'0:15.242',1321.613
'0:15.246',1305.498
'0:15.250',1282.051
'0:15.254',1290.112
'0:15.258',1273.990
'0:15.262',1242.489
'0:15.266',1220.515
'0:15.270',1257.146
'0:15.273',1233.699
'0:15.277',1252.744
'0:15.281',1219.050
'0:15.285',1232.234
'0:15.289',1234.436
'0:15.293',1260.076
'0:15.297',1263.006
'0:15.301',1228.568
'0:15.305',1260.805
'0:15.309',1276.920
'0:15.313',1279.857
'0:15.316',1303.297
'0:15.320',1262.270
'0:15.324',1295.972
'0:15.328',1322.341
'0:15.332',1282.787
'0:15.336',1301.832
'0:15.340',1331.867
'0:15.344',1333.332
'0:15.348',1295.236
'0:15.352',1348.718
'0:15.355',1301.832
'0:15.359',1336.999
'0:15.363',1334.069
'0:15.367',1312.823
'0:15.371',1352.384
'0:15.375',1336.999
'0:15.379',1336.999
'0:15.383',1345.788
'0:15.387',1336.262
'0:15.391',1334.069
'0:15.395',1318.683
'0:15.398',1314.288
'0:15.402',1303.297
'0:15.406',1321.613
'0:15.410',1336.999
'0:15.414',1320.876
'0:15.418',1339.192
'0:15.422',1334.069
'0:15.426',1343.587
'0:15.430',1333.332
'0:15.434',1295.236
'0:15.438',1346.517
'0:15.441',1317.218
'0:15.445',1349.447
'0:15.449',1334.069
'0:15.453',1321.613
'0:15.457',1336.999
'0:15.461',1336.999
'0:15.465',1356.779
'0:15.469',1360.438
'0:15.473',1328.937
'0:15.477',1334.797
'0:15.480',1364.104
'0:15.484',1325.271
'0:15.488',1341.393
'0:15.492',1376.560
'0:15.496',1358.973
'0:15.500',1369.964
'0:15.504',1380.219
'0:15.508',1358.244
'0:15.512',1385.350
'0:15.516',1346.517
'0:15.520',1364.833
'0:15.523',1374.359
'0:15.527',1356.043
'0:15.531',1370.693
'0:15.535',1405.860
'0:15.539',1411.719
'0:15.543',1390.474
'0:15.547',1423.447
'0:15.551',1399.271
'0:15.555',1433.702
'0:15.559',1415.386
'0:15.563',1427.842
'0:15.566',1394.140
'0:15.570',1396.333
'0:15.574',1406.596
'0:15.578',1428.570
'0:15.582',1386.079
'0:15.586',1406.596
'0:15.590',1378.025
'0:15.594',1379.490
'0:15.598',1373.623
'0:15.602',1372.894
'0:15.605',1395.605
'0:15.609',1402.201
'0:15.613',1413.921
'0:15.617',1364.104
'0:15.621',1388.280
'0:15.625',1410.254
'0:15.629',1365.569
'0:15.633',1410.254
'0:15.637',1408.789
'0:15.641',1403.666
'0:15.645',1410.254
'0:15.648',1399.271
'0:15.652',1376.560
'0:15.656',1416.114
'0:15.660',1383.149
'0:15.664',1411.719
'0:15.668',1416.114
'0:15.672',1381.684
'0:15.676',1401.465
'0:15.680',1410.991
'0:15.684',1391.939
'0:15.688',1387.544
'0:15.691',1383.149
'0:15.695',1385.350
'0:15.699',1393.404
'0:15.703',1427.842
'0:15.707',1417.579
'0:15.711',1396.333
'0:15.715',1389.745
'0:15.719',1389.009
'0:15.723',1380.955
'0:15.727',1380.219
'0:15.730',1409.526
'0:15.734',1380.219
'0:15.738',1405.860
'0:15.742',1423.447
'0:15.746',1400.736
'0:15.750',1378.025
'0:15.754',1419.781
'0:15.758',1415.386
'0:15.762',1406.596
'0:15.766',1406.596
'0:15.770',1412.456
'0:15.773',1374.359
'0:15.777',1396.333
'0:15.781',1366.298
'0:15.785',1364.833
'0:15.789',1371.429
'0:15.793',1394.140
'0:15.797',1387.544
'0:15.801',1391.210
'0:15.805',1345.052
'0:15.809',1384.614
'0:15.813',1338.464
'0:15.816',1383.885
'0:15.820',1378.025
'0:15.824',1369.228
'0:15.828',1339.928
'0:15.832',1330.402
'0:15.836',1336.999
'0:15.840',1329.674
'0:15.844',1336.262
'0:15.848',1323.806
'0:15.852',1348.718
'0:15.855',1367.034
'0:15.859',1368.499
'0:15.863',1361.903
'0:15.867',1370.693
'0:15.871',1339.192
'0:15.875',1333.332
'0:15.879',1372.158
'0:15.883',1337.727
'0:15.887',1380.955
'0:15.891',1361.174
'0:15.895',1355.314
'0:15.898',1375.824
'0:15.902',1380.955
'0:15.906',1358.973
'0:15.910',1362.639
'0:15.914',1369.228
'0:15.918',1317.218
'0:15.922',1353.113
'0:15.926',1351.648
'0:15.930',1298.166
'0:15.934',1337.727
'0:15.938',1318.683
'0:15.941',1293.042
'0:15.945',1282.051
'0:15.949',1298.902
'0:15.953',1317.946
'0:15.957',1315.753
'0:15.961',1280.586
'0:15.965',1273.990
'0:15.969',1308.428
'0:15.973',1274.726
'0:15.977',1309.893
'0:15.980',1263.735
'0:15.984',1299.630
'0:15.988',1264.471
'0:15.992',1309.893
'0:15.996',1300.367
'0:16.000',1266.665
'0:16.004',1261.541
'0:16.008',1263.006
'0:16.012',1274.726
'0:16.016',1283.516
'0:16.020',1265.936
'0:16.023',1314.288
'0:16.027',1279.857
'0:16.031',1276.920
'0:16.035',1317.218
'0:16.039',1324.543
'0:16.043',1282.787
'0:16.047',1290.841
'0:16.051',1317.218
'0:16.055',1338.464
'0:16.059',1313.551
'0:16.063',1330.402
'0:16.066',1301.095
'0:16.070',1339.928
'0:16.074',1349.447
'0:16.078',1348.718
'0:16.082',1308.428
'0:16.086',1308.428
'0:16.090',1323.078
'0:16.094',1339.928
'0:16.098',1355.314
'0:16.102',1347.253
'0:16.105',1354.578
'0:16.109',1330.402
'0:16.113',1325.271
'0:16.117',1324.543
'0:16.121',1364.104
'0:16.125',1348.718
'0:16.129',1367.034
'0:16.133',1372.894
'0:16.137',1367.763
'0:16.141',1364.104
'0:16.145',1350.183
'0:16.148',1338.464
'0:16.152',1387.544
'0:16.156',1346.517
'0:16.160',1383.149
'0:16.164',1393.404
'0:16.168',1394.140
'0:16.172',1392.675
'0:16.176',1380.219
'0:16.180',1359.709
'0:16.184',1394.869
'0:16.188',1380.219
'0:16.191',1361.903
'0:16.195',1406.596
'0:16.199',1374.359
'0:16.203',1408.789
'0:16.207',1384.614
'0:16.211',1402.930
'0:16.215',1417.579
'0:16.219',1420.509
'0:16.223',1401.465
'0:16.227',1384.614
'0:16.230',1429.307
'0:16.234',1391.210
'0:16.238',1386.815
'0:16.242',1391.939
'0:16.246',1415.386
'0:16.250',1428.570
'0:16.254',1386.815
'0:16.258',1405.860
'0:16.262',1381.684
'0:16.266',1426.377
'0:16.270',1391.939
'0:16.273',1377.289
'0:16.277',1419.044
'0:16.281',1416.114
'0:16.285',1409.526
'0:16.289',1401.465
'0:16.293',1374.359
'0:16.297',1367.763
'0:16.301',1377.289
'0:16.305',1405.131
'0:16.309',1354.578
'0:16.313',1398.535
'0:16.316',1356.779
'0:16.320',1380.955
'0:16.324',1388.280
'0:16.328',1379.490
'0:16.332',1364.104
'0:16.336',1378.754
'0:16.340',1383.885
'0:16.344',1387.544
'0:16.348',1380.219
'0:16.352',1402.930
'0:16.355',1405.860
'0:16.359',1408.061
'0:16.363',1406.596
'0:16.367',1394.140
'0:16.371',1395.605
'0:16.375',1408.789
'0:16.379',1395.605
'0:16.383',1379.490
'0:16.387',1372.158
'0:16.391',1378.025
'0:16.395',1375.824
'0:16.398',1369.964
'0:16.402',1364.104
'0:16.406',1368.499
'0:16.410',1365.569
'0:16.414',1364.833
'0:16.418',1377.289
'0:16.422',1404.395
'0:16.426',1402.930
'0:16.430',1365.569
'0:16.434',1408.789
'0:16.438',1409.526
'0:16.441',1367.034
'0:16.445',1407.325
'0:16.449',1405.860
'0:16.453',1393.404
'0:16.457',1371.429
'0:16.461',1394.869
'0:16.465',1410.991
'0:16.469',1405.131
'0:16.473',1405.131
'0:16.477',1413.921
'0:16.480',1405.131
'0:16.484',1407.325
'0:16.488',1361.903
'0:16.492',1405.131
'0:16.496',1394.869
'0:16.500',1397.806
'0:16.504',1370.693
'0:16.508',1372.894
'0:16.512',1342.858
'0:16.516',1335.534
'0:16.520',1345.788
'0:16.523',1336.999
'0:16.527',1325.271
'0:16.531',1364.833
'0:16.535',1361.903
'0:16.539',1323.078
'0:16.543',1345.788
'0:16.547',1354.578
'0:16.551',1330.402
'0:16.555',1327.472
'0:16.559',1370.693
'0:16.563',1320.148
'0:16.566',1346.517
'0:16.570',1355.314
'0:16.574',1356.779
'0:16.578',1324.543
'0:16.582',1317.946
'0:16.586',1348.718
'0:16.590',1315.753
'0:16.594',1323.806
'0:16.598',1336.999
'0:16.602',1325.271
'0:16.605',1304.033
'0:16.609',1321.613
'0:16.613',1289.376
'0:16.617',1286.446
'0:16.621',1322.341
'0:16.625',1320.876
'0:16.629',1312.087
'0:16.633',1290.841
'0:16.637',1281.322
'0:16.641',1288.647
'0:16.645',1272.525
'0:16.648',1279.857
'0:16.652',1277.656
'0:16.656',1291.577
'0:16.660',1292.306
'0:16.664',1302.560
'0:16.668',1314.288
'0:16.672',1295.236
'0:16.676',1298.902
'0:16.680',1317.218
'0:16.684',1272.525
'0:16.688',1318.683
'0:16.691',1323.806
'0:16.695',1326.744
'0:16.699',1315.753
'0:16.703',1286.446
'0:16.707',1336.262
'0:16.711',1302.560
'0:16.715',1298.902
'0:16.719',1306.963
'0:16.723',1304.033
'0:16.727',1309.157
'0:16.730',1351.648
'0:16.734',1333.332
'0:16.738',1354.578
'0:16.742',1360.438
'0:16.746',1338.464
'0:16.750',1315.753
'0:16.754',1334.797
'0:16.758',1321.613
'0:16.762',1353.849
'0:16.766',1341.393
'0:16.770',1364.833
'0:16.773',1331.139
'0:16.777',1336.262
'0:16.781',1337.727
'0:16.785',1347.982
'0:16.789',1352.384
'0:16.793',1392.675
'0:16.797',1377.289
'0:16.801',1351.648
'0:16.805',1397.070
'0:16.809',1354.578
'0:16.813',1385.350
'0:16.816',1360.438
'0:16.820',1391.210
'0:16.824',1356.043
'0:16.828',1380.955
'0:16.832',1401.465
'0:16.836',1374.359
'0:16.840',1399.271
'0:16.844',1367.034
'0:16.848',1395.605
'0:16.852',1353.113
'0:16.855',1395.605
'0:16.859',1376.560
'0:16.863',1400.736
'0:16.867',1356.043
'0:16.871',1360.438
'0:16.875',1393.404
'0:16.879',1395.605
'0:16.883',1369.228
'0:16.887',1401.465
'0:16.891',1418.316
'0:16.895',1402.201
'0:16.898',1396.333
'0:16.902',1429.307
'0:16.906',1406.596
'0:16.910',1416.114
'0:16.914',1435.166
'0:16.918',1403.666
'0:16.922',1441.755
'0:16.926',1409.526
'0:16.930',1399.271
'0:16.934',1402.930
'0:16.938',1408.789
'0:16.941',1419.044
'0:16.945',1435.166
'0:16.949',1387.544
'0:16.953',1414.649
'0:16.957',1382.420
'0:16.961',1422.710
'0:16.965',1405.860
'0:16.969',1384.614
'0:16.973',1374.359
'0:16.977',1373.623
'0:16.980',1374.359
'0:16.984',1388.280
'0:16.988',1372.894
'0:16.992',1386.815
'0:16.996',1390.474
'0:17.000',1398.535
'0:17.004',1401.465
'0:17.008',1410.254
'0:17.012',1384.614
'0:17.016',1369.228
'0:17.020',1367.763
'0:17.023',1381.684
'0:17.027',1391.939
'0:17.031',1384.614
'0:17.035',1378.025
'0:17.039',1368.499
'0:17.043',1373.623
'0:17.047',1378.025
'0:17.051',1376.560
'0:17.055',1389.009
'0:17.059',1407.325
'0:17.063',1410.991
'0:17.066',1386.079
'0:17.070',1405.131
'0:17.074',1400.736
'0:17.078',1408.789
'0:17.082',1382.420
'0:17.086',1378.754
'0:17.090',1370.693
'0:17.094',1402.930
'0:17.098',1416.114
'0:17.102',1407.325
'0:17.105',1387.544
'0:17.109',1375.824
'0:17.113',1378.754
'0:17.117',1395.605
'0:17.121',1375.095
'0:17.125',1395.605
'0:17.129',1386.079
'0:17.133',1374.359
'0:17.137',1385.350
'0:17.141',1403.666
'0:17.145',1382.420
'0:17.148',1394.869
'0:17.152',1375.095
'0:17.156',1391.210
'0:17.160',1401.465
'0:17.164',1352.384
'0:17.168',1378.025
'0:17.172',1392.675
'0:17.176',1369.964
'0:17.180',1372.158
'0:17.184',1341.393
'0:17.188',1376.560
'0:17.191',1380.219
'0:17.195',1381.684
'0:17.199',1385.350
'0:17.203',1383.885
'0:17.207',1382.420
'0:17.211',1336.999
'0:17.215',1369.964
'0:17.219',1356.043
'0:17.223',1368.499
'0:17.227',1367.034
'0:17.230',1339.928
'0:17.234',1326.007
'0:17.238',1305.498
'0:17.242',1302.560
'0:17.246',1313.551
'0:17.250',1337.727
'0:17.254',1304.033
'0:17.258',1301.832
'0:17.262',1328.937
'0:17.266',1281.322
'0:17.270',1318.683
'0:17.273',1306.227
'0:17.277',1291.577
'0:17.281',1326.744
'0:17.285',1304.762
'0:17.289',1330.402
'0:17.293',1331.139
'0:17.297',1314.288
'0:17.301',1315.016
'0:17.305',1314.288
'0:17.309',1352.384
'0:17.313',1311.358
'0:17.316',1342.122
'0:17.320',1356.043
'0:17.324',1364.833
'0:17.328',1342.122
'0:17.332',1332.604
'0:17.336',1327.472
'0:17.340',1372.894
'0:17.344',1363.368
'0:17.348',1338.464
'0:17.352',1361.903
'0:17.355',1373.623
'0:17.359',1363.368
'0:17.363',1331.139
'0:17.367',1367.763
'0:17.371',1374.359
'0:17.375',1374.359
'0:17.379',1367.034
'0:17.383',1372.894
'0:17.387',1371.429
'0:17.391',1364.833
'0:17.395',1360.438
'0:17.398',1349.447
'0:17.402',1331.867
'0:17.406',1329.674
'0:17.410',1370.693
'0:17.414',1339.192
'0:17.418',1345.788
'0:17.422',1375.824
'0:17.426',1341.393
'0:17.430',1343.587
'0:17.434',1378.025
'0:17.438',1363.368
'0:17.441',1336.999
'0:17.445',1367.034
'0:17.449',1340.657
'0:17.453',1350.183
'0:17.457',1364.104
'0:17.461',1337.727
'0:17.465',1363.368
'0:17.469',1335.534
'0:17.473',1350.183
'0:17.477',1373.623
'0:17.480',1342.122
'0:17.484',1365.569
'0:17.488',1353.849
'0:17.492',1336.999
'0:17.496',1353.113
'0:17.500',1376.560
'0:17.504',1360.438
'0:17.508',1332.604
'0:17.512',1374.359
'0:17.516',1358.973
'0:17.520',1333.332
'0:17.523',1376.560
'0:17.527',1360.438
'0:17.531',1329.674
'0:17.535',1348.718
'0:17.539',1364.833
'0:17.543',1346.517
'0:17.547',1341.393
'0:17.551',1353.849
'0:17.555',1358.244
'0:17.559',1375.095
'0:17.563',1342.122
'0:17.566',1326.744
'0:17.570',1339.928
'0:17.574',1345.052
'0:17.578',1345.788
'0:17.582',1342.858
'0:17.586',1347.253
'0:17.590',1342.858
'0:17.594',1325.271
'0:17.598',1318.683
'0:17.602',1339.192
'0:17.605',1352.384
'0:17.609',1325.271
'0:17.613',1373.623
'0:17.617',1374.359
'0:17.621',1383.149
'0:17.625',1347.982
'0:17.629',1361.903
'0:17.633',1380.955
'0:17.637',1379.490
'0:17.641',1377.289
'0:17.645',1375.095
'0:17.648',1394.140
'0:17.652',1415.386
'0:17.656',1422.710
'0:17.660',1419.044
'0:17.664',1420.509
'0:17.668',1388.280
'0:17.672',1416.851
'0:17.676',1374.359
'0:17.680',1363.368
'0:17.684',1358.244
'0:17.688',1389.009
'0:17.691',1355.314
'0:17.695',1373.623
'0:17.699',1387.544
'0:17.703',1361.903
'0:17.707',1330.402
'0:17.711',1364.833
'0:17.715',1344.323
'0:17.719',1342.122
'0:17.723',1317.218
'0:17.727',1318.683
'0:17.730',1313.551
'0:17.734',1309.893
'0:17.738',1309.157
'0:17.742',1305.498
'0:17.746',1318.683
'0:17.750',1331.139
'0:17.754',1330.402
'0:17.758',1314.288
'0:17.762',1336.999
'0:17.766',1335.534
'0:17.770',1333.332
'0:17.773',1378.754
'0:17.777',1347.253
'0:17.781',1398.535
'0:17.785',1364.833
'0:17.789',1372.158
'0:17.793',1377.289
'0:17.797',1388.280
'0:17.801',1393.404
'0:17.805',1413.184
'0:17.809',1396.333
'0:17.813',1411.719
'0:17.816',1397.806
'0:17.820',1415.386
'0:17.824',1411.719
'0:17.828',1396.333
'0:17.832',1371.429
'0:17.836',1383.149
'0:17.840',1373.623
'0:17.844',1343.587
'0:17.848',1324.543
'0:17.852',1317.946
'0:17.855',1360.438
'0:17.859',1315.753
'0:17.863',1321.613
'0:17.867',1347.253
'0:17.871',1312.087
'0:17.875',1304.033
'0:17.879',1330.402
'0:17.883',1336.262
'0:17.887',1331.139
'0:17.891',1296.701
'0:17.895',1328.209
'0:17.898',1304.762
'0:17.902',1298.166
'0:17.906',1301.095
'0:17.910',1273.261
'0:17.914',1281.322
'0:17.918',1271.796
'0:17.922',1227.840
'0:17.926',1246.155
'0:17.930',1236.629
'0:17.934',1197.068
'0:17.938',1183.147
'0:17.941',1176.558
'0:17.945',1202.199
'0:17.949',1199.998
'0:17.953',1214.655
'0:17.957',1213.919
'0:17.961',1203.664
'0:17.965',1257.875
'0:17.969',1227.103
'0:17.973',1259.340
'0:17.977',1250.550
'0:17.980',1247.620
'0:17.984',1276.920
'0:17.988',1262.270
'0:17.992',1292.306
'0:17.996',1263.735
'0:18.000',1293.771
'0:18.004',1315.016
'0:18.008',1327.472
'0:18.012',1305.498
'0:18.016',1302.560
'0:18.020',1342.122
'0:18.023',1361.903
'0:18.027',1335.534
'0:18.031',1375.824
'0:18.035',1361.903
'0:18.039',1354.578
'0:18.043',1384.614
'0:18.047',1389.009
'0:18.051',1378.754
'0:18.055',1376.560
'0:18.059',1406.596
'0:18.063',1421.246
'0:18.066',1391.210
'0:18.070',1400.736
'0:18.074',1435.166
'0:18.078',1440.290
'0:18.082',1429.307
'0:18.086',1441.026
'0:18.090',1401.465
'0:18.094',1418.316
'0:18.098',1399.271
'0:18.102',1389.745
'0:18.105',1419.044
'0:18.109',1383.885
'0:18.113',1416.114
'0:18.117',1393.404
'0:18.121',1384.614
'0:18.125',1413.921
'0:18.129',1397.806
'0:18.133',1372.894
'0:18.137',1361.174
'0:18.141',1383.149
'0:18.145',1397.070
'0:18.148',1380.219
'0:18.152',1339.928
'0:18.156',1341.393
'0:18.160',1347.982
'0:18.164',1367.034
'0:18.168',1368.499
'0:18.172',1350.920
'0:18.176',1328.209
'0:18.180',1360.438
'0:18.184',1318.683
'0:18.188',1356.779
'0:18.191',1309.893
'0:18.195',1315.016
'0:18.199',1328.937
'0:18.203',1343.587
'0:18.207',1372.894
'0:18.211',1356.043
'0:18.215',1348.718
'0:18.219',1347.253
'0:18.223',1396.333
'0:18.227',1379.490
'0:18.230',1419.044
'0:18.234',1378.754
'0:18.238',1426.377
'0:18.242',1405.860
'0:18.246',1423.447
'0:18.250',1402.201
'0:18.254',1378.025
'0:18.258',1375.824
'0:18.262',1351.648
'0:18.266',1376.560
'0:18.270',1334.797
'0:18.273',1336.999
'0:18.277',1350.183
'0:18.281',1317.946
'0:18.285',1320.148
'0:18.289',1312.087
'0:18.293',1327.472
'0:18.297',1335.534
'0:18.301',1358.244
'0:18.305',1321.613
'0:18.309',1317.946
'0:18.313',1336.262
'0:18.316',1356.043
'0:18.320',1371.429
'0:18.324',1329.674
'0:18.328',1338.464
'0:18.332',1340.657
'0:18.336',1387.544
'0:18.340',1376.560
'0:18.344',1386.079
'0:18.348',1354.578
'0:18.352',1365.569
'0:18.355',1383.885
'0:18.359',1377.289
'0:18.363',1363.368
'0:18.367',1373.623
'0:18.371',1392.675
'0:18.375',1410.254
'0:18.379',1413.184
'0:18.383',1378.025
'0:18.387',1413.921
'0:18.391',1380.219
'0:18.395',1374.359
'0:18.398',1413.184
'0:18.402',1404.395
'0:18.406',1385.350
'0:18.410',1408.789
'0:18.414',1401.465
'0:18.418',1391.939
'0:18.422',1419.044
'0:18.426',1374.359
'0:18.430',1419.781
'0:18.434',1391.210
'0:18.438',1415.386
'0:18.441',1384.614
'0:18.445',1416.851
'0:18.449',1380.219
'0:18.453',1393.404
'0:18.457',1419.044
'0:18.461',1389.009
'0:18.465',1380.219
'0:18.469',1403.666
'0:18.473',1418.316
'0:18.477',1383.149
'0:18.480',1375.824
'0:18.484',1377.289
'0:18.488',1386.815
'0:18.492',1399.271
'0:18.496',1413.921
'0:18.500',1367.034
'0:18.504',1405.131
'0:18.508',1392.675
'0:18.512',1405.131
'0:18.516',1392.675
'0:18.520',1358.973
'0:18.523',1383.885
'0:18.527',1394.140
'0:18.531',1357.508
'0:18.535',1347.982
'0:18.539',1383.149
'0:18.543',1330.402
'0:18.547',1375.824
'0:18.551',1356.779
'0:18.555',1331.867
'0:18.559',1346.517
'0:18.563',1331.867
'0:18.566',1318.683
'0:18.570',1329.674
'0:18.574',1356.779
'0:18.578',1359.709
'0:18.582',1332.604
'0:18.586',1349.447
'0:18.590',1310.622
'0:18.594',1288.647
'0:18.598',1322.341
'0:18.602',1309.157
'0:18.605',1313.551
'0:18.609',1275.455
'0:18.613',1275.455
'0:18.617',1252.744
'0:18.621',1293.042
'0:18.625',1275.455
'0:18.629',1243.954
'0:18.633',1279.857
'0:18.637',1248.349
'0:18.641',1243.954
'0:18.645',1247.620
'0:18.648',1291.577
'0:18.652',1270.331
'0:18.656',1276.920
'0:18.660',1304.762
'0:18.664',1314.288
'0:18.668',1310.622
'0:18.672',1273.990
'0:18.676',1306.963
'0:18.680',1321.613
'0:18.684',1300.367
'0:18.688',1304.762
'0:18.691',1304.033
'0:18.695',1331.139
'0:18.699',1325.271
'0:18.703',1288.647
'0:18.707',1331.867
'0:18.711',1293.042
'0:18.715',1326.007
'0:18.719',1328.937
'0:18.723',1308.428
'0:18.727',1314.288
'0:18.730',1305.498
'0:18.734',1313.551
'0:18.738',1338.464
'0:18.742',1341.393
'0:18.746',1345.052
'0:18.750',1356.043
'0:18.754',1334.797
'0:18.758',1368.499
'0:18.762',1328.209
'0:18.766',1370.693
'0:18.770',1367.763
'0:18.773',1333.332
'0:18.777',1371.429
'0:18.781',1329.674
'0:18.785',1358.244
'0:18.789',1370.693
'0:18.793',1331.139
'0:18.797',1357.508
'0:18.801',1372.894
'0:18.805',1333.332
'0:18.809',1379.490
'0:18.813',1369.964
'0:18.816',1364.833
'0:18.820',1336.262
'0:18.824',1375.824
'0:18.828',1349.447
'0:18.832',1341.393
'0:18.836',1364.833
'0:18.840',1383.149
'0:18.844',1345.788
'0:18.848',1345.788
'0:18.852',1347.982
'0:18.855',1369.228
'0:18.859',1389.745
'0:18.863',1386.815
'0:18.867',1345.052
'0:18.871',1344.323
'0:18.875',1345.788
'0:18.879',1345.788
'0:18.883',1362.639
'0:18.887',1389.745
'0:18.891',1370.693
'0:18.895',1355.314
'0:18.898',1384.614
'0:18.902',1379.490
'0:18.906',1390.474
'0:18.910',1408.061
'0:18.914',1406.596
'0:18.918',1370.693
'0:18.922',1405.131
'0:18.926',1419.044
'0:18.930',1387.544
'0:18.934',1413.921
'0:18.938',1410.254
'0:18.941',1372.894
'0:18.945',1415.386
'0:18.949',1379.490
'0:18.953',1362.639
'0:18.957',1356.043
'0:18.961',1351.648
'0:18.965',1358.973
'0:18.969',1373.623
'0:18.973',1380.955
'0:18.977',1371.429
'0:18.980',1367.034
'0:18.984',1339.192
'0:18.988',1365.569
'0:18.992',1383.885
'0:18.996',1383.149
'0:19.000',1369.964
'0:19.004',1345.788
'0:19.008',1392.675
'0:19.012',1358.973
'0:19.016',1357.508
'0:19.020',1389.009
'0:19.023',1380.955
'0:19.027',1361.174
'0:19.031',1380.219
'0:19.035',1389.745
'0:19.039',1388.280
'0:19.043',1389.745
'0:19.047',1410.254
'0:19.051',1397.070
'0:19.055',1399.271
'0:19.059',1383.149
'0:19.063',1416.851
'0:19.066',1384.614
'0:19.070',1407.325
'0:19.074',1394.869
'0:19.078',1413.921
'0:19.082',1373.623
'0:19.086',1370.693
'0:19.090',1411.719
'0:19.094',1382.420
'0:19.098',1383.885
'0:19.102',1388.280
'0:19.105',1377.289
'0:19.109',1373.623
'0:19.113',1395.605
'0:19.117',1364.833
'0:19.121',1406.596
'0:19.125',1366.298
'0:19.129',1389.745
'0:19.133',1374.359
'0:19.137',1375.095
'0:19.141',1375.095
'0:19.145',1383.149
'0:19.148',1418.316
'0:19.152',1424.175
'0:19.156',1418.316
'0:19.160',1427.842
'0:19.164',1429.307
'0:19.168',1408.789
'0:19.172',1385.350
'0:19.176',1395.605
'0:19.180',1426.377
'0:19.184',1380.955
'0:19.188',1378.025
'0:19.191',1374.359
'0:19.195',1397.070
'0:19.199',1378.754
'0:19.203',1408.789
'0:19.207',1402.201
'0:19.211',1397.070
'0:19.215',1352.384
'0:19.219',1389.745
'0:19.223',1372.894
'0:19.227',1369.964
'0:19.230',1368.499
'0:19.234',1378.025
'0:19.238',1356.779
'0:19.242',1356.043
'0:19.246',1343.587
'0:19.250',1368.499
'0:19.254',1358.244
'0:19.258',1347.982
'0:19.262',1316.481
'0:19.266',1325.271
'0:19.270',1321.613
'0:19.273',1317.218
'0:19.277',1325.271
'0:19.281',1310.622
'0:19.285',1265.936
'0:19.289',1301.832
'0:19.293',1294.507
'0:19.297',1253.480
'0:19.301',1272.525
'0:19.305',1301.832
'0:19.309',1254.209
'0:19.313',1298.166
'0:19.316',1268.130
'0:19.320',1271.796
'0:19.324',1287.911
'0:19.328',1273.261
'0:19.332',1318.683
'0:19.336',1297.437
'0:19.340',1323.806
'0:19.344',1328.937
'0:19.348',1334.069
'0:19.352',1301.095
'0:19.355',1330.402
'0:19.359',1293.042
'0:19.363',1339.192
'0:19.367',1317.946
'0:19.371',1337.727
'0:19.375',1293.042
'0:19.379',1331.867
'0:19.383',1298.166
'0:19.387',1336.999
'0:19.391',1305.498
'0:19.395',1338.464
'0:19.398',1302.560
'0:19.402',1293.771
'0:19.406',1330.402
'0:19.410',1341.393
'0:19.414',1346.517
'0:19.418',1331.139
'0:19.422',1304.762
'0:19.426',1354.578
'0:19.430',1315.016
'0:19.434',1347.253
'0:19.438',1341.393
'0:19.441',1361.174
'0:19.445',1363.368
'0:19.449',1363.368
'0:19.453',1363.368
'0:19.457',1361.903
'0:19.461',1355.314
'0:19.465',1361.903
'0:19.469',1357.508
'0:19.473',1353.113
'0:19.477',1347.982
'0:19.480',1316.481
'0:19.484',1365.569
'0:19.488',1318.683
'0:19.492',1364.833
'0:19.496',1328.937
'0:19.500',1361.174
'0:19.504',1369.964
'0:19.508',1375.824
'0:19.512',1378.025
'0:19.516',1369.228
'0:19.520',1339.192
'0:19.523',1385.350
'0:19.527',1364.833
'0:19.531',1347.253
'0:19.535',1379.490
'0:19.539',1388.280
'0:19.543',1394.869
'0:19.547',1401.465
'0:19.551',1392.675
'0:19.555',1380.219
'0:19.559',1380.955
'0:19.563',1367.034
'0:19.566',1410.991
'0:19.570',1380.955
'0:19.574',1409.526
'0:19.578',1394.140
'0:19.582',1376.560
'0:19.586',1399.271
'0:19.590',1403.666
'0:19.594',1400.000
'0:19.598',1419.781
'0:19.602',1378.754
'0:19.605',1402.201
'0:19.609',1429.307
'0:19.613',1400.736
'0:19.617',1392.675
'0:19.621',1418.316
'0:19.625',1403.666
'0:19.629',1372.894
'0:19.633',1351.648
'0:19.637',1364.104
'0:19.641',1372.894
'0:19.645',1328.937
'0:19.648',1310.622
'0:19.652',1335.534
'0:19.656',1295.236
'0:19.660',1320.876
'0:19.664',1301.832
'0:19.668',1323.078
'0:19.672',1308.428
'0:19.676',1308.428
'0:19.680',1318.683
'0:19.684',1314.288
'0:19.688',1340.657
'0:19.691',1345.788
'0:19.695',1353.113
'0:19.699',1373.623
'0:19.703',1346.517
'0:19.707',1367.034
'0:19.711',1389.009
'0:19.715',1402.201
'0:19.719',1395.605
'0:19.723',1417.579
'0:19.727',1380.955
'0:19.730',1424.912
'0:19.734',1427.842
'0:19.738',1423.447
'0:19.742',1439.561
'0:19.746',1427.842
'0:19.750',1408.061
'0:19.754',1447.623
'0:19.758',1414.649
'0:19.762',1433.702
'0:19.766',1413.921
'0:19.770',1438.096
'0:19.773',1426.377
'0:19.777',1415.386
'0:19.781',1410.991
'0:19.785',1421.246
'0:19.789',1438.096
'0:19.793',1397.070
'0:19.797',1411.719
'0:19.801',1389.009
'0:19.805',1387.544
'0:19.809',1394.140
'0:19.813',1391.939
'0:19.816',1402.930
'0:19.820',1427.105
'0:19.824',1426.377
'0:19.828',1404.395
'0:19.832',1380.955
'0:19.836',1407.325
'0:19.840',1420.509
'0:19.844',1406.596
'0:19.848',1413.921
'0:19.852',1377.289
'0:19.855',1397.806
'0:19.859',1380.219
'0:19.863',1374.359
'0:19.867',1399.271
'0:19.871',1363.368
'0:19.875',1364.104
'0:19.879',1379.490
'0:19.883',1331.867
'0:19.887',1373.623
'0:19.891',1362.639
'0:19.895',1359.709
'0:19.898',1358.244
'0:19.902',1323.078
'0:19.906',1309.893
'0:19.910',1340.657
'0:19.914',1356.043
'0:19.918',1336.999
'0:19.922',1316.481
'0:19.926',1322.341
'0:19.930',1315.016
'0:19.934',1307.692
'0:19.938',1344.323
'0:19.941',1338.464
'0:19.945',1298.902
'0:19.949',1315.016
'0:19.953',1280.586
'0:19.957',1282.051
'0:19.961',1249.085
'0:19.965',1216.120
'0:19.969',1239.559
'0:19.973',1201.463
'0:19.977',1199.269
'0:19.980',1189.014
'0:19.984',1212.454
'0:19.988',1194.138
'0:19.992',1216.848
'0:19.996',1206.594
'0:20.000',1219.778
'0:20.004',1272.525
'0:20.008',1248.349
'0:20.012',1279.857
'0:20.016',1243.954
'0:20.020',1265.200
'0:20.023',1296.701
'0:20.027',1260.076
'0:20.031',1296.701
'0:20.035',1291.577
'0:20.039',1308.428
'0:20.043',1282.787
'0:20.047',1296.701
'0:20.051',1343.587
'0:20.055',1309.893
'0:20.059',1323.806
'0:20.063',1351.648
'0:20.066',1331.867
'0:20.070',1356.779
'0:20.074',1348.718
'0:20.078',1377.289
'0:20.082',1362.639
'0:20.086',1405.860
'0:20.090',1373.623
'0:20.094',1398.535
'0:20.098',1404.395
'0:20.102',1372.158
'0:20.105',1364.833
'0:20.109',1366.298
'0:20.113',1397.806
'0:20.117',1361.174
'0:20.121',1358.244
'0:20.125',1398.535
'0:20.129',1353.113
'0:20.133',1394.140
'0:20.137',1350.920
'0:20.141',1366.298
'0:20.145',1379.490
'0:20.148',1345.788
'0:20.152',1393.404
'0:20.156',1383.885
'0:20.160',1361.174
'0:20.164',1383.885
'0:20.168',1358.973
'0:20.172',1397.070
'0:20.176',1352.384
'0:20.180',1384.614
'0:20.184',1386.815
'0:20.188',1356.043
'0:20.191',1361.903
'0:20.195',1388.280
'0:20.199',1401.465
'0:20.203',1400.736
'0:20.207',1364.833
'0:20.211',1356.779
'0:20.215',1390.474
'0:20.219',1394.869
'0:20.223',1379.490
'0:20.227',1389.745
'0:20.230',1401.465
'0:20.234',1360.438
'0:20.238',1361.174
'0:20.242',1358.973
'0:20.246',1386.079
'0:20.250',1401.465
'0:20.254',1358.973
'0:20.258',1394.140
'0:20.262',1362.639
'0:20.266',1401.465
'0:20.270',1392.675
'0:20.273',1395.605
'0:20.277',1372.894
'0:20.281',1366.298
'0:20.285',1379.490
'0:20.289',1326.007
'0:20.293',1310.622
'0:20.297',1337.727
'0:20.301',1324.543
'0:20.305',1266.665
'0:20.309',1299.630
'0:20.313',1268.866
'0:20.316',1271.796
'0:20.320',1295.236
'0:20.324',1299.630
'0:20.328',1293.042
'0:20.332',1317.218
'0:20.336',1329.674
'0:20.340',1301.095
'0:20.344',1313.551
'0:20.348',1342.122
'0:20.352',1339.192
'0:20.355',1349.447
'0:20.359',1361.903
'0:20.363',1397.070
'0:20.367',1397.806
'0:20.371',1400.000
'0:20.375',1430.772
'0:20.379',1438.825
'0:20.383',1426.377
'0:20.387',1410.254
'0:20.391',1416.851
'0:20.395',1405.131
'0:20.398',1435.166
'0:20.402',1427.105
'0:20.406',1425.640
'0:20.410',1400.736
'0:20.414',1421.246
'0:20.418',1409.526
'0:20.422',1433.702
'0:20.426',1417.579
'0:20.430',1419.781
'0:20.434',1425.640
'0:20.438',1420.509
'0:20.441',1397.806
'0:20.445',1383.149
'0:20.449',1421.982
'0:20.453',1383.149
'0:20.457',1411.719
'0:20.461',1401.465
'0:20.465',1415.386
'0:20.469',1413.184
'0:20.473',1410.254
'0:20.477',1386.079
'0:20.480',1378.025
'0:20.484',1378.754
'0:20.488',1384.614
'0:20.492',1395.605
'0:20.496',1393.404
'0:20.500',1407.325
'0:20.504',1408.061
'0:20.508',1410.991
'0:20.512',1376.560
'0:20.516',1369.964
'0:20.520',1407.325
'0:20.523',1367.034
'0:20.527',1402.201
'0:20.531',1385.350
'0:20.535',1355.314
'0:20.539',1352.384
'0:20.543',1353.113
'0:20.547',1347.253
'0:20.551',1353.113
'0:20.555',1389.745
'0:20.559',1341.393
'0:20.563',1384.614
'0:20.566',1368.499
'0:20.570',1354.578
'0:20.574',1375.095
'0:20.578',1367.763
'0:20.582',1337.727
'0:20.586',1364.104
'0:20.590',1375.095
'0:20.594',1367.034
'0:20.598',1378.754
'0:20.602',1377.289
'0:20.605',1381.684
'0:20.609',1331.139
'0:20.613',1371.429
'0:20.617',1353.113
'0:20.621',1364.833
'0:20.625',1336.262
'0:20.629',1356.043
'0:20.633',1347.982
'0:20.637',1311.358
'0:20.641',1292.306
'0:20.645',1334.069
'0:20.648',1279.857
'0:20.652',1321.613
'0:20.656',1318.683
'0:20.660',1320.148
'0:20.664',1315.753
'0:20.668',1301.095
'0:20.672',1269.595
'0:20.676',1295.972
'0:20.680',1317.218
'0:20.684',1317.946
'0:20.688',1325.271
'0:20.691',1319.411
'0:20.695',1305.498
'0:20.699',1299.630
'0:20.703',1326.007
'0:20.707',1336.262
'0:20.711',1292.306
'0:20.715',1328.937
'0:20.719',1342.858
'0:20.723',1327.472
'0:20.727',1345.052
'0:20.730',1334.069
'0:20.734',1339.192
'0:20.738',1329.674
'0:20.742',1316.481
'0:20.746',1303.297
'0:20.750',1345.052
'0:20.754',1302.560
'0:20.758',1352.384
'0:20.762',1337.727
'0:20.766',1321.613
'0:20.770',1335.534
'0:20.773',1326.744
'0:20.777',1352.384
'0:20.781',1360.438
'0:20.785',1361.903
'0:20.789',1363.368
'0:20.793',1357.508
'0:20.797',1361.903
'0:20.801',1352.384
'0:20.805',1345.052
'0:20.809',1325.271
'0:20.813',1320.876
'0:20.816',1336.262
'0:20.820',1356.043
'0:20.824',1352.384
'0:20.828',1337.727
'0:20.832',1335.534
'0:20.836',1334.069
'0:20.840',1323.806
'0:20.844',1369.964
'0:20.848',1342.858
'0:20.852',1353.113
'0:20.855',1336.262
'0:20.859',1375.095
'0:20.863',1332.604
'0:20.867',1346.517
'0:20.871',1375.095
'0:20.875',1375.095
'0:20.879',1379.490
'0:20.883',1342.122
'0:20.887',1342.122
'0:20.891',1335.534
'0:20.895',1335.534
'0:20.898',1350.183
'0:20.902',1359.709
'0:20.906',1365.569
'0:20.910',1356.779
'0:20.914',1339.192
'0:20.918',1367.034
'0:20.922',1386.815
'0:20.926',1346.517
'0:20.930',1385.350
'0:20.934',1388.280
'0:20.938',1364.104
'0:20.941',1401.465
'0:20.945',1398.535
'0:20.949',1383.149
'0:20.953',1391.210
'0:20.957',1394.869
'0:20.961',1356.043
'0:20.965',1384.614
'0:20.969',1386.815
'0:20.973',1330.402
'0:20.977',1364.104
'0:20.980',1340.657
'0:20.984',1309.893
'0:20.988',1356.043
'0:20.992',1309.157
'0:20.996',1339.192
'0:21.000',1324.543
'0:21.004',1352.384
'0:21.008',1358.973
'0:21.012',1367.763
'0:21.016',1364.833
'0:21.020',1403.666
'0:21.023',1367.034
'0:21.027',1391.939
'0:21.031',1415.386
'0:21.035',1430.772
'0:21.039',1436.631
'0:21.043',1446.158
'0:21.047',1426.377
'0:21.051',1416.851
'0:21.055',1454.211
'0:21.059',1432.965
'0:21.063',1415.386
'0:21.066',1422.710
'0:21.070',1438.825
'0:21.074',1432.965
'0:21.078',1413.921
'0:21.082',1415.386
'0:21.086',1414.649
'0:21.090',1442.491
'0:21.094',1435.895
'0:21.098',1398.535
'0:21.102',1419.044
'0:21.105',1390.474
'0:21.109',1375.095
'0:21.113',1394.140
'0:21.117',1406.596
'0:21.121',1362.639
'0:21.125',1385.350
'0:21.129',1357.508
'0:21.133',1394.140
'0:21.137',1367.763
'0:21.141',1353.113
'0:21.145',1376.560
'0:21.148',1361.903
'0:21.152',1378.025
'0:21.156',1364.833
'0:21.160',1358.244
'0:21.164',1373.623
'0:21.168',1367.763
'0:21.172',1378.754
'0:21.176',1391.210
'0:21.180',1372.894
'0:21.184',1376.560
'0:21.188',1414.649
'0:21.191',1391.210
'0:21.195',1378.754
'0:21.199',1380.219
'0:21.203',1393.404
'0:21.207',1396.333
'0:21.211',1405.131
'0:21.215',1400.736
'0:21.219',1370.693
'0:21.223',1356.043
'0:21.227',1386.079
'0:21.230',1379.490
'0:21.234',1375.824
'0:21.238',1369.964
'0:21.242',1330.402
'0:21.246',1352.384
'0:21.250',1320.148
'0:21.254',1365.569
'0:21.258',1346.517
'0:21.262',1345.788
'0:21.266',1359.709
'0:21.270',1347.253
'0:21.273',1347.253
'0:21.277',1363.368
'0:21.281',1353.849
'0:21.285',1361.174
'0:21.289',1358.973
'0:21.293',1353.113
'0:21.297',1316.481
'0:21.301',1326.744
'0:21.305',1277.656
'0:21.309',1260.076
'0:21.313',1289.376
'0:21.316',1287.911
'0:21.320',1276.191
'0:21.324',1230.769
'0:21.328',1219.050
'0:21.332',1215.384
'0:21.336',1216.120
'0:21.340',1263.735
'0:21.344',1216.120
'0:21.348',1235.901
'0:21.352',1227.103
'0:21.355',1274.726
'0:21.359',1286.446
'0:21.363',1271.796
'0:21.367',1252.744
'0:21.371',1252.015
'0:21.375',1282.051
'0:21.379',1306.227
'0:21.383',1285.717
'0:21.387',1302.560
'0:21.391',1320.148
'0:21.395',1324.543
'0:21.398',1321.613
'0:21.402',1301.832
'0:21.406',1324.543
'0:21.410',1301.095
'0:21.414',1316.481
'0:21.418',1303.297
'0:21.422',1311.358
'0:21.426',1343.587
'0:21.430',1320.876
'0:21.434',1333.332
'0:21.438',1303.297
'0:21.441',1341.393
'0:21.445',1328.209
'0:21.449',1347.253
'0:21.453',1310.622
'0:21.457',1359.709
'0:21.461',1317.946
'0:21.465',1360.438
'0:21.469',1314.288
'0:21.473',1338.464
'0:21.477',1310.622
'0:21.480',1354.578
'0:21.484',1326.744
'0:21.488',1309.893
'0:21.492',1353.849
'0:21.496',1336.262
'0:21.500',1301.832
'0:21.504',1349.447
'0:21.508',1348.718
'0:21.512',1328.937
'0:21.516',1308.428
'0:21.520',1342.858
'0:21.523',1316.481
'0:21.527',1304.762
'0:21.531',1322.341
'0:21.535',1343.587
'0:21.539',1354.578
'0:21.543',1355.314
'0:21.547',1347.253
'0:21.551',1328.937
'0:21.555',1336.999
'0:21.559',1359.709
'0:21.563',1359.709
'0:21.566',1390.474
'0:21.570',1354.578
'0:21.574',1386.079
'0:21.578',1397.806
'0:21.582',1387.544
'0:21.586',1366.298
'0:21.590',1380.219
'0:21.594',1387.544
'0:21.598',1380.219
'0:21.602',1417.579
'0:21.605',1402.201
'0:21.609',1432.965
'0:21.613',1418.316
'0:21.617',1408.061
'0:21.621',1438.825
'0:21.625',1414.649
'0:21.629',1410.254
'0:21.633',1424.175
'0:21.637',1391.939
'0:21.641',1394.140
'0:21.645',1397.806
'0:21.648',1380.219
'0:21.652',1376.560
'0:21.656',1369.964
'0:21.660',1394.869
'0:21.664',1397.070
'0:21.668',1378.754
'0:21.672',1347.982
'0:21.676',1375.824
'0:21.680',1348.718
'0:21.684',1345.052
'0:21.688',1354.578
'0:21.691',1347.982
'0:21.695',1381.684
'0:21.699',1389.745
'0:21.703',1358.973
'0:21.707',1365.569
'0:21.711',1405.860
'0:21.715',1386.815
'0:21.719',1372.894
'0:21.723',1419.781
'0:21.727',1383.149
'0:21.730',1386.079
'0:21.734',1389.009
'0:21.738',1391.210
'0:21.742',1434.430
'0:21.746',1417.579
'0:21.750',1405.860
'0:21.754',1394.869
'0:21.758',1402.201
'0:21.762',1415.386
'0:21.766',1389.009
'0:21.770',1389.009
'0:21.773',1410.254
'0:21.777',1420.509
'0:21.781',1378.025
'0:21.785',1419.044
'0:21.789',1381.684
'0:21.793',1399.271
'0:21.797',1419.044
'0:21.801',1425.640
'0:21.805',1389.745
'0:21.809',1389.009
'0:21.813',1408.789
'0:21.816',1421.982
'0:21.820',1421.246
'0:21.824',1422.710
'0:21.828',1402.930
'0:21.832',1391.939
'0:21.836',1399.271
'0:21.840',1416.114
'0:21.844',1435.166
'0:21.848',1406.596
'0:21.852',1405.860
'0:21.855',1427.105
'0:21.859',1419.781
'0:21.863',1399.271
'0:21.867',1391.939
'0:21.871',1420.509
'0:21.875',1406.596
'0:21.879',1410.991
'0:21.883',1361.174
'0:21.887',1401.465
'0:21.891',1381.684
'0:21.895',1369.964
'0:21.898',1388.280
'0:21.902',1354.578
'0:21.906',1337.727
'0:21.910',1353.849
'0:21.914',1367.763
'0:21.918',1315.016
'0:21.922',1341.393
'0:21.926',1346.517
'0:21.930',1311.358
'0:21.934',1317.218
'0:21.938',1352.384
'0:21.941',1329.674
'0:21.945',1320.148
'0:21.949',1347.982
'0:21.953',1311.358
'0:21.957',1333.332
'0:21.961',1296.701
'0:21.965',1303.297
'0:21.969',1285.717
'0:21.973',1275.455
'0:21.977',1310.622
'0:21.980',1289.376
'0:21.984',1297.437
'0:21.988',1241.024
'0:21.992',1232.971
'0:21.996',1227.103
'0:22.000',1225.638
'0:22.004',1243.954
'0:22.008',1264.471
'0:22.012',1264.471
'0:22.016',1232.971
'0:22.020',1271.796
'0:22.023',1227.103
'0:22.027',1227.840
'0:22.031',1238.831
'0:22.035',1272.525
'0:22.039',1240.296
'0:22.043',1276.191
'0:22.047',1295.972
'0:22.051',1292.306
'0:22.055',1298.166
'0:22.059',1271.796
'0:22.063',1259.340
'0:22.066',1302.560
'0:22.070',1282.787
'0:22.074',1262.270
'0:22.078',1308.428
'0:22.082',1283.516
'0:22.086',1268.866
'0:22.090',1298.166
'0:22.094',1260.805
'0:22.098',1283.516
'0:22.102',1304.762
'0:22.105',1258.611
'0:22.109',1260.805
'0:22.113',1265.936
'0:22.117',1284.252
'0:22.121',1313.551
'0:22.125',1307.692
'0:22.129',1267.401
'0:22.133',1271.796
'0:22.137',1287.911
'0:22.141',1280.586
'0:22.145',1279.121
'0:22.148',1331.139
'0:22.152',1316.481
'0:22.156',1320.148
'0:22.160',1315.016
'0:22.164',1334.069
'0:22.168',1306.227
'0:22.172',1346.517
'0:22.176',1358.244
'0:22.180',1347.982
'0:22.184',1339.928
'0:22.188',1346.517
'0:22.191',1372.158
'0:22.195',1378.754
'0:22.199',1381.684
'0:22.203',1380.955
'0:22.207',1356.043
'0:22.211',1402.930
'0:22.215',1411.719
'0:22.219',1397.806
'0:22.223',1402.930
'0:22.227',1430.035
'0:22.230',1425.640
'0:22.234',1405.860
'0:22.238',1430.035
'0:22.242',1451.281
'0:22.246',1419.781
'0:22.250',1454.211
'0:22.254',1418.316
'0:22.258',1442.491
'0:22.262',1464.466
'0:22.266',1432.237
'0:22.270',1435.895
'0:22.273',1449.816
'0:22.277',1452.017
'0:22.281',1450.552
'0:22.285',1476.922
'0:22.289',1487.177
'0:22.293',1490.107
'0:22.297',1453.482
'0:22.301',1483.518
'0:22.305',1451.281
'0:22.309',1446.158
'0:22.313',1443.956
'0:22.316',1437.360
'0:22.320',1457.877
'0:22.324',1439.561
'0:22.328',1428.570
'0:22.332',1427.842
'0:22.336',1431.500
'0:22.340',1408.789
'0:22.344',1430.772
'0:22.348',1403.666
'0:22.352',1389.009
'0:22.355',1402.930
'0:22.359',1407.325
'0:22.363',1425.640
'0:22.367',1419.044
'0:22.371',1417.579
'0:22.375',1420.509
'0:22.379',1397.806
'0:22.383',1394.869
'0:22.387',1375.824
'0:22.391',1376.560
'0:22.395',1389.009
'0:22.398',1393.404
'0:22.402',1380.219
'0:22.406',1402.201
'0:22.410',1379.490
'0:22.414',1406.596
'0:22.418',1391.939
'0:22.422',1383.885
'0:22.426',1365.569
'0:22.430',1367.763
'0:22.434',1371.429
'0:22.438',1361.903
'0:22.441',1386.815
'0:22.445',1389.009
'0:22.449',1353.849
'0:22.453',1390.474
'0:22.457',1364.833
'0:22.461',1359.709
'0:22.465',1362.639
'0:22.469',1387.544
'0:22.473',1387.544
'0:22.477',1383.885
'0:22.480',1379.490
'0:22.484',1389.745
'0:22.488',1354.578
'0:22.492',1402.930
'0:22.496',1364.104
'0:22.500',1404.395
'0:22.504',1408.061
'0:22.508',1394.869
'0:22.512',1406.596
'0:22.516',1413.921
'0:22.520',1416.114
'0:22.523',1416.851
'0:22.527',1416.114
'0:22.531',1415.386
'0:22.535',1387.544
'0:22.539',1372.894
'0:22.543',1408.061
'0:22.547',1397.070
'0:22.551',1381.684
'0:22.555',1367.034
'0:22.559',1391.210
'0:22.563',1401.465
'0:22.566',1400.000
'0:22.570',1361.903
'0:22.574',1356.043
'0:22.578',1389.009
'0:22.582',1378.025
'0:22.586',1367.034
'0:22.590',1348.718
'0:22.594',1345.788
'0:22.598',1339.928
'0:22.602',1366.298
'0:22.605',1336.999
'0:22.609',1333.332
'0:22.613',1331.867
'0:22.617',1375.095
'0:22.621',1360.438
'0:22.625',1361.174
'0:22.629',1313.551
'0:22.633',1293.042
'0:22.637',1326.007
'0:22.641',1266.665
'0:22.645',1255.681
'0:22.648',1265.936
'0:22.652',1249.085
'0:22.656',1260.805
'0:22.660',1208.795
'0:22.664',1246.155
'0:22.668',1235.901
'0:22.672',1238.831
'0:22.676',1194.138
'0:22.680',1225.638
'0:22.684',1207.322
'0:22.688',1250.550
'0:22.691',1260.076
'0:22.695',1254.209
'0:22.699',1276.191
'0:22.703',1246.884
'0:22.707',1267.401
'0:22.711',1276.191
'0:22.715',1266.665
'0:22.719',1275.455
'0:22.723',1248.349
'0:22.727',1283.516
'0:22.730',1247.620
'0:22.734',1283.516
'0:22.738',1289.376
'0:22.742',1254.945
'0:22.746',1287.182
'0:22.750',1245.419
'0:22.754',1271.060
'0:22.758',1290.112
'0:22.762',1298.166
'0:22.766',1292.306
'0:22.770',1298.166
'0:22.773',1264.471
'0:22.777',1271.796
'0:22.781',1273.990
'0:22.785',1282.787
'0:22.789',1283.516
'0:22.793',1271.796
'0:22.797',1284.981
'0:22.801',1277.656
'0:22.805',1312.087
'0:22.809',1287.911
'0:22.813',1312.087
'0:22.816',1334.797
'0:22.820',1306.963
'0:22.824',1344.323
'0:22.828',1339.928
'0:22.832',1364.104
'0:22.836',1371.429
'0:22.840',1334.797
'0:22.844',1356.779
'0:22.848',1393.404
'0:22.852',1355.314
'0:22.855',1378.025
'0:22.859',1389.745
'0:22.863',1384.614
'0:22.867',1411.719
'0:22.871',1392.675
'0:22.875',1432.965
'0:22.879',1413.184
'0:22.883',1409.526
'0:22.887',1408.061
'0:22.891',1429.307
'0:22.895',1429.307
'0:22.898',1405.860
'0:22.902',1419.044
'0:22.906',1432.237
'0:22.910',1429.307
'0:22.914',1434.430
'0:22.918',1451.281
'0:22.922',1426.377
'0:22.926',1410.991
'0:22.930',1409.526
'0:22.934',1421.982
'0:22.938',1448.351
'0:22.941',1409.526
'0:22.945',1442.491
'0:22.949',1429.307
'0:22.953',1412.456
'0:22.957',1418.316
'0:22.961',1453.482
'0:22.965',1445.421
'0:22.969',1432.237
'0:22.973',1408.061
'0:22.977',1447.623
'0:22.980',1415.386
'0:22.984',1395.605
'0:22.988',1383.149
'0:22.992',1398.535
'0:22.996',1362.639
'0:23.000',1345.052
'0:23.004',1368.499
'0:23.008',1324.543
'0:23.012',1312.823
'0:23.016',1307.692
'0:23.020',1306.227
'0:23.023',1301.095
'0:23.027',1333.332
'0:23.031',1348.718
'0:23.035',1308.428
'0:23.039',1323.806
'0:23.043',1315.016
'0:23.047',1358.244
'0:23.051',1373.623
'0:23.055',1357.508
'0:23.059',1342.858
'0:23.063',1371.429
'0:23.066',1370.693
'0:23.070',1383.149
'0:23.074',1389.745
'0:23.078',1367.034
'0:23.082',1383.149
'0:23.086',1407.325
'0:23.090',1411.719
'0:23.094',1380.219
'0:23.098',1372.894
'0:23.102',1375.095
'0:23.105',1379.490
'0:23.109',1389.009
'0:23.113',1391.939
'0:23.117',1418.316
'0:23.121',1374.359
'0:23.125',1396.333
'0:23.129',1372.894
'0:23.133',1374.359
'0:23.137',1385.350
'0:23.141',1392.675
'0:23.145',1375.824
'0:23.148',1378.025
'0:23.152',1394.140
'0:23.156',1370.693
'0:23.160',1391.939
'0:23.164',1411.719
'0:23.168',1412.456
'0:23.172',1405.131
'0:23.176',1421.246
'0:23.180',1388.280
'0:23.184',1390.474
'0:23.188',1413.184
'0:23.191',1385.350
'0:23.195',1426.377
'0:23.199',1391.939
'0:23.203',1386.815
'0:23.207',1430.772
'0:23.211',1426.377
'0:23.215',1421.246
'0:23.219',1424.912
'0:23.223',1380.219
'0:23.227',1417.579
'0:23.230',1381.684
'0:23.234',1374.359
'0:23.238',1385.350
'0:23.242',1413.184
'0:23.246',1380.219
'0:23.250',1380.955
'0:23.254',1402.930
'0:23.258',1388.280
'0:23.262',1347.982
'0:23.266',1379.490
'0:23.270',1342.858
'0:23.273',1380.955
'0:23.277',1386.079
'0:23.281',1388.280
'0:23.285',1336.999
'0:23.289',1375.095
'0:23.293',1378.025
'0:23.297',1347.982
'0:23.301',1350.183
'0:23.305',1315.016
'0:23.309',1301.832
'0:23.313',1331.867
'0:23.316',1317.218
'0:23.320',1284.252
'0:23.324',1293.771
'0:23.328',1246.155
'0:23.332',1236.629
'0:23.336',1223.445
'0:23.340',1219.778
'0:23.344',1259.340
'0:23.348',1209.524
'0:23.352',1246.884
'0:23.355',1251.279
'0:23.359',1249.085
'0:23.363',1254.945
'0:23.367',1216.848
'0:23.371',1252.744
'0:23.375',1254.209
'0:23.379',1222.708
'0:23.383',1243.225
'0:23.387',1239.559
'0:23.391',1284.252
'0:23.395',1252.015
'0:23.398',1279.857
'0:23.402',1297.437
'0:23.406',1282.051
'0:23.410',1260.076
'0:23.414',1282.051
'0:23.418',1309.893
'0:23.422',1317.946
