'Elapsed time','wrist_ppg'
'hh:mm:ss.mmm','mV'
'0:00.000',1383.154
'0:00.004',1380.218
'0:00.008',1368.497
'0:00.012',1346.512
'0:00.016',1334.075
'0:00.020',1383.154
'0:00.023',1364.105
'0:00.027',1350.188
'0:00.031',1339.207
'0:00.035',1337.727
'0:00.039',1388.287
'0:00.043',1368.497
'0:00.047',1350.928
'0:00.051',1357.516
'0:00.055',1383.154
'0:00.059',1353.124
'0:00.063',1396.332
'0:00.066',1350.188
'0:00.070',1401.464
'0:00.074',1373.630
'0:00.078',1369.237
'0:00.082',1360.452
'0:00.086',1376.566
'0:00.090',1405.140
'0:00.094',1383.894
'0:00.098',1387.547
'0:00.102',1397.811
'0:00.105',1382.415
'0:00.109',1408.792
'0:00.113',1418.317
'0:00.117',1408.792
'0:00.121',1380.958
'0:00.125',1390.483
'0:00.129',1393.419
'0:00.133',1400.007
'0:00.137',1427.842
'0:00.141',1437.366
'0:00.145',1433.690
'0:00.148',1392.679
'0:00.152',1419.057
'0:00.156',1388.287
'0:00.160',1404.400
'0:00.164',1405.856
'0:00.168',1409.532
'0:00.172',1427.102
'0:00.176',1375.826
'0:00.180',1396.332
'0:00.184',1397.071
'0:00.188',1411.728
'0:00.191',1362.649
'0:00.195',1379.479
'0:00.199',1376.566
'0:00.203',1350.188
'0:00.207',1386.090
'0:00.211',1345.056
'0:00.215',1380.218
'0:00.219',1359.713
'0:00.223',1345.796
'0:00.227',1369.237
'0:00.230',1326.746
'0:00.234',1354.580
'0:00.238',1342.860
'0:00.242',1325.267
'0:00.246',1360.452
'0:00.250',1338.467
'0:00.254',1324.550
'0:00.258',1321.614
'0:00.262',1306.217
'0:00.266',1306.217
'0:00.270',1312.089
'0:00.273',1309.893
'0:00.277',1334.075
'0:00.281',1331.139
'0:00.285',1320.874
'0:00.289',1299.629
'0:00.293',1284.255
'0:00.297',1291.584
'0:00.301',1320.158
'0:00.305',1294.497
'0:00.309',1277.667
'0:00.313',1314.286
'0:00.316',1329.682
'0:00.320',1334.791
'0:00.324',1335.531
'0:00.328',1335.531
'0:00.332',1336.271
'0:00.336',1317.222
'0:00.340',1354.580
'0:00.344',1368.497
'0:00.348',1368.497
'0:00.352',1340.663
'0:00.355',1375.086
'0:00.359',1386.090
'0:00.363',1396.332
'0:00.367',1394.135
'0:00.371',1407.336
'0:00.375',1446.891
'0:00.379',1462.264
'0:00.383',1444.695
'0:00.387',1478.401
'0:00.391',1504.039
'0:00.395',1476.921
'0:00.398',1488.642
'0:00.402',1498.907
'0:00.406',1497.427
'0:00.410',1515.020
'0:00.414',1545.050
'0:00.418',1550.922
'0:00.422',1550.922
'0:00.426',1548.726
'0:00.430',1531.133
'0:00.434',1522.348
'0:00.438',1502.559
'0:00.441',1487.186
'0:00.445',1492.318
'0:00.449',1512.824
'0:00.453',1461.548
'0:00.457',1499.646
'0:00.461',1464.461
'0:00.465',1462.264
'0:00.469',1468.876
'0:00.473',1449.087
'0:00.477',1441.759
'0:00.480',1431.494
'0:00.484',1408.052
'0:00.488',1410.988
'0:00.492',1399.268
'0:00.496',1418.317
'0:00.500',1410.249
'0:00.504',1406.596
'0:00.508',1351.644
'0:00.512',1386.090
'0:00.516',1380.218
'0:00.520',1346.512
'0:00.523',1342.860
'0:00.527',1367.041
'0:00.531',1345.796
'0:00.535',1323.810
'0:00.539',1351.644
'0:00.543',1323.810
'0:00.547',1334.791
'0:00.551',1342.860
'0:00.555',1351.644
'0:00.559',1346.512
'0:00.563',1315.025
'0:00.566',1347.992
'0:00.570',1360.452
'0:00.574',1344.316
'0:00.578',1314.286
'0:00.582',1324.550
'0:00.586',1356.037
'0:00.590',1365.561
'0:00.594',1352.384
'0:00.598',1326.746
'0:00.602',1371.433
'0:00.605',1345.056
'0:00.609',1342.860
'0:00.613',1378.762
'0:00.617',1360.452
'0:00.621',1349.448
'0:00.625',1341.403
'0:00.629',1338.467
'0:00.633',1383.154
'0:00.637',1363.365
'0:00.641',1363.365
'0:00.645',1370.694
'0:00.648',1342.120
'0:00.652',1380.958
'0:00.656',1347.992
'0:00.660',1383.894
'0:00.664',1333.335
'0:00.668',1361.909
'0:00.672',1340.663
'0:00.676',1353.841
'0:00.680',1331.878
'0:00.684',1375.826
'0:00.688',1363.365
'0:00.691',1342.120
'0:00.695',1333.335
'0:00.699',1329.682
'0:00.703',1345.056
'0:00.707',1347.252
'0:00.711',1324.550
'0:00.715',1337.727
'0:00.719',1334.075
'0:00.723',1328.942
'0:00.727',1322.354
'0:00.730',1314.286
'0:00.734',1322.354
'0:00.738',1306.217
'0:00.742',1326.006
'0:00.746',1317.222
'0:00.750',1298.912
'0:00.754',1315.742
'0:00.758',1328.203
'0:00.762',1316.482
'0:00.766',1365.561
'0:00.770',1342.860
'0:00.773',1373.630
'0:00.777',1386.807
'0:00.781',1399.268
'0:00.785',1390.483
'0:00.789',1394.875
'0:00.793',1425.645
'0:00.797',1450.544
'0:00.801',1429.298
'0:00.805',1419.773
'0:00.809',1471.789
'0:00.813',1435.910
'0:00.816',1427.842
'0:00.820',1436.626
'0:00.824',1441.759
'0:00.828',1473.985
'0:00.832',1444.695
'0:00.836',1432.974
'0:00.840',1416.121
'0:00.844',1452.740
'0:00.848',1451.283
'0:00.852',1435.910
'0:00.855',1441.019
'0:00.859',1413.924
'0:00.863',1380.958
'0:00.867',1379.479
'0:00.871',1388.287
'0:00.875',1410.988
'0:00.879',1358.233
'0:00.883',1394.875
'0:00.887',1381.698
'0:00.891',1345.056
'0:00.895',1348.708
'0:00.898',1377.282
'0:00.902',1345.796
'0:00.906',1383.894
'0:00.910',1348.708
'0:00.914',1385.351
'0:00.918',1386.090
'0:00.922',1371.433
'0:00.926',1364.845
'0:00.930',1351.644
'0:00.934',1350.928
'0:00.938',1353.124
'0:00.941',1375.826
'0:00.945',1385.351
'0:00.949',1411.728
'0:00.953',1415.381
'0:00.957',1413.185
'0:00.961',1418.317
'0:00.965',1394.135
'0:00.969',1395.615
'0:00.973',1400.724
'0:00.977',1380.218
'0:00.980',1383.894
'0:00.984',1403.660
'0:00.988',1406.596
'0:00.992',1376.566
'0:00.996',1358.973
'0:01.000',1356.777
'0:01.004',1382.415
'0:01.008',1342.860
'0:01.012',1367.758
'0:01.016',1315.742
'0:01.020',1347.992
'0:01.023',1305.501
'0:01.027',1320.874
'0:01.031',1293.780
'0:01.035',1279.863
'0:01.039',1294.497
'0:01.043',1298.912
'0:01.047',1294.497
'0:01.051',1265.946
'0:01.055',1266.662
'0:01.059',1269.598
'0:01.063',1268.859
'0:01.066',1287.908
'0:01.070',1282.059
'0:01.074',1277.667
'0:01.078',1268.859
'0:01.082',1282.776
'0:01.086',1312.089
'0:01.090',1287.191
'0:01.094',1333.335
'0:01.098',1295.236
'0:01.102',1340.663
'0:01.105',1346.512
'0:01.109',1326.006
'0:01.113',1322.354
'0:01.117',1363.365
'0:01.121',1375.826
'0:01.125',1342.860
'0:01.129',1360.452
'0:01.133',1399.268
'0:01.137',1405.140
'0:01.141',1410.988
'0:01.145',1413.924
'0:01.148',1403.660
'0:01.152',1402.920
'0:01.156',1401.464
'0:01.160',1444.695
'0:01.164',1441.759
'0:01.168',1449.087
'0:01.172',1429.298
'0:01.176',1421.253
'0:01.180',1468.876
'0:01.184',1434.430
'0:01.188',1471.072
'0:01.191',1431.494
'0:01.195',1469.593
'0:01.199',1435.170
'0:01.203',1478.401
'0:01.207',1432.234
'0:01.211',1476.181
'0:01.215',1432.234
'0:01.219',1465.940
'0:01.223',1422.709
'0:01.227',1465.200
'0:01.230',1413.924
'0:01.234',1458.612
'0:01.238',1442.498
'0:01.242',1438.106
'0:01.246',1421.253
'0:01.250',1413.924
'0:01.254',1405.856
'0:01.258',1397.811
'0:01.262',1444.695
'0:01.266',1435.170
'0:01.270',1413.924
'0:01.273',1396.332
'0:01.277',1439.562
'0:01.281',1438.823
'0:01.285',1425.645
'0:01.289',1407.336
'0:01.293',1402.204
'0:01.297',1400.724
'0:01.301',1383.894
'0:01.305',1387.547
'0:01.309',1375.826
'0:01.313',1394.135
'0:01.316',1380.218
'0:01.320',1372.890
'0:01.324',1365.561
'0:01.328',1368.497
'0:01.332',1372.173
'0:01.336',1325.267
'0:01.340',1372.890
'0:01.344',1342.120
'0:01.348',1322.354
'0:01.352',1331.878
'0:01.355',1343.599
'0:01.359',1363.365
'0:01.363',1375.086
'0:01.367',1375.086
'0:01.371',1342.860
'0:01.375',1384.611
'0:01.379',1392.679
'0:01.383',1356.777
'0:01.387',1408.052
'0:01.391',1385.351
'0:01.395',1374.369
'0:01.398',1413.924
'0:01.402',1427.842
'0:01.406',1390.483
'0:01.410',1412.445
'0:01.414',1449.827
'0:01.418',1424.906
'0:01.422',1419.057
'0:01.426',1457.872
'0:01.430',1460.808
'0:01.434',1426.385
'0:01.438',1438.823
'0:01.441',1442.498
'0:01.445',1438.823
'0:01.449',1418.317
'0:01.453',1418.317
'0:01.457',1420.513
'0:01.461',1432.974
'0:01.465',1388.287
'0:01.469',1423.449
'0:01.473',1399.268
'0:01.477',1392.679
'0:01.480',1386.807
'0:01.484',1330.399
'0:01.488',1334.791
'0:01.492',1333.335
'0:01.496',1300.369
'0:01.500',1290.104
'0:01.504',1294.497
'0:01.508',1271.055
'0:01.512',1246.157
'0:01.516',1254.225
'0:01.520',1257.877
'0:01.523',1243.221
'0:01.527',1201.469
'0:01.531',1219.779
'0:01.535',1199.273
'0:01.539',1178.744
'0:01.543',1175.831
'0:01.547',1176.548
'0:01.551',1173.635
'0:01.555',1167.763
'0:01.559',1168.503
'0:01.563',1160.435
'0:01.566',1154.586
'0:01.570',1156.782
'0:01.574',1157.499
'0:01.578',1167.023
'0:01.582',1169.243
'0:01.586',1157.499
'0:01.590',1160.435
'0:01.594',1135.537
'0:01.598',1185.356
'0:01.602',1175.831
'0:01.605',1152.390
'0:01.609',1201.469
'0:01.613',1172.895
'0:01.617',1209.514
'0:01.621',1224.911
'0:01.625',1240.285
'0:01.629',1237.372
'0:01.633',1206.602
'0:01.637',1224.911
'0:01.641',1260.074
'0:01.645',1271.055
'0:01.648',1271.055
'0:01.652',1298.912
'0:01.656',1273.991
'0:01.660',1290.104
'0:01.664',1318.678
'0:01.668',1321.614
'0:01.672',1339.924
'0:01.676',1345.056
'0:01.680',1358.973
'0:01.684',1361.169
'0:01.688',1351.644
'0:01.691',1350.928
'0:01.695',1343.599
'0:01.699',1389.003
'0:01.703',1374.369
'0:01.707',1368.497
'0:01.711',1397.811
'0:01.715',1369.954
'0:01.719',1357.516
'0:01.723',1407.336
'0:01.727',1383.894
'0:01.730',1369.237
'0:01.734',1360.452
'0:01.738',1362.649
'0:01.742',1360.452
'0:01.746',1374.369
'0:01.750',1388.287
'0:01.754',1383.154
'0:01.758',1386.807
'0:01.762',1386.807
'0:01.766',1389.003
'0:01.770',1394.875
'0:01.773',1391.939
'0:01.777',1397.071
'0:01.781',1397.811
'0:01.785',1365.561
'0:01.789',1367.758
'0:01.793',1412.445
'0:01.797',1389.003
'0:01.801',1381.698
'0:01.805',1426.385
'0:01.809',1404.400
'0:01.813',1416.860
'0:01.816',1416.121
'0:01.820',1400.724
'0:01.824',1390.483
'0:01.828',1433.690
'0:01.832',1408.052
'0:01.836',1388.287
'0:01.840',1391.939
'0:01.844',1398.528
'0:01.848',1417.577
'0:01.852',1397.071
'0:01.855',1409.532
'0:01.859',1421.253
'0:01.863',1416.860
'0:01.867',1414.664
'0:01.871',1393.419
'0:01.875',1361.909
'0:01.879',1385.351
'0:01.883',1390.483
'0:01.887',1399.268
'0:01.891',1364.105
'0:01.895',1385.351
'0:01.898',1378.762
'0:01.902',1358.973
'0:01.906',1353.841
'0:01.910',1354.580
'0:01.914',1372.173
'0:01.918',1361.909
'0:01.922',1364.845
'0:01.926',1395.615
'0:01.930',1402.920
'0:01.934',1416.121
'0:01.938',1403.660
'0:01.941',1426.385
'0:01.945',1406.596
'0:01.949',1397.811
'0:01.953',1436.626
'0:01.957',1419.773
'0:01.961',1423.449
'0:01.965',1424.166
'0:01.969',1440.302
'0:01.973',1471.789
'0:01.977',1454.936
'0:01.980',1440.302
'0:01.984',1443.955
'0:01.988',1453.480
'0:01.992',1456.415
'0:01.996',1474.725
'0:02.000',1482.053
'0:02.004',1488.642
'0:02.008',1491.578
'0:02.012',1490.838
'0:02.016',1460.068
'0:02.020',1487.902
'0:02.023',1478.401
'0:02.027',1479.117
'0:02.031',1489.382
'0:02.035',1446.891
'0:02.039',1482.793
'0:02.043',1427.842
'0:02.047',1469.593
'0:02.051',1435.170
'0:02.055',1438.823
'0:02.059',1429.298
'0:02.063',1424.166
'0:02.066',1431.494
'0:02.070',1435.170
'0:02.074',1418.317
'0:02.078',1396.332
'0:02.082',1379.479
'0:02.086',1378.022
'0:02.090',1391.199
'0:02.094',1384.611
'0:02.098',1369.954
'0:02.102',1367.758
'0:02.105',1371.433
'0:02.109',1386.807
'0:02.113',1408.052
'0:02.117',1363.365
'0:02.121',1361.909
'0:02.125',1366.301
'0:02.129',1383.154
'0:02.133',1383.154
'0:02.137',1400.007
'0:02.141',1388.287
'0:02.145',1363.365
'0:02.148',1358.973
'0:02.152',1358.973
'0:02.156',1364.105
'0:02.160',1358.233
'0:02.164',1367.041
'0:02.168',1370.694
'0:02.172',1378.762
'0:02.176',1383.154
'0:02.180',1401.464
'0:02.184',1386.090
'0:02.188',1405.140
'0:02.191',1410.249
'0:02.195',1408.792
'0:02.199',1408.792
'0:02.203',1400.007
'0:02.207',1412.445
'0:02.211',1415.381
'0:02.215',1372.890
'0:02.219',1415.381
'0:02.223',1408.052
'0:02.227',1392.679
'0:02.230',1383.154
'0:02.234',1375.086
'0:02.238',1376.566
'0:02.242',1381.698
'0:02.246',1408.052
'0:02.250',1405.856
'0:02.254',1402.920
'0:02.258',1406.596
'0:02.262',1402.204
'0:02.266',1405.140
'0:02.270',1361.909
'0:02.273',1359.713
'0:02.277',1367.041
'0:02.281',1409.532
'0:02.285',1393.419
'0:02.289',1411.728
'0:02.293',1412.445
'0:02.297',1406.596
'0:02.301',1408.792
'0:02.305',1410.249
'0:02.309',1388.287
'0:02.313',1403.660
'0:02.316',1386.090
'0:02.320',1397.071
'0:02.324',1391.199
'0:02.328',1384.611
'0:02.332',1394.875
'0:02.336',1389.003
'0:02.340',1400.007
'0:02.344',1392.679
'0:02.348',1397.811
'0:02.352',1389.743
'0:02.355',1381.698
'0:02.359',1347.992
'0:02.363',1344.316
'0:02.367',1353.841
'0:02.371',1354.580
'0:02.375',1353.841
'0:02.379',1399.268
'0:02.383',1402.204
'0:02.387',1383.894
'0:02.391',1361.909
'0:02.395',1410.249
'0:02.398',1396.332
'0:02.402',1394.875
'0:02.406',1391.199
'0:02.410',1395.615
'0:02.414',1433.690
'0:02.418',1400.007
'0:02.422',1434.430
'0:02.426',1422.709
'0:02.430',1402.920
'0:02.434',1438.823
'0:02.438',1444.695
'0:02.441',1437.366
'0:02.445',1419.773
'0:02.449',1449.827
'0:02.453',1471.789
'0:02.457',1427.842
'0:02.461',1442.498
'0:02.465',1472.529
'0:02.469',1446.151
'0:02.473',1443.955
'0:02.477',1441.019
'0:02.480',1446.891
'0:02.484',1441.019
'0:02.488',1468.136
'0:02.492',1481.314
'0:02.496',1452.023
'0:02.500',1432.234
'0:02.504',1460.068
'0:02.508',1431.494
'0:02.512',1426.385
'0:02.516',1411.728
'0:02.520',1402.204
'0:02.523',1353.841
'0:02.527',1378.022
'0:02.531',1328.203
'0:02.535',1302.565
'0:02.539',1291.584
'0:02.543',1304.761
'0:02.547',1260.074
'0:02.551',1266.662
'0:02.555',1243.221
'0:02.559',1225.651
'0:02.563',1219.779
'0:02.566',1208.058
'0:02.570',1161.914
'0:02.574',1163.371
'0:02.578',1126.752
'0:02.582',1134.057
'0:02.586',1158.978
'0:02.590',1117.227
'0:02.594',1148.714
'0:02.598',1120.880
'0:02.602',1136.993
'0:02.605',1145.061
'0:02.609',1117.227
'0:02.613',1134.797
'0:02.617',1153.106
'0:02.621',1120.140
'0:02.625',1157.499
'0:02.629',1173.635
'0:02.633',1176.548
'0:02.637',1140.669
'0:02.641',1161.914
'0:02.645',1175.092
'0:02.648',1191.205
'0:02.652',1180.224
'0:02.656',1238.088
'0:02.660',1224.171
'0:02.664',1208.798
'0:02.668',1258.617
'0:02.672',1258.617
'0:02.676',1250.549
'0:02.680',1272.534
'0:02.684',1292.300
'0:02.688',1265.946
'0:02.691',1318.678
'0:02.695',1282.776
'0:02.699',1335.531
'0:02.703',1315.742
'0:02.707',1346.512
'0:02.711',1308.437
'0:02.715',1347.992
'0:02.719',1353.124
'0:02.723',1343.599
'0:02.727',1320.874
'0:02.730',1350.188
'0:02.734',1370.694
'0:02.738',1331.878
'0:02.742',1378.022
'0:02.746',1359.713
'0:02.750',1333.335
'0:02.754',1335.531
'0:02.758',1343.599
'0:02.762',1369.954
'0:02.766',1390.483
'0:02.770',1357.516
'0:02.773',1388.287
'0:02.777',1402.204
'0:02.781',1367.758
'0:02.785',1397.811
'0:02.789',1375.086
'0:02.793',1375.086
'0:02.797',1391.939
'0:02.801',1387.547
'0:02.805',1369.237
'0:02.809',1386.807
'0:02.813',1391.939
'0:02.816',1381.698
'0:02.820',1372.890
'0:02.824',1380.958
'0:02.828',1402.920
'0:02.832',1408.052
'0:02.836',1406.596
'0:02.840',1376.566
'0:02.844',1361.169
'0:02.848',1394.135
'0:02.852',1406.596
'0:02.855',1400.724
'0:02.859',1391.939
'0:02.863',1378.022
'0:02.867',1364.105
'0:02.871',1353.124
'0:02.875',1351.644
'0:02.879',1391.199
'0:02.883',1397.811
'0:02.887',1347.252
'0:02.891',1378.762
'0:02.895',1394.135
'0:02.898',1358.973
'0:02.902',1348.708
'0:02.906',1359.713
'0:02.910',1369.237
'0:02.914',1386.807
'0:02.918',1369.237
'0:02.922',1345.796
'0:02.926',1359.713
'0:02.930',1359.713
'0:02.934',1382.415
'0:02.938',1349.448
'0:02.941',1351.644
'0:02.945',1344.316
'0:02.949',1346.512
'0:02.953',1353.841
'0:02.957',1353.841
'0:02.961',1395.615
'0:02.965',1375.826
'0:02.969',1383.154
'0:02.973',1405.140
'0:02.977',1419.057
'0:02.980',1416.121
'0:02.984',1425.645
'0:02.988',1420.513
'0:02.992',1422.709
'0:02.996',1432.974
'0:03.000',1413.924
'0:03.004',1408.792
'0:03.008',1404.400
'0:03.012',1445.411
'0:03.016',1453.480
'0:03.020',1425.645
'0:03.023',1430.778
'0:03.027',1457.872
'0:03.031',1447.631
'0:03.035',1445.411
'0:03.039',1468.876
'0:03.043',1443.955
'0:03.047',1430.038
'0:03.051',1468.876
'0:03.055',1457.155
'0:03.059',1438.823
'0:03.063',1432.974
'0:03.066',1457.872
'0:03.070',1433.690
'0:03.074',1412.445
'0:03.078',1405.140
'0:03.082',1397.811
'0:03.086',1421.970
'0:03.090',1416.860
'0:03.094',1429.298
'0:03.098',1423.449
'0:03.102',1389.003
'0:03.105',1368.497
'0:03.109',1383.154
'0:03.113',1399.268
'0:03.117',1346.512
'0:03.121',1386.807
'0:03.125',1361.909
'0:03.129',1350.188
'0:03.133',1339.207
'0:03.137',1337.727
'0:03.141',1342.860
'0:03.145',1330.399
'0:03.148',1347.252
'0:03.152',1334.791
'0:03.156',1322.354
'0:03.160',1323.070
'0:03.164',1318.678
'0:03.168',1330.399
'0:03.172',1358.233
'0:03.176',1342.120
'0:03.180',1337.727
'0:03.184',1314.286
'0:03.188',1339.207
'0:03.191',1368.497
'0:03.195',1349.448
'0:03.199',1348.708
'0:03.203',1332.595
'0:03.207',1345.056
'0:03.211',1378.762
'0:03.215',1372.890
'0:03.219',1356.037
'0:03.223',1391.939
'0:03.227',1365.561
'0:03.230',1396.332
'0:03.234',1383.894
'0:03.238',1414.664
'0:03.242',1373.630
'0:03.246',1418.317
'0:03.250',1375.086
'0:03.254',1421.970
'0:03.258',1402.204
'0:03.262',1410.988
'0:03.266',1377.282
'0:03.270',1374.369
'0:03.273',1419.773
'0:03.277',1372.173
'0:03.281',1419.773
'0:03.285',1415.381
'0:03.289',1400.007
'0:03.293',1367.758
'0:03.297',1383.894
'0:03.301',1375.826
'0:03.305',1387.547
'0:03.309',1378.022
'0:03.313',1380.218
'0:03.316',1367.758
'0:03.320',1364.845
'0:03.324',1393.419
'0:03.328',1380.958
'0:03.332',1353.841
'0:03.336',1396.332
'0:03.340',1369.954
'0:03.344',1396.332
'0:03.348',1369.237
'0:03.352',1380.958
'0:03.355',1388.287
'0:03.359',1371.433
'0:03.363',1391.199
'0:03.367',1352.384
'0:03.371',1386.090
'0:03.375',1341.403
'0:03.379',1378.762
'0:03.383',1336.988
'0:03.387',1379.479
'0:03.391',1339.924
'0:03.395',1372.173
'0:03.398',1321.614
'0:03.402',1361.909
'0:03.406',1319.418
'0:03.410',1334.075
'0:03.414',1358.973
'0:03.418',1314.286
'0:03.422',1342.860
'0:03.426',1348.708
'0:03.430',1334.075
'0:03.434',1309.893
'0:03.438',1358.973
'0:03.441',1338.467
'0:03.445',1358.973
'0:03.449',1344.316
'0:03.453',1349.448
'0:03.457',1353.841
'0:03.461',1394.875
'0:03.465',1377.282
'0:03.469',1380.958
'0:03.473',1374.369
'0:03.477',1411.728
'0:03.480',1430.038
'0:03.484',1443.955
'0:03.488',1419.773
'0:03.492',1471.789
'0:03.496',1469.593
'0:03.500',1446.151
'0:03.504',1454.936
'0:03.508',1476.921
'0:03.512',1481.314
'0:03.516',1482.053
'0:03.520',1526.001
'0:03.523',1532.613
'0:03.527',1495.971
'0:03.531',1495.971
'0:03.535',1485.706
'0:03.539',1482.793
'0:03.543',1484.989
'0:03.547',1487.186
'0:03.551',1473.985
'0:03.555',1460.808
'0:03.559',1484.989
'0:03.563',1443.955
'0:03.566',1457.872
'0:03.570',1400.007
'0:03.574',1437.366
'0:03.578',1423.449
'0:03.582',1406.596
'0:03.586',1394.135
'0:03.590',1338.467
'0:03.594',1358.973
'0:03.598',1309.893
'0:03.602',1331.139
'0:03.605',1336.988
'0:03.609',1326.746
'0:03.613',1315.025
'0:03.617',1262.270
'0:03.621',1256.421
'0:03.625',1235.892
'0:03.629',1240.285
'0:03.633',1265.206
'0:03.637',1224.911
'0:03.641',1223.455
'0:03.645',1222.715
'0:03.648',1221.235
'0:03.652',1201.469
'0:03.656',1193.401
'0:03.660',1222.715
'0:03.664',1189.749
'0:03.668',1230.043
'0:03.672',1179.484
'0:03.676',1231.500
'0:03.680',1222.715
'0:03.684',1197.077
'0:03.688',1186.073
'0:03.691',1227.107
'0:03.695',1186.073
'0:03.699',1202.209
'0:03.703',1236.632
'0:03.707',1189.009
'0:03.711',1240.285
'0:03.715',1200.730
'0:03.719',1246.896
'0:03.723',1208.058
'0:03.727',1247.613
'0:03.730',1221.235
'0:03.734',1230.043
'0:03.738',1268.142
'0:03.742',1224.171
'0:03.746',1253.485
'0:03.750',1286.451
'0:03.754',1244.700
'0:03.758',1256.421
'0:03.762',1272.534
'0:03.766',1264.466
'0:03.770',1282.776
'0:03.773',1281.319
'0:03.777',1296.716
'0:03.781',1331.139
'0:03.785',1311.350
'0:03.789',1343.599
'0:03.793',1339.924
'0:03.797',1328.203
'0:03.801',1380.958
'0:03.805',1361.169
'0:03.809',1385.351
'0:03.813',1380.218
'0:03.816',1361.169
'0:03.820',1370.694
'0:03.824',1374.369
'0:03.828',1375.086
'0:03.832',1407.336
'0:03.836',1430.778
'0:03.840',1410.988
'0:03.844',1416.121
'0:03.848',1407.336
'0:03.852',1394.875
'0:03.855',1443.955
'0:03.859',1426.385
'0:03.863',1402.920
'0:03.867',1409.532
'0:03.871',1430.778
'0:03.875',1441.019
'0:03.879',1414.664
'0:03.883',1405.856
'0:03.887',1401.464
'0:03.891',1403.660
'0:03.895',1417.577
'0:03.898',1399.268
'0:03.902',1399.268
'0:03.906',1422.709
'0:03.910',1443.215
'0:03.914',1437.366
'0:03.918',1436.626
'0:03.922',1434.430
'0:03.926',1432.974
'0:03.930',1428.581
'0:03.934',1430.778
'0:03.938',1414.664
'0:03.941',1387.547
'0:03.945',1400.007
'0:03.949',1427.102
'0:03.953',1417.577
'0:03.957',1402.204
'0:03.961',1395.615
'0:03.965',1394.875
'0:03.969',1391.939
'0:03.973',1393.419
'0:03.977',1396.332
'0:03.980',1408.052
'0:03.984',1403.660
'0:03.988',1421.970
'0:03.992',1380.958
'0:03.996',1398.528
'0:04.000',1396.332
'0:04.004',1429.298
'0:04.008',1427.842
'0:04.012',1423.449
'0:04.016',1430.038
'0:04.020',1435.170
'0:04.023',1435.910
'0:04.027',1438.823
'0:04.031',1449.827
'0:04.035',1447.631
'0:04.039',1450.544
'0:04.043',1430.778
'0:04.047',1421.970
'0:04.051',1424.906
'0:04.055',1468.876
'0:04.059',1447.631
'0:04.063',1424.906
'0:04.066',1444.695
'0:04.070',1473.985
'0:04.074',1446.151
'0:04.078',1430.038
'0:04.082',1475.465
'0:04.086',1444.695
'0:04.090',1443.955
'0:04.094',1449.087
'0:04.098',1444.695
'0:04.102',1448.347
'0:04.105',1413.924
'0:04.109',1405.140
'0:04.113',1435.170
'0:04.117',1391.939
'0:04.121',1403.660
'0:04.125',1380.958
'0:04.129',1366.301
'0:04.133',1392.679
'0:04.137',1395.615
'0:04.141',1389.743
'0:04.145',1378.022
'0:04.148',1345.056
'0:04.152',1317.961
'0:04.156',1361.169
'0:04.160',1340.663
'0:04.164',1300.369
'0:04.168',1333.335
'0:04.172',1330.399
'0:04.176',1301.825
'0:04.180',1294.497
'0:04.184',1293.780
'0:04.188',1304.021
'0:04.191',1301.825
'0:04.195',1320.158
'0:04.199',1318.678
'0:04.203',1316.482
'0:04.207',1308.437
'0:04.211',1304.021
'0:04.215',1296.716
'0:04.219',1334.791
'0:04.223',1346.512
'0:04.227',1347.252
'0:04.230',1339.207
'0:04.234',1314.286
'0:04.238',1321.614
'0:04.242',1340.663
'0:04.246',1323.810
'0:04.250',1334.791
'0:04.254',1356.037
'0:04.258',1340.663
'0:04.262',1323.810
'0:04.266',1370.694
'0:04.270',1347.252
'0:04.273',1323.070
'0:04.277',1349.448
'0:04.281',1361.169
'0:04.285',1332.595
'0:04.289',1374.369
'0:04.293',1346.512
'0:04.297',1325.267
'0:04.301',1326.746
'0:04.305',1373.630
'0:04.309',1350.188
'0:04.313',1352.384
'0:04.316',1342.860
'0:04.320',1345.056
'0:04.324',1365.561
'0:04.328',1324.550
'0:04.332',1359.713
'0:04.336',1355.320
'0:04.340',1365.561
'0:04.344',1350.928
'0:04.348',1339.207
'0:04.352',1361.169
'0:04.355',1326.746
'0:04.359',1343.599
'0:04.363',1376.566
'0:04.367',1344.316
'0:04.371',1379.479
'0:04.375',1356.037
'0:04.379',1356.777
'0:04.383',1371.433
'0:04.387',1337.727
'0:04.391',1380.218
'0:04.395',1341.403
'0:04.398',1378.762
'0:04.402',1367.041
'0:04.406',1352.384
'0:04.410',1388.287
'0:04.414',1390.483
'0:04.418',1390.483
'0:04.422',1385.351
'0:04.426',1360.452
'0:04.430',1347.992
'0:04.434',1342.860
'0:04.438',1358.973
'0:04.441',1378.762
'0:04.445',1353.124
'0:04.449',1323.070
'0:04.453',1342.120
'0:04.457',1364.845
'0:04.461',1348.708
'0:04.465',1313.546
'0:04.469',1346.512
'0:04.473',1317.961
'0:04.477',1351.644
'0:04.480',1363.365
'0:04.484',1322.354
'0:04.488',1339.924
'0:04.492',1369.237
'0:04.496',1369.954
'0:04.500',1368.497
'0:04.504',1370.694
'0:04.508',1381.698
'0:04.512',1379.479
'0:04.516',1382.415
'0:04.520',1438.823
'0:04.523',1422.709
'0:04.527',1447.631
'0:04.531',1466.657
'0:04.535',1432.234
'0:04.539',1473.269
'0:04.543',1440.302
'0:04.547',1438.106
'0:04.551',1439.562
'0:04.555',1454.936
'0:04.559',1473.269
'0:04.563',1468.876
'0:04.566',1430.038
'0:04.570',1457.872
'0:04.574',1408.792
'0:04.578',1445.411
'0:04.582',1412.445
'0:04.586',1398.528
'0:04.590',1399.268
'0:04.594',1382.415
'0:04.598',1334.075
'0:04.602',1357.516
'0:04.605',1301.825
'0:04.609',1292.300
'0:04.613',1305.501
'0:04.617',1297.433
'0:04.621',1263.726
'0:04.625',1251.289
'0:04.629',1248.353
'0:04.633',1249.809
'0:04.637',1263.726
'0:04.641',1277.667
'0:04.645',1274.731
'0:04.648',1281.319
'0:04.652',1282.776
'0:04.656',1285.712
'0:04.660',1267.402
'0:04.664',1263.010
'0:04.668',1270.338
'0:04.672',1257.877
'0:04.676',1252.005
'0:04.680',1260.813
'0:04.684',1290.844
'0:04.688',1303.304
'0:04.691',1301.108
'0:04.695',1278.383
'0:04.699',1301.108
'0:04.703',1336.988
'0:04.707',1309.893
'0:04.711',1307.697
'0:04.715',1306.957
'0:04.719',1314.286
'0:04.723',1334.075
'0:04.727',1339.207
'0:04.730',1346.512
'0:04.734',1345.056
'0:04.738',1339.207
'0:04.742',1390.483
'0:04.746',1389.003
'0:04.750',1363.365
'0:04.754',1353.124
'0:04.758',1396.332
'0:04.762',1359.713
'0:04.766',1364.845
'0:04.770',1413.185
'0:04.773',1376.566
'0:04.777',1372.173
'0:04.781',1415.381
'0:04.785',1403.660
'0:04.789',1404.400
'0:04.793',1389.003
'0:04.797',1368.497
'0:04.801',1364.105
'0:04.805',1358.973
'0:04.809',1399.268
'0:04.813',1398.528
'0:04.816',1391.939
'0:04.820',1385.351
'0:04.824',1389.003
'0:04.828',1383.894
'0:04.832',1368.497
'0:04.836',1340.663
'0:04.840',1327.463
'0:04.844',1353.841
'0:04.848',1326.746
'0:04.852',1319.418
'0:04.855',1363.365
'0:04.859',1323.070
'0:04.863',1353.124
'0:04.867',1356.037
'0:04.871',1312.089
'0:04.875',1355.320
'0:04.879',1349.448
'0:04.883',1331.139
'0:04.887',1354.580
'0:04.891',1323.070
'0:04.895',1325.267
'0:04.898',1347.992
'0:04.902',1358.233
'0:04.906',1354.580
'0:04.910',1347.992
'0:04.914',1380.218
'0:04.918',1401.464
'0:04.922',1410.988
'0:04.926',1394.875
'0:04.930',1384.611
'0:04.934',1438.823
'0:04.938',1413.185
'0:04.941',1403.660
'0:04.945',1441.019
'0:04.949',1421.970
'0:04.953',1467.397
'0:04.957',1433.690
'0:04.961',1465.940
'0:04.965',1434.430
'0:04.969',1475.465
'0:04.973',1432.974
'0:04.977',1446.891
'0:04.980',1453.480
'0:04.984',1459.351
'0:04.988',1440.302
'0:04.992',1424.166
'0:04.996',1442.498
'0:05.000',1466.657
'0:05.004',1451.283
'0:05.008',1424.166
'0:05.012',1457.872
'0:05.016',1432.234
'0:05.020',1405.856
'0:05.023',1402.204
'0:05.027',1421.970
'0:05.031',1430.778
'0:05.035',1399.268
'0:05.039',1393.419
'0:05.043',1431.494
'0:05.047',1420.513
'0:05.051',1421.970
'0:05.055',1422.709
'0:05.059',1421.970
'0:05.063',1421.253
'0:05.066',1405.856
'0:05.070',1386.090
'0:05.074',1396.332
'0:05.078',1412.445
'0:05.082',1424.166
'0:05.086',1424.166
'0:05.090',1421.970
'0:05.094',1402.920
'0:05.098',1394.135
'0:05.102',1404.400
'0:05.105',1405.140
'0:05.109',1421.970
'0:05.113',1410.249
'0:05.117',1416.121
'0:05.121',1422.709
'0:05.125',1426.385
'0:05.129',1425.645
'0:05.133',1402.920
'0:05.137',1419.773
'0:05.141',1372.890
'0:05.145',1373.630
'0:05.148',1400.724
'0:05.152',1361.909
'0:05.156',1381.698
'0:05.160',1384.611
'0:05.164',1380.958
'0:05.168',1393.419
'0:05.172',1353.841
'0:05.176',1353.124
'0:05.180',1357.516
'0:05.184',1361.909
'0:05.188',1341.403
'0:05.191',1372.890
'0:05.195',1326.746
'0:05.199',1334.075
'0:05.203',1357.516
'0:05.207',1345.056
'0:05.211',1309.893
'0:05.215',1315.025
'0:05.219',1345.056
'0:05.223',1312.829
'0:05.227',1298.172
'0:05.230',1314.286
'0:05.234',1340.663
'0:05.238',1308.437
'0:05.242',1295.236
'0:05.246',1341.403
'0:05.250',1304.021
'0:05.254',1294.497
'0:05.258',1344.316
'0:05.262',1304.761
'0:05.266',1348.708
'0:05.270',1327.463
'0:05.273',1367.041
'0:05.277',1339.207
'0:05.281',1353.841
'0:05.285',1338.467
'0:05.289',1376.566
'0:05.293',1378.022
'0:05.297',1399.268
'0:05.301',1407.336
'0:05.305',1394.875
'0:05.309',1383.154
'0:05.313',1393.419
'0:05.316',1410.249
'0:05.320',1396.332
'0:05.324',1393.419
'0:05.328',1392.679
'0:05.332',1381.698
'0:05.336',1367.758
'0:05.340',1367.041
'0:05.344',1361.169
'0:05.348',1353.841
'0:05.352',1375.086
'0:05.355',1391.199
'0:05.359',1378.022
'0:05.363',1367.041
'0:05.367',1372.173
'0:05.371',1336.988
'0:05.375',1353.124
'0:05.379',1350.928
'0:05.383',1340.663
'0:05.387',1358.233
'0:05.391',1336.988
'0:05.395',1319.418
'0:05.398',1326.006
'0:05.402',1358.973
'0:05.406',1326.746
'0:05.410',1367.041
'0:05.414',1317.961
'0:05.418',1358.233
'0:05.422',1349.448
'0:05.426',1313.546
'0:05.430',1315.742
'0:05.434',1352.384
'0:05.438',1307.697
'0:05.441',1350.188
'0:05.445',1324.550
'0:05.449',1315.742
'0:05.453',1353.124
'0:05.457',1314.286
'0:05.461',1358.973
'0:05.465',1328.203
'0:05.469',1322.354
'0:05.473',1345.056
'0:05.477',1364.105
'0:05.480',1347.252
'0:05.484',1372.173
'0:05.488',1394.875
'0:05.492',1406.596
'0:05.496',1391.199
'0:05.500',1400.724
'0:05.504',1431.494
'0:05.508',1432.234
'0:05.512',1439.562
'0:05.516',1423.449
'0:05.520',1419.773
'0:05.523',1417.577
'0:05.527',1433.690
'0:05.531',1470.333
'0:05.535',1456.415
'0:05.539',1436.626
'0:05.543',1475.465
'0:05.547',1432.974
'0:05.551',1468.876
'0:05.555',1434.430
'0:05.559',1460.068
'0:05.563',1438.823
'0:05.566',1463.744
'0:05.570',1413.924
'0:05.574',1439.562
'0:05.578',1397.811
'0:05.582',1389.003
'0:05.586',1397.811
'0:05.590',1380.218
'0:05.594',1396.332
'0:05.598',1334.791
'0:05.602',1355.320
'0:05.605',1309.893
'0:05.609',1305.501
'0:05.613',1316.482
'0:05.617',1268.859
'0:05.621',1249.809
'0:05.625',1272.534
'0:05.629',1227.847
'0:05.633',1227.107
'0:05.637',1228.564
'0:05.641',1196.337
'0:05.645',1178.028
'0:05.648',1221.235
'0:05.652',1196.337
'0:05.656',1173.635
'0:05.660',1163.371
'0:05.664',1207.318
'0:05.668',1185.356
'0:05.672',1219.039
'0:05.676',1194.141
'0:05.680',1227.107
'0:05.684',1180.224
'0:05.688',1216.126
'0:05.691',1239.568
'0:05.695',1213.190
'0:05.699',1241.764
'0:05.703',1210.994
'0:05.707',1249.809
'0:05.711',1272.534
'0:05.715',1245.417
'0:05.719',1246.896
'0:05.723',1283.515
'0:05.727',1293.780
'0:05.730',1295.236
'0:05.734',1301.825
'0:05.738',1286.451
'0:05.742',1271.795
'0:05.746',1279.123
'0:05.750',1322.354
'0:05.754',1326.006
'0:05.758',1331.878
'0:05.762',1319.418
'0:05.766',1294.497
'0:05.770',1333.335
'0:05.773',1332.595
'0:05.777',1301.825
'0:05.781',1336.988
'0:05.785',1308.437
'0:05.789',1359.713
'0:05.793',1321.614
'0:05.797',1367.041
'0:05.801',1328.942
'0:05.805',1364.845
'0:05.809',1331.878
'0:05.813',1348.708
'0:05.816',1381.698
'0:05.820',1377.282
'0:05.824',1350.928
'0:05.828',1378.762
'0:05.832',1375.826
'0:05.836',1355.320
'0:05.840',1359.713
'0:05.844',1362.649
'0:05.848',1378.762
'0:05.852',1387.547
'0:05.855',1383.894
'0:05.859',1389.003
'0:05.863',1426.385
'0:05.867',1410.249
'0:05.871',1380.218
'0:05.875',1429.298
'0:05.879',1386.090
'0:05.883',1432.974
'0:05.887',1396.332
'0:05.891',1380.958
'0:05.895',1400.007
'0:05.898',1418.317
'0:05.902',1395.615
'0:05.906',1389.003
'0:05.910',1407.336
'0:05.914',1412.445
'0:05.918',1416.121
'0:05.922',1411.728
'0:05.926',1416.860
'0:05.930',1402.920
'0:05.934',1394.135
'0:05.938',1394.135
'0:05.941',1392.679
'0:05.945',1381.698
'0:05.949',1382.415
'0:05.953',1388.287
'0:05.957',1399.268
'0:05.961',1397.811
'0:05.965',1394.135
'0:05.969',1389.003
'0:05.973',1378.762
'0:05.977',1365.561
'0:05.980',1380.218
'0:05.984',1376.566
'0:05.988',1374.369
'0:05.992',1391.199
'0:05.996',1394.875
'0:06.000',1396.332
'0:06.004',1400.724
'0:06.008',1392.679
'0:06.012',1391.199
'0:06.016',1355.320
'0:06.020',1387.547
'0:06.023',1396.332
'0:06.027',1378.762
'0:06.031',1401.464
'0:06.035',1414.664
'0:06.039',1416.121
'0:06.043',1392.679
'0:06.047',1385.351
'0:06.051',1426.385
'0:06.055',1426.385
'0:06.059',1429.298
'0:06.063',1390.483
'0:06.066',1434.430
'0:06.070',1437.366
'0:06.074',1436.626
'0:06.078',1440.302
'0:06.082',1438.823
'0:06.086',1434.430
'0:06.090',1427.842
'0:06.094',1414.664
'0:06.098',1428.581
'0:06.102',1454.936
'0:06.105',1452.740
'0:06.109',1460.808
'0:06.113',1448.347
'0:06.117',1434.430
'0:06.121',1449.087
'0:06.125',1469.593
'0:06.129',1464.461
'0:06.133',1449.087
'0:06.137',1480.597
'0:06.141',1450.544
'0:06.145',1455.676
'0:06.148',1471.072
'0:06.152',1479.857
'0:06.156',1436.626
'0:06.160',1473.269
'0:06.164',1436.626
'0:06.168',1471.072
'0:06.172',1441.759
'0:06.176',1430.778
'0:06.180',1463.744
'0:06.184',1442.498
'0:06.188',1434.430
'0:06.191',1424.906
'0:06.195',1411.728
'0:06.199',1402.920
'0:06.203',1437.366
'0:06.207',1444.695
'0:06.211',1438.823
'0:06.215',1435.170
'0:06.219',1386.807
'0:06.223',1391.199
'0:06.227',1410.249
'0:06.230',1419.773
'0:06.234',1379.479
'0:06.238',1405.140
'0:06.242',1367.758
'0:06.246',1375.826
'0:06.250',1349.448
'0:06.254',1386.807
'0:06.258',1361.909
'0:06.262',1326.746
'0:06.266',1358.233
'0:06.270',1362.649
'0:06.273',1350.188
'0:06.277',1331.139
'0:06.281',1309.153
'0:06.285',1348.708
'0:06.289',1331.139
'0:06.293',1306.217
'0:06.297',1341.403
'0:06.301',1337.727
'0:06.305',1304.021
'0:06.309',1354.580
'0:06.313',1314.286
'0:06.316',1323.810
'0:06.320',1354.580
'0:06.324',1323.070
'0:06.328',1342.120
'0:06.332',1339.207
'0:06.336',1314.286
'0:06.340',1361.169
'0:06.344',1317.222
'0:06.348',1323.810
'0:06.352',1364.105
'0:06.355',1367.758
'0:06.359',1356.777
'0:06.363',1323.070
'0:06.367',1342.860
'0:06.371',1356.777
'0:06.375',1377.282
'0:06.379',1369.954
'0:06.383',1335.531
'0:06.387',1338.467
'0:06.391',1376.566
'0:06.395',1343.599
'0:06.398',1388.287
'0:06.402',1342.120
'0:06.406',1367.758
'0:06.410',1389.743
'0:06.414',1353.841
'0:06.418',1362.649
'0:06.422',1389.003
'0:06.426',1358.973
'0:06.430',1350.188
'0:06.434',1375.086
'0:06.438',1354.580
'0:06.441',1372.890
'0:06.445',1391.939
'0:06.449',1375.826
'0:06.453',1347.992
'0:06.457',1379.479
'0:06.461',1354.580
'0:06.465',1347.252
'0:06.469',1383.154
'0:06.473',1367.041
'0:06.477',1334.791
'0:06.480',1360.452
'0:06.484',1356.777
'0:06.488',1315.742
'0:06.492',1361.909
'0:06.496',1335.531
'0:06.500',1304.761
'0:06.504',1348.708
'0:06.508',1298.172
'0:06.512',1320.158
'0:06.516',1307.697
'0:06.520',1290.844
'0:06.523',1284.972
'0:06.527',1323.070
'0:06.531',1323.810
'0:06.535',1315.742
'0:06.539',1302.565
'0:06.543',1312.829
'0:06.547',1334.791
'0:06.551',1321.614
'0:06.555',1317.222
'0:06.559',1304.021
'0:06.563',1339.207
'0:06.566',1331.878
'0:06.570',1368.497
'0:06.574',1332.595
'0:06.578',1358.973
'0:06.582',1376.566
'0:06.586',1383.894
'0:06.590',1389.003
'0:06.594',1402.920
'0:06.598',1421.253
'0:06.602',1407.336
'0:06.605',1410.988
'0:06.609',1398.528
'0:06.613',1399.268
'0:06.617',1427.842
'0:06.621',1449.827
'0:06.625',1438.106
'0:06.629',1411.728
'0:06.633',1408.792
'0:06.637',1394.875
'0:06.641',1393.419
'0:06.645',1416.121
'0:06.648',1425.645
'0:06.652',1373.630
'0:06.656',1399.268
'0:06.660',1384.611
'0:06.664',1361.169
'0:06.668',1376.566
'0:06.672',1339.924
'0:06.676',1310.633
'0:06.680',1306.217
'0:06.684',1279.863
'0:06.688',1295.236
'0:06.691',1301.108
'0:06.695',1244.700
'0:06.699',1259.334
'0:06.703',1273.251
'0:06.707',1232.979
'0:06.711',1221.235
'0:06.715',1233.696
'0:06.719',1225.651
'0:06.723',1193.401
'0:06.727',1235.176
'0:06.730',1189.009
'0:06.734',1204.405
'0:06.738',1216.126
'0:06.742',1189.749
'0:06.746',1211.734
'0:06.750',1218.322
'0:06.754',1209.514
'0:06.758',1219.779
'0:06.762',1207.318
'0:06.766',1237.372
'0:06.770',1216.126
'0:06.773',1194.881
'0:06.777',1230.043
'0:06.781',1252.005
'0:06.785',1220.519
'0:06.789',1214.647
'0:06.793',1236.632
'0:06.797',1257.877
'0:06.801',1281.319
'0:06.805',1286.451
'0:06.809',1293.780
'0:06.813',1280.579
'0:06.816',1291.584
'0:06.820',1269.598
'0:06.824',1317.222
'0:06.828',1302.565
'0:06.832',1332.595
'0:06.836',1290.844
'0:06.840',1315.742
'0:06.844',1332.595
'0:06.848',1332.595
'0:06.852',1326.006
'0:06.855',1342.120
'0:06.859',1375.826
'0:06.863',1365.561
'0:06.867',1390.483
'0:06.871',1402.204
'0:06.875',1409.532
'0:06.879',1402.204
'0:06.883',1373.630
'0:06.887',1391.199
'0:06.891',1421.970
'0:06.895',1405.140
'0:06.898',1441.759
'0:06.902',1432.974
'0:06.906',1414.664
'0:06.910',1418.317
'0:06.914',1424.906
'0:06.918',1443.215
'0:06.922',1419.057
'0:06.926',1415.381
'0:06.930',1452.740
'0:06.934',1427.842
'0:06.938',1406.596
'0:06.941',1424.166
'0:06.945',1453.480
'0:06.949',1437.366
'0:06.953',1413.924
'0:06.957',1436.626
'0:06.961',1410.249
'0:06.965',1397.071
'0:06.969',1419.057
'0:06.973',1419.773
'0:06.977',1400.724
'0:06.980',1382.415
'0:06.984',1378.762
'0:06.988',1386.807
'0:06.992',1380.218
'0:06.996',1405.140
'0:07.000',1416.860
'0:07.004',1373.630
'0:07.008',1369.237
'0:07.012',1385.351
'0:07.016',1369.237
'0:07.020',1379.479
'0:07.023',1401.464
'0:07.027',1395.615
'0:07.031',1365.561
'0:07.035',1362.649
'0:07.039',1380.218
'0:07.043',1405.856
'0:07.047',1413.185
'0:07.051',1415.381
'0:07.055',1408.792
'0:07.059',1397.071
'0:07.063',1399.268
'0:07.066',1414.664
'0:07.070',1427.102
'0:07.074',1424.166
'0:07.078',1424.166
'0:07.082',1434.430
'0:07.086',1430.778
'0:07.090',1430.038
'0:07.094',1430.778
'0:07.098',1436.626
'0:07.102',1425.645
'0:07.105',1432.234
'0:07.109',1439.562
'0:07.113',1440.302
'0:07.117',1449.087
'0:07.121',1452.740
'0:07.125',1444.695
'0:07.129',1457.872
'0:07.133',1462.264
'0:07.137',1449.087
'0:07.141',1422.709
'0:07.145',1444.695
'0:07.148',1465.200
'0:07.152',1430.778
'0:07.156',1457.872
'0:07.160',1472.529
'0:07.164',1446.891
'0:07.168',1429.298
'0:07.172',1474.725
'0:07.176',1438.823
'0:07.180',1471.789
'0:07.184',1438.823
'0:07.188',1430.038
'0:07.191',1455.676
'0:07.195',1420.513
'0:07.199',1460.068
'0:07.203',1438.823
'0:07.207',1426.385
'0:07.211',1440.302
'0:07.215',1443.215
'0:07.219',1432.234
'0:07.223',1405.856
'0:07.227',1388.287
'0:07.230',1389.003
'0:07.234',1395.615
'0:07.238',1373.630
'0:07.242',1365.561
'0:07.246',1378.022
'0:07.250',1399.268
'0:07.254',1359.713
'0:07.258',1374.369
'0:07.262',1369.237
'0:07.266',1373.630
'0:07.270',1327.463
'0:07.273',1361.169
'0:07.277',1320.158
'0:07.281',1338.467
'0:07.285',1358.233
'0:07.289',1309.153
'0:07.293',1338.467
'0:07.297',1316.482
'0:07.301',1344.316
'0:07.305',1331.878
'0:07.309',1369.237
'0:07.313',1359.713
'0:07.316',1347.252
'0:07.320',1334.075
'0:07.324',1351.644
'0:07.328',1347.252
'0:07.332',1397.071
'0:07.336',1405.140
'0:07.340',1377.282
'0:07.344',1379.479
'0:07.348',1365.561
'0:07.352',1406.596
'0:07.355',1414.664
'0:07.359',1400.007
'0:07.363',1389.003
'0:07.367',1376.566
'0:07.371',1401.464
'0:07.375',1402.920
'0:07.379',1380.218
'0:07.383',1422.709
'0:07.387',1390.483
'0:07.391',1400.724
'0:07.395',1416.121
'0:07.398',1410.988
'0:07.402',1392.679
'0:07.406',1390.483
'0:07.410',1376.566
'0:07.414',1383.154
'0:07.418',1386.090
'0:07.422',1402.920
'0:07.426',1405.856
'0:07.430',1400.724
'0:07.434',1387.547
'0:07.438',1400.724
'0:07.441',1386.807
'0:07.445',1394.135
'0:07.449',1401.464
'0:07.453',1381.698
'0:07.457',1367.041
'0:07.461',1380.218
'0:07.465',1419.057
'0:07.469',1413.185
'0:07.473',1382.415
'0:07.477',1363.365
'0:07.480',1375.086
'0:07.484',1333.335
'0:07.488',1360.452
'0:07.492',1314.286
'0:07.496',1334.075
'0:07.500',1293.040
'0:07.504',1306.217
'0:07.508',1270.338
'0:07.512',1312.089
'0:07.516',1289.387
'0:07.520',1254.225
'0:07.523',1242.481
'0:07.527',1266.662
'0:07.531',1277.667
'0:07.535',1272.534
'0:07.539',1276.927
'0:07.543',1254.941
'0:07.547',1246.896
'0:07.551',1264.466
'0:07.555',1272.534
'0:07.559',1268.142
'0:07.563',1256.421
'0:07.566',1253.485
'0:07.570',1273.991
'0:07.574',1269.598
'0:07.578',1256.421
'0:07.582',1260.074
'0:07.586',1235.892
'0:07.590',1235.176
'0:07.594',1241.764
'0:07.598',1292.300
'0:07.602',1276.187
'0:07.605',1419.057
'0:07.609',1425.645
'0:07.613',1418.317
'0:07.617',1422.709
'0:07.621',1423.449
'0:07.625',1420.513
'0:07.629',1417.577
'0:07.633',1366.301
'0:07.637',1382.415
'0:07.641',1406.596
'0:07.645',1359.713
'0:07.648',1353.124
'0:07.652',1367.041
'0:07.656',1372.173
'0:07.660',1385.351
'0:07.664',1353.841
'0:07.668',1361.169
'0:07.672',1383.894
'0:07.676',1360.452
'0:07.680',1340.663
'0:07.684',1358.233
'0:07.688',1388.287
'0:07.691',1347.992
'0:07.695',1352.384
'0:07.699',1380.958
'0:07.703',1389.743
'0:07.707',1392.679
'0:07.711',1406.596
'0:07.715',1406.596
'0:07.719',1374.369
'0:07.723',1369.954
'0:07.727',1417.577
'0:07.730',1424.906
'0:07.734',1408.052
'0:07.738',1408.792
'0:07.742',1388.287
'0:07.746',1436.626
'0:07.750',1408.052
'0:07.754',1416.860
'0:07.758',1430.778
'0:07.762',1408.052
'0:07.766',1446.151
'0:07.770',1410.249
'0:07.773',1405.856
'0:07.777',1446.151
'0:07.781',1410.249
'0:07.785',1454.936
'0:07.789',1432.234
'0:07.793',1423.449
'0:07.797',1453.480
'0:07.801',1410.249
'0:07.805',1450.544
'0:07.809',1447.631
'0:07.813',1417.577
'0:07.816',1435.170
'0:07.820',1434.430
'0:07.824',1449.087
'0:07.828',1414.664
'0:07.832',1441.019
'0:07.836',1437.366
'0:07.840',1413.924
'0:07.844',1462.264
'0:07.848',1441.759
'0:07.852',1415.381
'0:07.855',1448.347
'0:07.859',1436.626
'0:07.863',1419.773
'0:07.867',1413.185
'0:07.871',1457.155
'0:07.875',1446.151
'0:07.879',1419.057
'0:07.883',1408.052
'0:07.887',1419.057
'0:07.891',1408.052
'0:07.895',1414.664
'0:07.898',1438.106
'0:07.902',1434.430
'0:07.906',1428.581
'0:07.910',1425.645
'0:07.914',1412.445
'0:07.918',1389.743
'0:07.922',1371.433
'0:07.926',1401.464
'0:07.930',1371.433
'0:07.934',1370.694
'0:07.938',1361.909
'0:07.941',1335.531
'0:07.945',1378.022
'0:07.949',1363.365
'0:07.953',1334.075
'0:07.957',1323.810
'0:07.961',1362.649
'0:07.965',1336.271
'0:07.969',1331.139
'0:07.973',1308.437
'0:07.977',1327.463
'0:07.980',1358.233
'0:07.984',1345.796
'0:07.988',1314.286
'0:07.992',1358.973
'0:07.996',1338.467
'0:08.000',1320.158
'0:08.004',1368.497
'0:08.008',1335.531
'0:08.012',1369.237
'0:08.016',1345.056
'0:08.020',1342.120
'0:08.023',1384.611
'0:08.027',1340.663
'0:08.031',1372.890
'0:08.035',1390.483
'0:08.039',1379.479
'0:08.043',1356.777
'0:08.047',1371.433
'0:08.051',1390.483
'0:08.055',1400.724
'0:08.059',1415.381
'0:08.063',1411.728
'0:08.066',1421.253
'0:08.070',1410.988
'0:08.074',1404.400
'0:08.078',1402.920
'0:08.082',1396.332
'0:08.086',1391.939
'0:08.090',1387.547
'0:08.094',1402.920
'0:08.098',1426.385
'0:08.102',1437.366
'0:08.105',1429.298
'0:08.109',1440.302
'0:08.113',1429.298
'0:08.117',1414.664
'0:08.121',1402.204
'0:08.125',1394.875
'0:08.129',1401.464
'0:08.133',1392.679
'0:08.137',1393.419
'0:08.141',1425.645
'0:08.145',1423.449
'0:08.148',1391.199
'0:08.152',1387.547
'0:08.156',1383.894
'0:08.160',1416.860
'0:08.164',1424.166
'0:08.168',1394.135
'0:08.172',1389.003
'0:08.176',1410.249
'0:08.180',1386.807
'0:08.184',1372.173
'0:08.188',1398.528
'0:08.191',1415.381
'0:08.195',1369.237
'0:08.199',1373.630
'0:08.203',1408.052
'0:08.207',1364.845
'0:08.211',1355.320
'0:08.215',1374.369
'0:08.219',1389.003
'0:08.223',1354.580
'0:08.227',1359.713
'0:08.230',1335.531
'0:08.234',1358.233
'0:08.238',1347.252
'0:08.242',1339.207
'0:08.246',1315.025
'0:08.250',1309.153
'0:08.254',1300.369
'0:08.258',1339.207
'0:08.262',1336.271
'0:08.266',1338.467
'0:08.270',1333.335
'0:08.273',1328.203
'0:08.277',1328.942
'0:08.281',1328.203
'0:08.285',1325.267
'0:08.289',1326.746
'0:08.293',1328.203
'0:08.297',1317.222
'0:08.301',1286.451
'0:08.305',1315.025
'0:08.309',1332.595
'0:08.313',1319.418
'0:08.316',1339.207
'0:08.320',1353.124
'0:08.324',1365.561
'0:08.328',1340.663
'0:08.332',1351.644
'0:08.336',1367.041
'0:08.340',1378.762
'0:08.344',1384.611
'0:08.348',1432.974
'0:08.352',1447.631
'0:08.355',1432.974
'0:08.359',1458.612
'0:08.363',1421.253
'0:08.367',1456.415
'0:08.371',1424.906
'0:08.375',1473.269
'0:08.379',1448.347
'0:08.383',1424.166
'0:08.387',1454.936
'0:08.391',1411.728
'0:08.395',1443.215
'0:08.398',1442.498
'0:08.402',1432.234
'0:08.406',1378.762
'0:08.410',1366.301
'0:08.414',1390.483
'0:08.418',1355.320
'0:08.422',1325.267
'0:08.426',1307.697
'0:08.430',1284.972
'0:08.434',1269.598
'0:08.438',1261.530
'0:08.441',1282.059
'0:08.445',1262.270
'0:08.449',1221.235
'0:08.453',1255.681
'0:08.457',1241.024
'0:08.461',1203.666
'0:08.465',1239.568
'0:08.469',1222.715
'0:08.473',1209.514
'0:08.477',1195.597
'0:08.480',1208.058
'0:08.484',1176.548
'0:08.488',1215.386
'0:08.492',1205.862
'0:08.496',1219.039
'0:08.500',1208.058
'0:08.504',1226.368
'0:08.508',1217.583
'0:08.512',1189.749
'0:08.516',1229.304
'0:08.520',1239.568
'0:08.523',1232.240
'0:08.527',1261.530
'0:08.531',1231.500
'0:08.535',1243.960
'0:08.539',1249.093
'0:08.543',1277.667
'0:08.547',1289.387
'0:08.551',1284.255
'0:08.555',1280.579
'0:08.559',1287.191
'0:08.563',1268.142
'0:08.566',1315.025
'0:08.570',1280.579
'0:08.574',1331.878
'0:08.578',1296.716
'0:08.582',1340.663
'0:08.586',1345.796
'0:08.590',1339.207
'0:08.594',1372.173
'0:08.598',1379.479
'0:08.602',1385.351
'0:08.605',1390.483
'0:08.609',1397.071
'0:08.613',1402.920
'0:08.617',1395.615
'0:08.621',1397.071
'0:08.625',1400.724
'0:08.629',1396.332
'0:08.633',1428.581
'0:08.637',1406.596
'0:08.641',1391.939
'0:08.645',1428.581
'0:08.648',1413.924
'0:08.652',1412.445
'0:08.656',1402.920
'0:08.660',1391.939
'0:08.664',1385.351
'0:08.668',1391.939
'0:08.672',1379.479
'0:08.676',1377.282
'0:08.680',1390.483
'0:08.684',1392.679
'0:08.688',1409.532
'0:08.691',1417.577
'0:08.695',1411.728
'0:08.699',1405.140
'0:08.703',1413.924
'0:08.707',1415.381
'0:08.711',1397.071
'0:08.715',1403.660
'0:08.719',1394.875
'0:08.723',1394.135
'0:08.727',1389.003
'0:08.730',1387.547
'0:08.734',1372.890
'0:08.738',1381.698
'0:08.742',1398.528
'0:08.746',1415.381
'0:08.750',1400.724
'0:08.754',1406.596
'0:08.758',1415.381
'0:08.762',1380.958
'0:08.766',1371.433
'0:08.770',1381.698
'0:08.773',1378.762
'0:08.777',1379.479
'0:08.781',1428.581
'0:08.785',1412.445
'0:08.789',1386.090
'0:08.793',1432.234
'0:08.797',1401.464
'0:08.801',1438.106
'0:08.805',1435.910
'0:08.809',1407.336
'0:08.813',1438.823
'0:08.816',1406.596
'0:08.820',1447.631
'0:08.824',1406.596
'0:08.828',1421.970
'0:08.832',1413.924
'0:08.836',1414.664
'0:08.840',1452.740
'0:08.844',1410.988
'0:08.848',1443.955
'0:08.852',1404.400
'0:08.855',1441.759
'0:08.859',1404.400
'0:08.863',1449.087
'0:08.867',1416.121
'0:08.871',1439.562
'0:08.875',1419.773
'0:08.879',1398.528
'0:08.883',1446.891
'0:08.887',1417.577
'0:08.891',1430.038
'0:08.895',1415.381
'0:08.898',1446.891
'0:08.902',1403.660
'0:08.906',1448.347
'0:08.910',1400.007
'0:08.914',1433.690
'0:08.918',1443.215
'0:08.922',1397.811
'0:08.926',1443.215
'0:08.930',1403.660
'0:08.934',1426.385
'0:08.938',1424.906
'0:08.941',1382.415
'0:08.945',1379.479
'0:08.949',1424.166
'0:08.953',1406.596
'0:08.957',1384.611
'0:08.961',1375.826
'0:08.965',1389.743
'0:08.969',1405.140
'0:08.973',1378.022
'0:08.977',1380.958
'0:08.980',1362.649
'0:08.984',1377.282
'0:08.988',1364.105
'0:08.992',1352.384
'0:08.996',1355.320
'0:09.000',1351.644
'0:09.004',1350.188
'0:09.008',1348.708
'0:09.012',1377.282
'0:09.016',1396.332
'0:09.020',1353.841
'0:09.023',1347.252
'0:09.027',1350.188
'0:09.031',1371.433
'0:09.035',1348.708
'0:09.039',1344.316
'0:09.043',1354.580
'0:09.047',1352.384
'0:09.051',1349.448
'0:09.055',1386.807
'0:09.059',1392.679
'0:09.063',1393.419
'0:09.066',1400.724
'0:09.070',1402.920
'0:09.074',1384.611
'0:09.078',1394.135
'0:09.082',1378.762
'0:09.086',1383.154
'0:09.090',1362.649
'0:09.094',1372.173
'0:09.098',1411.728
'0:09.102',1408.792
'0:09.105',1388.287
'0:09.109',1384.611
'0:09.113',1374.369
'0:09.117',1415.381
'0:09.121',1411.728
'0:09.125',1398.528
'0:09.129',1380.958
'0:09.133',1383.154
'0:09.137',1378.022
'0:09.141',1417.577
'0:09.145',1405.856
'0:09.148',1397.071
'0:09.152',1402.920
'0:09.156',1402.204
'0:09.160',1390.483
'0:09.164',1402.920
'0:09.168',1411.728
'0:09.172',1397.811
'0:09.176',1405.856
'0:09.180',1378.022
'0:09.184',1353.124
'0:09.188',1372.890
'0:09.191',1355.320
'0:09.195',1343.599
'0:09.199',1356.037
'0:09.203',1365.561
'0:09.207',1361.909
'0:09.211',1367.758
'0:09.215',1350.188
'0:09.219',1343.599
'0:09.223',1331.139
'0:09.227',1330.399
'0:09.230',1317.222
'0:09.234',1316.482
'0:09.238',1364.845
'0:09.242',1344.316
'0:09.246',1319.418
'0:09.250',1306.957
'0:09.254',1357.516
'0:09.258',1354.580
'0:09.262',1342.120
'0:09.266',1335.531
'0:09.270',1323.810
'0:09.273',1329.682
'0:09.277',1320.158
'0:09.281',1323.810
'0:09.285',1329.682
'0:09.289',1275.470
'0:09.293',1273.991
'0:09.297',1315.025
'0:09.301',1263.726
'0:09.305',1285.712
'0:09.309',1302.565
'0:09.313',1261.530
'0:09.316',1259.334
'0:09.320',1306.217
'0:09.324',1282.776
'0:09.328',1262.270
'0:09.332',1315.025
'0:09.336',1312.089
'0:09.340',1278.383
'0:09.344',1332.595
'0:09.348',1312.089
'0:09.352',1348.708
'0:09.355',1312.829
'0:09.359',1335.531
'0:09.363',1357.516
'0:09.367',1398.528
'0:09.371',1400.007
'0:09.375',1393.419
'0:09.379',1393.419
'0:09.383',1425.645
'0:09.387',1433.690
'0:09.391',1433.690
'0:09.395',1477.661
'0:09.398',1441.019
'0:09.402',1446.891
'0:09.406',1451.283
'0:09.410',1457.155
'0:09.414',1493.035
'0:09.418',1489.382
'0:09.422',1493.774
'0:09.426',1495.971
'0:09.430',1495.231
'0:09.434',1501.103
'0:09.438',1487.186
'0:09.441',1446.151
'0:09.445',1487.902
'0:09.449',1447.631
'0:09.453',1464.461
'0:09.457',1427.102
'0:09.461',1455.676
'0:09.465',1406.596
'0:09.469',1422.709
'0:09.473',1399.268
'0:09.477',1380.958
'0:09.480',1406.596
'0:09.484',1391.939
'0:09.488',1380.958
'0:09.492',1344.316
'0:09.496',1374.369
'0:09.500',1377.282
'0:09.504',1356.037
'0:09.508',1360.452
'0:09.512',1352.384
'0:09.516',1311.350
'0:09.520',1305.501
'0:09.523',1312.829
'0:09.527',1298.172
'0:09.531',1309.153
'0:09.535',1311.350
'0:09.539',1276.187
'0:09.543',1309.153
'0:09.547',1273.251
'0:09.551',1321.614
'0:09.555',1296.716
'0:09.559',1312.829
'0:09.563',1279.123
'0:09.566',1323.810
'0:09.570',1279.863
'0:09.574',1286.451
'0:09.578',1319.418
'0:09.582',1330.399
'0:09.586',1306.217
'0:09.590',1300.369
'0:09.594',1311.350
'0:09.598',1330.399
'0:09.602',1342.120
'0:09.605',1344.316
'0:09.609',1302.565
'0:09.613',1326.006
'0:09.617',1345.056
'0:09.621',1346.512
'0:09.625',1304.021
'0:09.629',1314.286
'0:09.633',1338.467
'0:09.637',1341.403
'0:09.641',1298.912
'0:09.645',1324.550
'0:09.648',1284.255
'0:09.652',1304.761
'0:09.656',1318.678
'0:09.660',1276.927
'0:09.664',1304.761
'0:09.668',1321.614
'0:09.672',1302.565
'0:09.676',1300.369
'0:09.680',1274.731
'0:09.684',1274.731
'0:09.688',1315.025
'0:09.691',1278.383
'0:09.695',1295.236
'0:09.699',1320.874
'0:09.703',1279.123
'0:09.707',1305.501
'0:09.711',1329.682
'0:09.715',1284.972
'0:09.719',1306.217
'0:09.723',1328.942
'0:09.727',1342.860
'0:09.730',1341.403
'0:09.734',1349.448
'0:09.738',1315.025
'0:09.742',1316.482
'0:09.746',1323.070
'0:09.750',1326.746
'0:09.754',1339.924
'0:09.758',1383.154
'0:09.762',1361.909
'0:09.766',1359.713
'0:09.770',1349.448
'0:09.773',1375.826
'0:09.777',1398.528
'0:09.781',1404.400
'0:09.785',1401.464
'0:09.789',1395.615
'0:09.793',1383.154
'0:09.797',1378.022
'0:09.801',1379.479
'0:09.805',1364.105
'0:09.809',1412.445
'0:09.813',1410.249
'0:09.816',1385.351
'0:09.820',1397.811
'0:09.824',1379.479
'0:09.828',1417.577
'0:09.832',1372.890
'0:09.836',1398.528
'0:09.840',1390.483
'0:09.844',1418.317
'0:09.848',1427.102
'0:09.852',1402.204
'0:09.855',1430.778
'0:09.859',1438.106
'0:09.863',1426.385
'0:09.867',1397.071
'0:09.871',1441.759
'0:09.875',1409.532
'0:09.879',1427.842
'0:09.883',1413.185
'0:09.887',1451.283
'0:09.891',1410.988
'0:09.895',1446.891
'0:09.898',1416.860
'0:09.902',1430.778
'0:09.906',1437.366
'0:09.910',1438.823
'0:09.914',1458.612
'0:09.918',1452.023
'0:09.922',1430.038
'0:09.926',1424.906
'0:09.930',1429.298
'0:09.934',1416.121
'0:09.938',1415.381
'0:09.941',1463.004
'0:09.945',1438.823
'0:09.949',1416.860
'0:09.953',1420.513
'0:09.957',1416.121
'0:09.961',1410.988
'0:09.965',1445.411
'0:09.969',1437.366
'0:09.973',1400.724
'0:09.977',1394.135
'0:09.980',1389.743
'0:09.984',1384.611
'0:09.988',1407.336
'0:09.992',1419.057
'0:09.996',1416.860
'0:10.000',1377.282
'0:10.004',1394.135
'0:10.008',1388.287
'0:10.012',1364.845
'0:10.016',1385.351
'0:10.020',1396.332
'0:10.023',1355.320
'0:10.027',1382.415
'0:10.031',1353.124
'0:10.035',1389.743
'0:10.039',1369.237
'0:10.043',1390.483
'0:10.047',1377.282
'0:10.051',1361.169
'0:10.055',1378.762
'0:10.059',1366.301
'0:10.063',1390.483
'0:10.066',1378.022
'0:10.070',1362.649
'0:10.074',1379.479
'0:10.078',1337.727
'0:10.082',1360.452
'0:10.086',1352.384
'0:10.090',1336.988
'0:10.094',1359.713
'0:10.098',1345.796
'0:10.102',1372.173
'0:10.105',1347.992
'0:10.109',1375.086
'0:10.113',1358.973
'0:10.117',1339.924
'0:10.121',1364.845
'0:10.125',1362.649
'0:10.129',1361.169
'0:10.133',1384.611
'0:10.137',1394.875
'0:10.141',1348.708
'0:10.145',1381.698
'0:10.148',1402.204
'0:10.152',1361.909
'0:10.156',1368.497
'0:10.160',1389.003
'0:10.164',1389.743
'0:10.168',1393.419
'0:10.172',1400.007
'0:10.176',1397.811
'0:10.180',1424.166
'0:10.184',1424.906
'0:10.188',1385.351
'0:10.191',1382.415
'0:10.195',1403.660
'0:10.199',1395.615
'0:10.203',1406.596
'0:10.207',1413.185
'0:10.211',1415.381
'0:10.215',1413.924
'0:10.219',1416.121
'0:10.223',1414.664
'0:10.227',1393.419
'0:10.230',1360.452
'0:10.234',1380.218
'0:10.238',1381.698
'0:10.242',1390.483
'0:10.246',1372.890
'0:10.250',1369.237
'0:10.254',1394.875
'0:10.258',1394.135
'0:10.262',1371.433
'0:10.266',1383.894
'0:10.270',1360.452
'0:10.273',1387.547
'0:10.277',1376.566
'0:10.281',1349.448
'0:10.285',1346.512
'0:10.289',1351.644
'0:10.293',1353.841
'0:10.297',1345.796
'0:10.301',1331.878
'0:10.305',1324.550
'0:10.309',1319.418
'0:10.313',1303.304
'0:10.316',1348.708
'0:10.320',1344.316
'0:10.324',1331.878
'0:10.328',1335.531
'0:10.332',1332.595
'0:10.336',1323.810
'0:10.340',1292.300
'0:10.344',1278.383
'0:10.348',1291.584
'0:10.352',1325.267
'0:10.355',1307.697
'0:10.359',1298.172
'0:10.363',1293.040
'0:10.367',1311.350
'0:10.371',1287.908
'0:10.375',1309.153
'0:10.379',1344.316
'0:10.383',1296.716
'0:10.387',1309.153
'0:10.391',1331.139
'0:10.395',1361.909
'0:10.398',1369.954
'0:10.402',1364.845
'0:10.406',1369.237
'0:10.410',1372.173
'0:10.414',1378.022
'0:10.418',1362.649
'0:10.422',1367.041
'0:10.426',1410.988
'0:10.430',1429.298
'0:10.434',1394.135
'0:10.438',1443.215
'0:10.441',1414.664
'0:10.445',1452.740
'0:10.449',1408.792
'0:10.453',1457.872
'0:10.457',1411.728
'0:10.461',1446.891
'0:10.465',1442.498
'0:10.469',1427.842
'0:10.473',1410.988
'0:10.477',1452.023
'0:10.480',1429.298
'0:10.484',1394.875
'0:10.488',1386.807
'0:10.492',1423.449
'0:10.496',1414.664
'0:10.500',1396.332
'0:10.504',1392.679
'0:10.508',1378.022
'0:10.512',1338.467
'0:10.516',1323.070
'0:10.520',1334.075
'0:10.523',1328.203
'0:10.527',1309.893
'0:10.531',1279.863
'0:10.535',1264.466
'0:10.539',1271.055
'0:10.543',1278.383
'0:10.547',1271.795
'0:10.551',1237.372
'0:10.555',1221.975
'0:10.559',1251.289
'0:10.563',1231.500
'0:10.566',1210.254
'0:10.570',1208.798
'0:10.574',1230.760
'0:10.578',1253.485
'0:10.582',1263.726
'0:10.586',1257.877
'0:10.590',1232.240
'0:10.594',1240.285
'0:10.598',1263.010
'0:10.602',1287.908
'0:10.605',1259.334
'0:10.609',1254.225
'0:10.613',1306.957
'0:10.617',1293.040
'0:10.621',1292.300
'0:10.625',1312.089
'0:10.629',1285.712
'0:10.633',1322.354
'0:10.637',1338.467
'0:10.641',1301.108
'0:10.645',1304.021
'0:10.648',1309.153
'0:10.652',1314.286
'0:10.656',1343.599
'0:10.660',1364.845
'0:10.664',1375.826
'0:10.668',1378.022
'0:10.672',1383.894
'0:10.676',1385.351
'0:10.680',1387.547
'0:10.684',1372.890
'0:10.688',1361.169
'0:10.691',1354.580
'0:10.695',1378.762
'0:10.699',1400.007
'0:10.703',1397.811
'0:10.707',1386.090
'0:10.711',1370.694
'0:10.715',1367.758
'0:10.719',1374.369
'0:10.723',1366.301
'0:10.727',1353.841
'0:10.730',1366.301
'0:10.734',1364.845
'0:10.738',1376.566
'0:10.742',1391.199
'0:10.746',1368.497
'0:10.750',1372.890
'0:10.754',1387.547
'0:10.758',1378.022
'0:10.762',1389.003
'0:10.766',1389.003
'0:10.770',1367.041
'0:10.773',1347.252
'0:10.777',1387.547
'0:10.781',1380.218
'0:10.785',1349.448
'0:10.789',1350.928
'0:10.793',1378.022
'0:10.797',1392.679
'0:10.801',1400.724
'0:10.805',1383.894
'0:10.809',1384.611
'0:10.813',1373.630
'0:10.816',1400.007
'0:10.820',1394.135
'0:10.824',1371.433
'0:10.828',1400.724
'0:10.832',1422.709
'0:10.836',1402.920
'0:10.840',1430.038
'0:10.844',1389.003
'0:10.848',1431.494
'0:10.852',1441.019
'0:10.855',1443.955
'0:10.859',1409.532
'0:10.863',1408.792
'0:10.867',1436.626
'0:10.871',1436.626
'0:10.875',1457.155
'0:10.879',1421.970
'0:10.883',1437.366
'0:10.887',1470.333
'0:10.891',1453.480
'0:10.895',1428.581
'0:10.898',1476.181
'0:10.902',1465.200
'0:10.906',1451.283
'0:10.910',1432.974
'0:10.914',1432.234
'0:10.918',1432.234
'0:10.922',1444.695
'0:10.926',1471.789
'0:10.930',1470.333
'0:10.934',1463.004
'0:10.938',1460.808
'0:10.941',1456.415
'0:10.945',1450.544
'0:10.949',1440.302
'0:10.953',1404.400
'0:10.957',1392.679
'0:10.961',1429.298
'0:10.965',1401.464
'0:10.969',1413.185
'0:10.973',1382.415
'0:10.977',1370.694
'0:10.980',1389.743
'0:10.984',1365.561
'0:10.988',1368.497
'0:10.992',1352.384
'0:10.996',1369.954
'0:11.000',1376.566
'0:11.004',1360.452
'0:11.008',1347.992
'0:11.012',1355.320
'0:11.016',1341.403
'0:11.020',1318.678
'0:11.023',1320.158
'0:11.027',1366.301
'0:11.031',1335.531
'0:11.035',1323.810
'0:11.039',1349.448
'0:11.043',1334.075
'0:11.047',1350.188
'0:11.051',1357.516
'0:11.055',1330.399
'0:11.059',1349.448
'0:11.063',1334.791
'0:11.066',1356.037
'0:11.070',1374.369
'0:11.074',1371.433
'0:11.078',1385.351
'0:11.082',1389.003
'0:11.086',1391.939
'0:11.090',1355.320
'0:11.094',1357.516
'0:11.098',1375.826
'0:11.102',1379.479
'0:11.105',1388.287
'0:11.109',1402.204
'0:11.113',1394.135
'0:11.117',1392.679
'0:11.121',1380.958
'0:11.125',1368.497
'0:11.129',1416.121
'0:11.133',1416.860
'0:11.137',1381.698
'0:11.141',1380.218
'0:11.145',1372.890
'0:11.148',1406.596
'0:11.152',1408.052
'0:11.156',1378.762
'0:11.160',1412.445
'0:11.164',1418.317
'0:11.168',1376.566
'0:11.172',1386.807
'0:11.176',1414.664
'0:11.180',1391.199
'0:11.184',1386.090
'0:11.188',1404.400
'0:11.191',1391.939
'0:11.195',1388.287
'0:11.199',1360.452
'0:11.203',1364.845
'0:11.207',1375.086
'0:11.211',1375.826
'0:11.215',1396.332
'0:11.219',1388.287
'0:11.223',1376.566
'0:11.227',1375.086
'0:11.230',1362.649
'0:11.234',1362.649
'0:11.238',1405.856
'0:11.242',1388.287
'0:11.246',1360.452
'0:11.250',1369.237
'0:11.254',1385.351
'0:11.258',1364.105
'0:11.262',1408.052
'0:11.266',1391.199
'0:11.270',1378.762
'0:11.273',1379.479
'0:11.277',1382.415
'0:11.281',1394.135
'0:11.285',1389.743
'0:11.289',1343.599
'0:11.293',1377.282
'0:11.297',1328.203
'0:11.301',1363.365
'0:11.305',1316.482
'0:11.309',1329.682
'0:11.313',1351.644
'0:11.316',1317.961
'0:11.320',1312.089
'0:11.324',1287.908
'0:11.328',1284.972
'0:11.332',1305.501
'0:11.336',1331.139
'0:11.340',1301.825
'0:11.344',1311.350
'0:11.348',1309.893
'0:11.352',1343.599
'0:11.355',1304.021
'0:11.359',1323.070
'0:11.363',1361.909
'0:11.367',1368.497
'0:11.371',1387.547
'0:11.375',1395.615
'0:11.379',1408.792
'0:11.383',1389.003
'0:11.387',1382.415
'0:11.391',1440.302
'0:11.395',1416.860
'0:11.398',1457.155
'0:11.402',1420.513
'0:11.406',1429.298
'0:11.410',1447.631
'0:11.414',1460.808
'0:11.418',1483.510
'0:11.422',1445.411
'0:11.426',1455.676
'0:11.430',1468.876
'0:11.434',1484.250
'0:11.438',1452.023
'0:11.441',1441.019
'0:11.445',1435.910
'0:11.449',1460.808
'0:11.453',1407.336
'0:11.457',1418.317
'0:11.461',1391.939
'0:11.465',1430.778
'0:11.469',1400.007
'0:11.473',1383.894
'0:11.477',1381.698
'0:11.480',1396.332
'0:11.484',1377.282
'0:11.488',1327.463
'0:11.492',1323.070
'0:11.496',1334.075
'0:11.500',1351.644
'0:11.504',1306.957
'0:11.508',1304.021
'0:11.512',1300.369
'0:11.516',1295.236
'0:11.520',1268.859
'0:11.523',1260.813
'0:11.527',1262.270
'0:11.531',1264.466
'0:11.535',1263.010
'0:11.539',1257.138
'0:11.543',1271.055
'0:11.547',1273.251
'0:11.551',1252.005
'0:11.555',1242.481
'0:11.559',1266.662
'0:11.563',1268.142
'0:11.566',1273.251
'0:11.570',1275.470
'0:11.574',1277.667
'0:11.578',1265.946
'0:11.582',1265.946
'0:11.586',1257.877
'0:11.590',1289.387
'0:11.594',1283.515
'0:11.598',1283.515
'0:11.602',1267.402
'0:11.605',1309.893
'0:11.609',1289.387
'0:11.613',1326.746
'0:11.617',1287.191
'0:11.621',1317.961
'0:11.625',1337.727
'0:11.629',1338.467
'0:11.633',1350.188
'0:11.637',1361.909
'0:11.641',1365.561
'0:11.645',1356.777
'0:11.648',1350.188
'0:11.652',1353.841
'0:11.656',1369.954
'0:11.660',1377.282
'0:11.664',1370.694
'0:11.668',1372.890
'0:11.672',1328.942
'0:11.676',1344.316
'0:11.680',1373.630
'0:11.684',1323.810
'0:11.688',1364.105
'0:11.691',1326.746
'0:11.695',1365.561
'0:11.699',1315.742
'0:11.703',1359.713
'0:11.707',1347.252
'0:11.711',1327.463
'0:11.715',1358.233
'0:11.719',1331.878
'0:11.723',1325.267
'0:11.727',1342.860
'0:11.730',1328.203
'0:11.734',1363.365
'0:11.738',1320.158
'0:11.742',1329.682
'0:11.746',1373.630
'0:11.750',1334.075
'0:11.754',1348.708
'0:11.758',1383.154
'0:11.762',1378.762
'0:11.766',1352.384
'0:11.770',1389.003
'0:11.773',1393.419
'0:11.777',1347.992
'0:11.781',1369.237
'0:11.785',1387.547
'0:11.789',1397.071
'0:11.793',1396.332
'0:11.797',1375.826
'0:11.801',1369.954
'0:11.805',1359.713
'0:11.809',1349.448
'0:11.813',1395.615
'0:11.816',1356.777
'0:11.820',1347.992
'0:11.824',1368.497
'0:11.828',1394.135
'0:11.832',1352.384
'0:11.836',1354.580
'0:11.840',1366.301
'0:11.844',1394.875
'0:11.848',1345.056
'0:11.852',1384.611
'0:11.855',1358.233
'0:11.859',1355.320
'0:11.863',1394.875
'0:11.867',1359.713
'0:11.871',1392.679
'0:11.875',1368.497
'0:11.879',1385.351
'0:11.883',1369.237
'0:11.887',1362.649
'0:11.891',1403.660
'0:11.895',1367.758
'0:11.898',1397.071
'0:11.902',1372.890
'0:11.906',1391.199
'0:11.910',1402.204
'0:11.914',1412.445
'0:11.918',1426.385
'0:11.922',1433.690
'0:11.926',1440.302
'0:11.930',1430.038
'0:11.934',1413.924
'0:11.938',1424.166
'0:11.941',1431.494
'0:11.945',1430.038
'0:11.949',1459.351
'0:11.953',1438.106
'0:11.957',1474.725
'0:11.961',1449.087
'0:11.965',1466.657
'0:11.969',1463.004
'0:11.973',1457.155
'0:11.977',1480.597
'0:11.980',1448.347
'0:11.984',1438.106
'0:11.988',1474.725
'0:11.992',1442.498
'0:11.996',1459.351
'0:12.000',1431.494
'0:12.004',1438.106
'0:12.008',1461.548
'0:12.012',1432.974
'0:12.016',1430.778
'0:12.020',1421.970
'0:12.023',1399.268
'0:12.027',1442.498
'0:12.031',1416.860
'0:12.035',1385.351
'0:12.039',1428.581
'0:12.043',1410.249
'0:12.047',1397.071
'0:12.051',1403.660
'0:12.055',1403.660
'0:12.059',1398.528
'0:12.063',1405.140
'0:12.066',1397.811
'0:12.070',1397.071
'0:12.074',1386.090
'0:12.078',1347.992
'0:12.082',1361.909
'0:12.086',1390.483
'0:12.090',1340.663
'0:12.094',1351.644
'0:12.098',1386.807
'0:12.102',1356.037
'0:12.105',1386.090
'0:12.109',1350.188
'0:12.113',1338.467
'0:12.117',1339.924
'0:12.121',1378.022
'0:12.125',1355.320
'0:12.129',1350.928
'0:12.133',1342.120
'0:12.137',1352.384
'0:12.141',1358.233
'0:12.145',1353.841
'0:12.148',1356.777
'0:12.152',1361.909
'0:12.156',1383.894
'0:12.160',1392.679
'0:12.164',1375.826
'0:12.168',1384.611
'0:12.172',1400.007
'0:12.176',1373.630
'0:12.180',1371.433
'0:12.184',1400.007
'0:12.188',1395.615
'0:12.191',1405.140
'0:12.195',1406.596
'0:12.199',1406.596
'0:12.203',1360.452
'0:12.207',1371.433
'0:12.211',1386.807
'0:12.215',1394.875
'0:12.219',1390.483
'0:12.223',1342.860
'0:12.227',1354.580
'0:12.230',1373.630
'0:12.234',1330.399
'0:12.238',1329.682
'0:12.242',1364.105
'0:12.246',1313.546
'0:12.250',1340.663
'0:12.254',1343.599
'0:12.258',1340.663
'0:12.262',1356.777
'0:12.266',1334.791
'0:12.270',1368.497
'0:12.273',1323.070
'0:12.277',1356.777
'0:12.281',1380.958
'0:12.285',1347.992
'0:12.289',1346.512
'0:12.293',1365.561
'0:12.297',1394.135
'0:12.301',1396.332
'0:12.305',1400.724
'0:12.309',1393.419
'0:12.313',1369.237
'0:12.316',1388.287
'0:12.320',1381.698
'0:12.324',1411.728
'0:12.328',1415.381
'0:12.332',1402.204
'0:12.336',1403.660
'0:12.340',1399.268
'0:12.344',1418.317
'0:12.348',1398.528
'0:12.352',1386.807
'0:12.355',1386.090
'0:12.359',1406.596
'0:12.363',1368.497
'0:12.367',1403.660
'0:12.371',1388.287
'0:12.375',1372.173
'0:12.379',1361.909
'0:12.383',1410.988
'0:12.387',1394.135
'0:12.391',1386.090
'0:12.395',1365.561
'0:12.398',1410.249
'0:12.402',1372.890
'0:12.406',1380.958
'0:12.410',1408.052
'0:12.414',1377.282
'0:12.418',1401.464
'0:12.422',1435.910
'0:12.426',1402.920
'0:12.430',1405.856
'0:12.434',1420.513
'0:12.438',1443.215
'0:12.441',1442.498
'0:12.445',1463.004
'0:12.449',1466.657
'0:12.453',1419.057
'0:12.457',1424.906
'0:12.461',1430.038
'0:12.465',1445.411
'0:12.469',1461.548
'0:12.473',1410.249
'0:12.477',1450.544
'0:12.480',1413.185
'0:12.484',1397.811
'0:12.488',1424.166
'0:12.492',1376.566
'0:12.496',1415.381
'0:12.500',1378.022
'0:12.504',1361.909
'0:12.508',1383.894
'0:12.512',1356.037
'0:12.516',1325.267
'0:12.520',1344.316
'0:12.523',1309.153
'0:12.527',1348.708
'0:12.531',1298.172
'0:12.535',1288.648
'0:12.539',1285.712
'0:12.543',1299.629
'0:12.547',1304.761
'0:12.551',1276.927
'0:12.555',1265.206
'0:12.559',1263.726
'0:12.563',1302.565
'0:12.566',1306.957
'0:12.570',1306.957
'0:12.574',1279.123
'0:12.578',1272.534
'0:12.582',1263.010
'0:12.586',1268.859
'0:12.590',1290.844
'0:12.594',1312.829
'0:12.598',1300.369
'0:12.602',1295.236
'0:12.605',1305.501
'0:12.609',1280.579
'0:12.613',1320.874
'0:12.617',1323.070
'0:12.621',1291.584
'0:12.625',1318.678
'0:12.629',1339.207
'0:12.633',1305.501
'0:12.637',1306.957
'0:12.641',1339.207
'0:12.645',1308.437
'0:12.648',1315.742
'0:12.652',1295.976
'0:12.656',1299.629
'0:12.660',1314.286
'0:12.664',1337.727
'0:12.668',1304.021
'0:12.672',1331.878
'0:12.676',1342.120
'0:12.680',1343.599
'0:12.684',1334.075
'0:12.688',1329.682
'0:12.691',1323.810
'0:12.695',1331.878
'0:12.699',1284.255
'0:12.703',1309.153
'0:12.707',1323.810
'0:12.711',1312.089
'0:12.715',1298.172
'0:12.719',1293.780
'0:12.723',1326.746
'0:12.727',1293.780
'0:12.730',1309.893
'0:12.734',1280.579
'0:12.738',1309.893
'0:12.742',1276.927
'0:12.746',1295.976
'0:12.750',1324.550
'0:12.754',1295.976
'0:12.758',1320.874
'0:12.762',1311.350
'0:12.766',1295.236
'0:12.770',1327.463
'0:12.773',1300.369
'0:12.777',1326.746
'0:12.781',1350.188
'0:12.785',1356.037
'0:12.789',1363.365
'0:12.793',1368.497
'0:12.797',1357.516
'0:12.801',1350.188
'0:12.805',1358.233
'0:12.809',1353.841
'0:12.813',1361.909
'0:12.816',1352.384
'0:12.820',1377.282
'0:12.824',1403.660
'0:12.828',1389.743
'0:12.832',1368.497
'0:12.836',1413.185
'0:12.840',1394.135
'0:12.844',1392.679
'0:12.848',1399.268
'0:12.852',1396.332
'0:12.855',1387.547
'0:12.859',1386.807
'0:12.863',1420.513
'0:12.867',1420.513
'0:12.871',1401.464
'0:12.875',1401.464
'0:12.879',1403.660
'0:12.883',1378.022
'0:12.887',1395.615
'0:12.891',1380.958
'0:12.895',1386.090
'0:12.898',1416.860
'0:12.902',1414.664
'0:12.906',1382.415
'0:12.910',1419.773
'0:12.914',1428.581
'0:12.918',1423.449
'0:12.922',1421.970
'0:12.926',1431.494
'0:12.930',1413.924
'0:12.934',1389.743
'0:12.938',1389.003
'0:12.941',1427.842
'0:12.945',1427.102
'0:12.949',1432.974
'0:12.953',1399.268
'0:12.957',1430.038
'0:12.961',1443.215
'0:12.965',1401.464
'0:12.969',1419.057
'0:12.973',1448.347
'0:12.977',1413.185
'0:12.980',1420.513
'0:12.984',1434.430
'0:12.988',1445.411
'0:12.992',1450.544
'0:12.996',1475.465
'0:13.000',1474.725
'0:13.004',1475.465
'0:13.008',1449.087
'0:13.012',1454.936
'0:13.016',1443.215
'0:13.020',1433.690
'0:13.023',1467.397
'0:13.027',1457.872
'0:13.031',1427.102
'0:13.035',1435.910
'0:13.039',1460.808
'0:13.043',1417.577
'0:13.047',1457.872
'0:13.051',1410.249
'0:13.055',1454.936
'0:13.059',1413.924
'0:13.063',1446.151
'0:13.066',1410.988
'0:13.070',1409.532
'0:13.074',1407.336
'0:13.078',1379.479
'0:13.082',1380.958
'0:13.086',1413.924
'0:13.090',1409.532
'0:13.094',1391.199
'0:13.098',1351.644
'0:13.102',1369.954
'0:13.105',1375.826
'0:13.109',1363.365
'0:13.113',1338.467
'0:13.117',1346.512
'0:13.121',1360.452
'0:13.125',1357.516
'0:13.129',1331.878
'0:13.133',1359.713
'0:13.137',1336.271
'0:13.141',1321.614
'0:13.145',1350.188
'0:13.148',1356.037
'0:13.152',1339.207
'0:13.156',1328.203
'0:13.160',1351.644
'0:13.164',1363.365
'0:13.168',1376.566
'0:13.172',1363.365
'0:13.176',1368.497
'0:13.180',1369.954
'0:13.184',1362.649
'0:13.188',1365.561
'0:13.191',1394.135
'0:13.195',1400.007
'0:13.199',1383.154
'0:13.203',1396.332
'0:13.207',1402.204
'0:13.211',1407.336
'0:13.215',1378.022
'0:13.219',1359.713
'0:13.223',1361.169
'0:13.227',1385.351
'0:13.230',1408.052
'0:13.234',1369.237
'0:13.238',1364.105
'0:13.242',1364.845
'0:13.246',1373.630
'0:13.250',1374.369
'0:13.254',1412.445
'0:13.258',1380.958
'0:13.262',1362.649
'0:13.266',1393.419
'0:13.270',1401.464
'0:13.273',1402.204
'0:13.277',1391.199
'0:13.281',1361.169
'0:13.285',1405.140
'0:13.289',1411.728
'0:13.293',1396.332
'0:13.297',1364.105
'0:13.301',1393.419
'0:13.305',1400.724
'0:13.309',1368.497
'0:13.313',1389.743
'0:13.316',1411.728
'0:13.320',1416.860
'0:13.324',1410.249
'0:13.328',1406.596
'0:13.332',1370.694
'0:13.336',1408.052
'0:13.340',1366.301
'0:13.344',1402.204
'0:13.348',1398.528
'0:13.352',1369.954
'0:13.355',1371.433
'0:13.359',1390.483
'0:13.363',1337.727
'0:13.367',1353.841
'0:13.371',1355.320
'0:13.375',1342.860
'0:13.379',1364.845
'0:13.383',1347.252
'0:13.387',1342.860
'0:13.391',1301.825
'0:13.395',1346.512
'0:13.398',1313.546
'0:13.402',1309.893
'0:13.406',1284.972
'0:13.410',1323.810
'0:13.414',1328.203
'0:13.418',1325.267
'0:13.422',1311.350
'0:13.426',1300.369
'0:13.430',1301.108
'0:13.434',1348.708
'0:13.438',1312.089
'0:13.441',1334.791
'0:13.445',1369.954
'0:13.449',1382.415
'0:13.453',1377.282
'0:13.457',1402.204
'0:13.461',1384.611
'0:13.465',1402.204
'0:13.469',1388.287
'0:13.473',1433.690
'0:13.477',1443.955
'0:13.480',1434.430
'0:13.484',1420.513
'0:13.488',1430.038
'0:13.492',1436.626
'0:13.496',1437.366
'0:13.500',1442.498
'0:13.504',1446.891
'0:13.508',1476.181
'0:13.512',1438.823
'0:13.516',1460.808
'0:13.520',1447.631
'0:13.523',1435.170
'0:13.527',1426.385
'0:13.531',1447.631
'0:13.535',1433.690
'0:13.539',1422.709
'0:13.543',1373.630
'0:13.547',1394.875
'0:13.551',1365.561
'0:13.555',1343.599
'0:13.559',1323.810
'0:13.563',1287.191
'0:13.566',1256.421
'0:13.570',1271.795
'0:13.574',1262.270
'0:13.578',1259.334
'0:13.582',1208.058
'0:13.586',1224.911
'0:13.590',1172.156
'0:13.594',1213.930
'0:13.598',1198.533
'0:13.602',1200.730
'0:13.605',1192.685
'0:13.609',1187.552
'0:13.613',1189.009
'0:13.617',1191.205
'0:13.621',1186.073
'0:13.625',1180.224
'0:13.629',1189.749
'0:13.633',1172.156
'0:13.637',1180.964
'0:13.641',1167.023
'0:13.645',1217.583
'0:13.648',1180.964
'0:13.652',1216.843
'0:13.656',1237.372
'0:13.660',1237.372
'0:13.664',1217.583
'0:13.668',1224.171
'0:13.672',1244.700
'0:13.676',1293.040
'0:13.680',1290.104
'0:13.684',1265.206
'0:13.688',1320.874
'0:13.691',1298.172
'0:13.695',1317.961
'0:13.699',1314.286
'0:13.703',1343.599
'0:13.707',1330.399
'0:13.711',1331.878
'0:13.715',1371.433
'0:13.719',1368.497
'0:13.723',1338.467
'0:13.727',1389.003
'0:13.730',1355.320
'0:13.734',1369.237
'0:13.738',1400.724
'0:13.742',1378.762
'0:13.746',1372.173
'0:13.750',1362.649
'0:13.754',1367.041
'0:13.758',1389.003
'0:13.762',1400.007
'0:13.766',1383.894
'0:13.770',1399.268
'0:13.773',1402.920
'0:13.777',1393.419
'0:13.781',1395.615
'0:13.785',1402.204
'0:13.789',1408.792
'0:13.793',1402.204
'0:13.797',1403.660
'0:13.801',1357.516
'0:13.805',1386.090
'0:13.809',1402.920
'0:13.813',1396.332
'0:13.816',1388.287
'0:13.820',1407.336
'0:13.824',1369.237
'0:13.828',1361.169
'0:13.832',1364.105
'0:13.836',1367.041
'0:13.840',1367.041
'0:13.844',1393.419
'0:13.848',1401.464
'0:13.852',1378.762
'0:13.855',1361.909
'0:13.859',1374.369
'0:13.863',1395.615
'0:13.867',1393.419
'0:13.871',1403.660
'0:13.875',1404.400
'0:13.879',1405.140
'0:13.883',1358.233
'0:13.887',1371.433
'0:13.891',1386.090
'0:13.895',1394.135
'0:13.898',1408.792
'0:13.902',1412.445
'0:13.906',1384.611
'0:13.910',1368.497
'0:13.914',1367.041
'0:13.918',1382.415
'0:13.922',1411.728
'0:13.926',1416.860
'0:13.930',1380.218
'0:13.934',1373.630
'0:13.938',1383.894
'0:13.941',1380.218
'0:13.945',1381.698
'0:13.949',1385.351
'0:13.953',1388.287
'0:13.957',1398.528
'0:13.961',1402.204
'0:13.965',1411.728
'0:13.969',1436.626
'0:13.973',1438.823
'0:13.977',1452.740
'0:13.980',1452.023
'0:13.984',1440.302
'0:13.988',1437.366
'0:13.992',1443.215
'0:13.996',1443.955
'0:14.000',1430.778
'0:14.004',1422.709
'0:14.008',1468.876
'0:14.012',1456.415
'0:14.016',1437.366
'0:14.020',1438.106
'0:14.023',1456.415
'0:14.027',1473.269
'0:14.031',1443.955
'0:14.035',1432.234
'0:14.039',1471.789
'0:14.043',1465.200
'0:14.047',1463.004
'0:14.051',1452.023
'0:14.055',1447.631
'0:14.059',1429.298
'0:14.063',1421.970
'0:14.066',1446.151
'0:14.070',1444.695
'0:14.074',1427.102
'0:14.078',1406.596
'0:14.082',1385.351
'0:14.086',1398.528
'0:14.090',1396.332
'0:14.094',1408.052
'0:14.098',1375.086
'0:14.102',1352.384
'0:14.105',1370.694
'0:14.109',1395.615
'0:14.113',1363.365
'0:14.117',1380.958
'0:14.121',1337.727
'0:14.125',1378.762
'0:14.129',1345.796
'0:14.133',1347.992
'0:14.137',1372.173
'0:14.141',1368.497
'0:14.145',1340.663
'0:14.148',1328.942
'0:14.152',1353.841
'0:14.156',1364.845
'0:14.160',1328.203
'0:14.164',1378.762
'0:14.168',1349.448
'0:14.172',1383.894
'0:14.176',1353.841
'0:14.180',1389.003
'0:14.184',1369.954
'0:14.188',1406.596
'0:14.191',1432.234
'0:14.195',1440.302
'0:14.199',1441.759
'0:14.203',1449.827
'0:14.207',1433.690
'0:14.211',1434.430
'0:14.215',1461.548
'0:14.219',1447.631
'0:14.223',1432.974
'0:14.227',1461.548
'0:14.230',1476.181
'0:14.234',1442.498
'0:14.238',1432.234
'0:14.242',1472.529
'0:14.246',1470.333
'0:14.250',1463.744
'0:14.254',1463.004
'0:14.258',1433.690
'0:14.262',1413.924
'0:14.266',1446.151
'0:14.270',1405.140
'0:14.273',1388.287
'0:14.277',1404.400
'0:14.281',1411.728
'0:14.285',1367.041
'0:14.289',1371.433
'0:14.293',1364.845
'0:14.297',1355.320
'0:14.301',1386.807
'0:14.305',1370.694
'0:14.309',1343.599
'0:14.313',1351.644
'0:14.316',1362.649
'0:14.320',1323.810
'0:14.324',1361.169
'0:14.328',1335.531
'0:14.332',1317.222
'0:14.336',1358.233
'0:14.340',1351.644
'0:14.344',1350.928
'0:14.348',1335.531
'0:14.352',1339.207
'0:14.355',1336.988
'0:14.359',1330.399
'0:14.363',1317.961
'0:14.367',1339.924
'0:14.371',1365.561
'0:14.375',1323.070
'0:14.379',1373.630
'0:14.383',1358.973
'0:14.387',1339.207
'0:14.391',1353.124
'0:14.395',1367.758
'0:14.398',1320.158
'0:14.402',1366.301
'0:14.406',1345.796
'0:14.410',1317.222
'0:14.414',1326.006
'0:14.418',1336.988
'0:14.422',1325.267
'0:14.426',1336.271
'0:14.430',1304.021
'0:14.434',1339.207
'0:14.438',1302.565
'0:14.441',1332.595
'0:14.445',1328.203
'0:14.449',1342.120
'0:14.453',1325.267
'0:14.457',1364.105
'0:14.461',1327.463
'0:14.465',1350.188
'0:14.469',1373.630
'0:14.473',1353.124
'0:14.477',1406.596
'0:14.480',1397.071
'0:14.484',1386.807
'0:14.488',1426.385
'0:14.492',1400.724
'0:14.496',1446.891
'0:14.500',1442.498
'0:14.504',1435.170
'0:14.508',1464.461
'0:14.512',1476.921
'0:14.516',1441.759
'0:14.520',1454.936
'0:14.523',1476.921
'0:14.527',1488.642
'0:14.531',1474.725
'0:14.535',1474.725
'0:14.539',1435.910
'0:14.543',1473.985
'0:14.547',1449.827
'0:14.551',1430.038
'0:14.555',1420.513
'0:14.559',1405.140
'0:14.563',1432.974
'0:14.566',1416.860
'0:14.570',1376.566
'0:14.574',1368.497
'0:14.578',1363.365
'0:14.582',1367.758
'0:14.586',1380.958
'0:14.590',1369.954
'0:14.594',1352.384
'0:14.598',1323.070
'0:14.602',1303.304
'0:14.605',1334.075
'0:14.609',1306.217
'0:14.613',1309.893
'0:14.617',1312.829
'0:14.621',1304.761
'0:14.625',1286.451
'0:14.629',1271.795
'0:14.633',1252.005
'0:14.637',1260.813
'0:14.641',1282.059
'0:14.645',1241.764
'0:14.648',1275.470
'0:14.652',1239.568
'0:14.656',1227.107
'0:14.660',1248.353
'0:14.664',1258.617
'0:14.668',1231.500
'0:14.672',1265.206
'0:14.676',1273.251
'0:14.680',1235.176
'0:14.684',1257.877
'0:14.688',1274.731
'0:14.691',1295.236
'0:14.695',1293.780
'0:14.699',1292.300
'0:14.703',1279.863
'0:14.707',1282.059
'0:14.711',1296.716
'0:14.715',1284.255
'0:14.719',1297.433
'0:14.723',1326.746
'0:14.727',1306.217
'0:14.730',1303.304
'0:14.734',1344.316
'0:14.738',1306.217
'0:14.742',1350.188
'0:14.746',1309.893
'0:14.750',1356.037
'0:14.754',1328.203
'0:14.758',1312.089
'0:14.762',1361.909
'0:14.766',1341.403
'0:14.770',1323.810
'0:14.773',1361.909
'0:14.777',1325.267
'0:14.781',1361.909
'0:14.785',1317.222
'0:14.789',1346.512
'0:14.793',1312.829
'0:14.797',1352.384
'0:14.801',1312.829
'0:14.805',1343.599
'0:14.809',1310.633
'0:14.813',1341.403
'0:14.816',1334.791
'0:14.820',1314.286
'0:14.824',1357.516
'0:14.828',1311.350
'0:14.832',1358.233
'0:14.836',1347.992
'0:14.840',1330.399
'0:14.844',1347.252
'0:14.848',1361.169
'0:14.852',1339.207
'0:14.855',1387.547
'0:14.859',1358.973
'0:14.863',1371.433
'0:14.867',1380.958
'0:14.871',1403.660
'0:14.875',1372.890
'0:14.879',1370.694
'0:14.883',1384.611
'0:14.887',1389.743
'0:14.891',1353.841
'0:14.895',1399.268
'0:14.898',1368.497
'0:14.902',1396.332
'0:14.906',1367.041
'0:14.910',1355.320
'0:14.914',1356.777
'0:14.918',1394.135
'0:14.922',1361.169
'0:14.926',1372.890
'0:14.930',1365.561
'0:14.934',1394.135
'0:14.938',1355.320
'0:14.941',1378.762
'0:14.945',1390.483
'0:14.949',1398.528
'0:14.953',1396.332
'0:14.957',1383.154
'0:14.961',1361.169
'0:14.965',1361.909
'0:14.969',1410.249
'0:14.973',1376.566
'0:14.977',1419.057
'0:14.980',1375.086
'0:14.984',1416.860
'0:14.988',1427.102
'0:14.992',1414.664
'0:14.996',1389.743
'0:15.000',1385.351
'0:15.004',1388.287
'0:15.008',1405.140
'0:15.012',1418.317
'0:15.016',1412.445
'0:15.020',1397.811
'0:15.023',1394.875
'0:15.027',1397.071
'0:15.031',1390.483
'0:15.035',1388.287
'0:15.039',1415.381
'0:15.043',1418.317
'0:15.047',1441.759
'0:15.051',1431.494
'0:15.055',1420.513
'0:15.059',1442.498
'0:15.063',1446.151
'0:15.066',1439.562
'0:15.070',1424.906
'0:15.074',1400.724
'0:15.078',1426.385
'0:15.082',1441.759
'0:15.086',1430.778
'0:15.090',1394.135
'0:15.094',1415.381
'0:15.098',1405.140
'0:15.102',1405.140
'0:15.105',1427.842
'0:15.109',1387.547
'0:15.113',1434.430
'0:15.117',1385.351
'0:15.121',1416.121
'0:15.125',1417.577
'0:15.129',1387.547
'0:15.133',1423.449
'0:15.137',1378.022
'0:15.141',1421.970
'0:15.145',1405.140
'0:15.148',1389.743
'0:15.152',1370.694
'0:15.156',1405.140
'0:15.160',1376.566
'0:15.164',1368.497
'0:15.168',1407.336
'0:15.172',1366.301
'0:15.176',1373.630
'0:15.180',1358.233
'0:15.184',1401.464
'0:15.188',1383.894
'0:15.191',1360.452
'0:15.195',1401.464
'0:15.199',1355.320
'0:15.203',1394.875
'0:15.207',1378.762
'0:15.211',1365.561
'0:15.215',1374.369
'0:15.219',1386.807
'0:15.223',1385.351
'0:15.227',1384.611
'0:15.230',1389.743
'0:15.234',1403.660
'0:15.238',1414.664
'0:15.242',1414.664
'0:15.246',1452.023
'0:15.250',1468.136
'0:15.254',1452.740
'0:15.258',1440.302
'0:15.262',1437.366
'0:15.266',1486.446
'0:15.270',1461.548
'0:15.273',1444.695
'0:15.277',1470.333
'0:15.281',1489.382
'0:15.285',1459.351
'0:15.289',1446.151
'0:15.293',1489.382
'0:15.297',1464.461
'0:15.301',1457.872
'0:15.305',1440.302
'0:15.309',1444.695
'0:15.313',1459.351
'0:15.316',1447.631
'0:15.320',1427.102
'0:15.324',1404.400
'0:15.328',1387.547
'0:15.332',1404.400
'0:15.336',1421.970
'0:15.340',1414.664
'0:15.344',1405.856
'0:15.348',1408.792
'0:15.352',1391.199
'0:15.355',1355.320
'0:15.359',1383.154
'0:15.363',1394.875
'0:15.367',1345.056
'0:15.371',1351.644
'0:15.375',1386.807
'0:15.379',1340.663
'0:15.383',1380.958
'0:15.387',1364.105
'0:15.391',1330.399
'0:15.395',1370.694
'0:15.398',1332.595
'0:15.402',1336.271
'0:15.406',1326.746
'0:15.410',1322.354
'0:15.414',1296.716
'0:15.418',1309.153
'0:15.422',1318.678
'0:15.426',1279.123
'0:15.430',1274.731
'0:15.434',1312.089
'0:15.438',1317.222
'0:15.441',1282.059
'0:15.445',1285.712
'0:15.449',1275.470
'0:15.453',1271.795
'0:15.457',1285.712
'0:15.461',1328.942
'0:15.465',1299.629
'0:15.469',1345.056
'0:15.473',1306.957
'0:15.477',1365.561
'0:15.480',1342.120
'0:15.484',1340.663
'0:15.488',1354.580
'0:15.492',1383.154
'0:15.496',1391.199
'0:15.500',1410.988
'0:15.504',1444.695
'0:15.508',1446.151
'0:15.512',1432.974
'0:15.516',1470.333
'0:15.520',1468.876
'0:15.523',1456.415
'0:15.527',1493.035
'0:15.531',1468.876
'0:15.535',1460.808
'0:15.539',1456.415
'0:15.543',1467.397
'0:15.547',1498.907
'0:15.551',1460.808
'0:15.555',1453.480
'0:15.559',1434.430
'0:15.563',1471.789
'0:15.566',1429.298
'0:15.570',1405.140
'0:15.574',1394.875
'0:15.578',1389.003
'0:15.582',1399.268
'0:15.586',1372.173
'0:15.590',1361.909
'0:15.594',1356.037
'0:15.598',1362.649
'0:15.602',1334.075
'0:15.605',1350.928
'0:15.609',1347.252
'0:15.613',1316.482
'0:15.617',1284.972
'0:15.621',1308.437
'0:15.625',1308.437
'0:15.629',1279.863
'0:15.633',1292.300
'0:15.637',1276.927
'0:15.641',1284.972
'0:15.645',1272.534
'0:15.648',1300.369
'0:15.652',1263.726
'0:15.656',1253.485
'0:15.660',1298.172
'0:15.664',1297.433
'0:15.668',1306.217
'0:15.672',1308.437
'0:15.676',1304.021
'0:15.680',1282.776
'0:15.684',1315.025
'0:15.688',1284.255
'0:15.691',1315.742
'0:15.695',1332.595
'0:15.699',1306.957
'0:15.703',1304.021
'0:15.707',1322.354
'0:15.711',1355.320
'0:15.715',1361.909
'0:15.719',1341.403
'0:15.723',1336.988
'0:15.727',1335.531
'0:15.730',1386.090
'0:15.734',1358.973
'0:15.738',1372.890
'0:15.742',1403.660
'0:15.746',1367.041
'0:15.750',1408.052
'0:15.754',1406.596
'0:15.758',1383.154
'0:15.762',1412.445
'0:15.766',1421.970
'0:15.770',1430.038
'0:15.773',1416.860
'0:15.777',1382.415
'0:15.781',1396.332
'0:15.785',1388.287
'0:15.789',1402.204
'0:15.793',1391.939
'0:15.797',1364.105
'0:15.801',1383.154
'0:15.805',1390.483
'0:15.809',1369.237
'0:15.813',1355.320
'0:15.816',1340.663
'0:15.820',1330.399
'0:15.824',1358.973
'0:15.828',1331.139
'0:15.832',1314.286
'0:15.836',1318.678
'0:15.840',1341.403
'0:15.844',1320.158
'0:15.848',1292.300
'0:15.852',1316.482
'0:15.855',1330.399
'0:15.859',1321.614
'0:15.863',1276.927
'0:15.867',1306.957
'0:15.871',1302.565
'0:15.875',1278.383
'0:15.879',1312.089
'0:15.883',1331.878
'0:15.887',1285.712
'0:15.891',1289.387
'0:15.895',1291.584
'0:15.898',1326.006
'0:15.902',1349.448
'0:15.906',1331.878
'0:15.910',1312.829
'0:15.914',1344.316
'0:15.918',1353.124
'0:15.922',1325.267
'0:15.926',1367.041
'0:15.930',1342.120
'0:15.934',1362.649
'0:15.938',1357.516
'0:15.941',1359.713
'0:15.945',1388.287
'0:15.949',1397.071
'0:15.953',1400.007
'0:15.957',1385.351
'0:15.961',1365.561
'0:15.965',1358.233
'0:15.969',1399.268
'0:15.973',1361.169
'0:15.977',1381.698
'0:15.980',1402.920
'0:15.984',1397.811
'0:15.988',1399.268
'0:15.992',1366.301
'0:15.996',1363.365
'0:16.000',1391.199
'0:16.004',1392.679
'0:16.008',1398.528
'0:16.012',1370.694
'0:16.016',1402.204
'0:16.020',1411.728
'0:16.023',1399.268
'0:16.027',1386.807
'0:16.031',1365.561
'0:16.035',1386.090
'0:16.039',1410.988
'0:16.043',1391.199
'0:16.047',1372.890
'0:16.051',1396.332
'0:16.055',1383.894
'0:16.059',1369.954
'0:16.063',1394.135
'0:16.066',1412.445
'0:16.070',1397.811
'0:16.074',1375.086
'0:16.078',1395.615
'0:16.082',1422.709
'0:16.086',1382.415
'0:16.090',1375.086
'0:16.094',1386.807
'0:16.098',1405.856
'0:16.102',1419.057
'0:16.105',1373.630
'0:16.109',1395.615
'0:16.113',1413.924
'0:16.117',1380.218
'0:16.121',1405.856
'0:16.125',1358.233
'0:16.129',1375.086
'0:16.133',1387.547
'0:16.137',1362.649
'0:16.141',1387.547
'0:16.145',1347.252
'0:16.148',1383.894
'0:16.152',1356.037
'0:16.156',1347.252
'0:16.160',1380.218
'0:16.164',1334.075
'0:16.168',1378.762
'0:16.172',1345.796
'0:16.176',1326.006
'0:16.180',1345.056
'0:16.184',1353.124
'0:16.188',1333.335
'0:16.191',1321.614
'0:16.195',1372.173
'0:16.199',1328.942
'0:16.203',1361.169
'0:16.207',1348.708
'0:16.211',1331.139
'0:16.215',1324.550
'0:16.219',1375.826
'0:16.223',1338.467
'0:16.227',1378.762
'0:16.230',1354.580
'0:16.234',1386.807
'0:16.238',1346.512
'0:16.242',1355.320
'0:16.246',1394.135
'0:16.250',1369.954
'0:16.254',1349.448
'0:16.258',1350.928
'0:16.262',1363.365
'0:16.266',1367.041
'0:16.270',1359.713
'0:16.273',1356.777
'0:16.277',1359.713
'0:16.281',1365.561
'0:16.285',1378.762
'0:16.289',1389.743
'0:16.293',1410.988
'0:16.297',1383.154
'0:16.301',1378.022
'0:16.305',1368.497
'0:16.309',1372.173
'0:16.313',1374.369
'0:16.316',1392.679
'0:16.320',1413.185
'0:16.324',1366.301
'0:16.328',1379.479
'0:16.332',1404.400
'0:16.336',1361.909
'0:16.340',1378.022
'0:16.344',1398.528
'0:16.348',1408.052
'0:16.352',1374.369
'0:16.355',1366.301
'0:16.359',1396.332
'0:16.363',1390.483
'0:16.367',1355.320
'0:16.371',1376.566
'0:16.375',1404.400
'0:16.379',1356.037
'0:16.383',1397.811
'0:16.387',1388.287
'0:16.391',1387.547
'0:16.395',1405.140
'0:16.398',1356.777
'0:16.402',1383.894
'0:16.406',1374.369
'0:16.410',1386.807
'0:16.414',1348.708
'0:16.418',1393.419
'0:16.422',1376.566
'0:16.426',1345.056
'0:16.430',1378.762
'0:16.434',1353.841
'0:16.438',1323.070
'0:16.441',1356.777
'0:16.445',1345.056
'0:16.449',1308.437
'0:16.453',1304.021
'0:16.457',1302.565
'0:16.461',1316.482
'0:16.465',1309.153
'0:16.469',1306.957
'0:16.473',1303.304
'0:16.477',1254.941
'0:16.480',1273.991
'0:16.484',1271.055
'0:16.488',1251.289
'0:16.492',1273.991
'0:16.496',1262.270
'0:16.500',1260.074
'0:16.504',1252.005
'0:16.508',1263.726
'0:16.512',1279.123
'0:16.516',1340.663
'0:16.520',1323.810
'0:16.523',1374.369
'0:16.527',1351.644
'0:16.531',1378.022
'0:16.535',1432.234
'0:16.539',1440.302
'0:16.543',1444.695
'0:16.547',1468.876
'0:16.551',1517.956
'0:16.555',1550.182
'0:16.559',1534.809
'0:16.563',1586.825
'0:16.566',1610.266
'0:16.570',1622.704
'0:16.574',1619.051
'0:16.578',1639.557
'0:16.582',1620.508
'0:16.586',1622.704
'0:16.590',1634.425
'0:16.594',1646.885
'0:16.598',1614.659
'0:16.602',1599.262
'0:16.605',1592.673
'0:16.609',1598.545
'0:16.613',1586.825
'0:16.617',1572.168
'0:16.621',1534.809
'0:16.625',1548.726
'0:16.629',1543.594
'0:16.633',1524.544
'0:16.637',1475.465
'0:16.641',1477.661
'0:16.645',1472.529
'0:16.648',1454.936
'0:16.652',1426.385
'0:16.656',1420.513
'0:16.660',1401.464
'0:16.664',1347.992
'0:16.668',1372.890
'0:16.672',1345.056
'0:16.676',1308.437
'0:16.680',1345.056
'0:16.684',1317.222
'0:16.688',1286.451
'0:16.691',1317.961
'0:16.695',1264.466
'0:16.699',1296.716
'0:16.703',1268.142
'0:16.707',1260.074
'0:16.711',1279.123
'0:16.715',1273.991
'0:16.719',1274.731
'0:16.723',1227.107
'0:16.727',1262.270
'0:16.730',1220.519
'0:16.734',1252.005
'0:16.738',1209.514
'0:16.742',1208.058
'0:16.746',1251.289
'0:16.750',1241.024
'0:16.754',1221.235
'0:16.758',1260.813
'0:16.762',1211.734
'0:16.766',1262.270
'0:16.770',1239.568
'0:16.773',1273.251
'0:16.777',1231.500
'0:16.781',1262.270
'0:16.785',1240.285
'0:16.789',1274.731
'0:16.793',1296.716
'0:16.797',1304.021
'0:16.801',1295.976
'0:16.805',1298.912
'0:16.809',1271.055
'0:16.813',1274.731
'0:16.816',1303.304
'0:16.820',1327.463
'0:16.824',1319.418
'0:16.828',1285.712
'0:16.832',1331.139
'0:16.836',1312.829
'0:16.840',1293.780
'0:16.844',1335.531
'0:16.848',1290.844
'0:16.852',1332.595
'0:16.855',1333.335
'0:16.859',1312.829
'0:16.863',1308.437
'0:16.867',1296.716
'0:16.871',1334.791
'0:16.875',1315.742
'0:16.879',1283.515
'0:16.883',1331.139
'0:16.887',1305.501
'0:16.891',1283.515
'0:16.895',1320.158
'0:16.898',1309.893
'0:16.902',1292.300
'0:16.906',1293.780
'0:16.910',1297.433
'0:16.914',1304.761
'0:16.918',1357.516
'0:16.922',1337.727
'0:16.926',1317.222
'0:16.930',1366.301
'0:16.934',1325.267
'0:16.938',1361.909
'0:16.941',1331.878
'0:16.945',1373.630
'0:16.949',1371.433
'0:16.953',1368.497
'0:16.957',1366.301
'0:16.961',1345.056
'0:16.965',1389.003
'0:16.969',1380.958
'0:16.973',1386.807
'0:16.977',1374.369
'0:16.980',1391.199
'0:16.984',1407.336
'0:16.988',1422.709
'0:16.992',1427.102
'0:16.996',1416.121
'0:17.000',1407.336
'0:17.004',1460.068
'0:17.008',1443.215
'0:17.012',1438.823
'0:17.016',1474.725
'0:17.020',1443.215
'0:17.023',1465.200
'0:17.027',1501.843
'0:17.031',1471.072
'0:17.035',1475.465
'0:17.039',1510.627
'0:17.043',1468.136
'0:17.047',1481.314
'0:17.051',1510.627
'0:17.055',1470.333
'0:17.059',1503.299
'0:17.063',1463.004
'0:17.066',1492.318
'0:17.070',1460.808
'0:17.074',1484.989
'0:17.078',1449.087
'0:17.082',1466.657
'0:17.086',1432.974
'0:17.090',1452.740
'0:17.094',1408.792
'0:17.098',1422.709
'0:17.102',1436.626
'0:17.105',1389.003
'0:17.109',1386.090
'0:17.113',1373.630
'0:17.117',1386.090
'0:17.121',1386.807
'0:17.125',1342.860
'0:17.129',1325.267
'0:17.133',1336.988
'0:17.137',1330.399
'0:17.141',1324.550
'0:17.145',1290.104
'0:17.148',1331.878
'0:17.152',1290.844
'0:17.156',1282.059
'0:17.160',1306.217
'0:17.164',1285.712
'0:17.168',1271.055
'0:17.172',1293.780
'0:17.176',1298.912
'0:17.180',1290.104
'0:17.184',1290.844
'0:17.188',1303.304
'0:17.191',1305.501
'0:17.195',1315.025
'0:17.199',1314.286
'0:17.203',1301.108
'0:17.207',1281.319
'0:17.211',1317.222
'0:17.215',1284.255
'0:17.219',1298.172
'0:17.223',1328.942
'0:17.227',1334.075
'0:17.230',1306.217
'0:17.234',1331.139
'0:17.238',1344.316
'0:17.242',1361.169
'0:17.246',1328.942
'0:17.250',1370.694
'0:17.254',1381.698
'0:17.258',1376.566
'0:17.262',1347.252
'0:17.266',1394.135
'0:17.270',1386.090
'0:17.273',1379.479
'0:17.277',1372.890
'0:17.281',1390.483
'0:17.285',1389.743
'0:17.289',1394.875
'0:17.293',1417.577
'0:17.297',1399.268
'0:17.301',1372.890
'0:17.305',1378.022
'0:17.309',1378.022
'0:17.313',1421.253
'0:17.316',1408.792
'0:17.320',1400.724
'0:17.324',1385.351
'0:17.328',1386.807
'0:17.332',1387.547
'0:17.336',1387.547
'0:17.340',1399.268
'0:17.344',1426.385
'0:17.348',1402.204
'0:17.352',1431.494
'0:17.355',1435.910
'0:17.359',1437.366
'0:17.363',1424.906
'0:17.367',1409.532
'0:17.371',1386.807
'0:17.375',1388.287
'0:17.379',1433.690
'0:17.383',1425.645
'0:17.387',1427.102
'0:17.391',1414.664
'0:17.395',1406.596
'0:17.398',1414.664
'0:17.402',1411.728
'0:17.406',1411.728
'0:17.410',1400.724
'0:17.414',1420.513
'0:17.418',1419.773
'0:17.422',1420.513
'0:17.426',1422.709
'0:17.430',1395.615
'0:17.434',1378.022
'0:17.438',1381.698
'0:17.441',1394.135
'0:17.445',1374.369
'0:17.449',1387.547
'0:17.453',1407.336
'0:17.457',1379.479
'0:17.461',1376.566
'0:17.465',1378.762
'0:17.469',1357.516
'0:17.473',1389.003
'0:17.477',1336.271
'0:17.480',1347.992
'0:17.484',1353.124
'0:17.488',1350.928
'0:17.492',1325.267
'0:17.496',1301.108
'0:17.500',1282.059
'0:17.504',1323.070
'0:17.508',1312.829
'0:17.512',1295.236
'0:17.516',1270.338
'0:17.520',1246.157
'0:17.523',1243.221
'0:17.527',1242.481
'0:17.531',1292.300
'0:17.535',1291.584
'0:17.539',1293.040
'0:17.543',1290.844
'0:17.547',1288.648
'0:17.551',1326.746
'0:17.555',1342.860
'0:17.559',1345.796
'0:17.563',1369.237
'0:17.566',1372.173
'0:17.570',1391.199
'0:17.574',1373.630
'0:17.578',1432.234
'0:17.582',1413.924
'0:17.586',1454.936
'0:17.590',1468.136
'0:17.594',1462.264
'0:17.598',1438.823
'0:17.602',1443.955
'0:17.605',1477.661
'0:17.609',1476.921
'0:17.613',1494.514
'0:17.617',1495.231
'0:17.621',1493.774
'0:17.625',1490.838
'0:17.629',1482.053
'0:17.633',1482.793
'0:17.637',1489.382
'0:17.641',1440.302
'0:17.645',1473.985
'0:17.648',1435.170
'0:17.652',1465.940
'0:17.656',1447.631
'0:17.660',1446.151
'0:17.664',1468.876
'0:17.668',1450.544
'0:17.672',1421.253
'0:17.676',1433.690
'0:17.680',1449.827
'0:17.684',1429.298
'0:17.688',1427.102
'0:17.691',1428.581
'0:17.695',1403.660
'0:17.699',1394.135
'0:17.703',1438.823
'0:17.707',1419.057
'0:17.711',1421.970
'0:17.715',1401.464
'0:17.719',1402.204
'0:17.723',1406.596
'0:17.727',1368.497
'0:17.730',1343.599
'0:17.734',1374.369
'0:17.738',1343.599
'0:17.742',1315.742
'0:17.746',1323.070
'0:17.750',1337.727
'0:17.754',1309.153
'0:17.758',1292.300
'0:17.762',1275.470
'0:17.766',1312.829
'0:17.770',1292.300
'0:17.773',1303.304
'0:17.777',1297.433
'0:17.781',1266.662
'0:17.785',1245.417
'0:17.789',1246.157
'0:17.793',1241.764
'0:17.797',1252.745
'0:17.801',1278.383
'0:17.805',1284.255
'0:17.809',1294.497
'0:17.813',1246.896
'0:17.816',1270.338
'0:17.820',1304.021
'0:17.824',1307.697
'0:17.828',1312.089
'0:17.832',1313.546
'0:17.836',1268.859
'0:17.840',1295.236
'0:17.844',1296.716
'0:17.848',1291.584
'0:17.852',1281.319
'0:17.855',1307.697
'0:17.859',1309.153
'0:17.863',1276.187
'0:17.867',1275.470
'0:17.871',1320.874
'0:17.875',1303.304
'0:17.879',1286.451
'0:17.883',1284.972
'0:17.887',1292.300
'0:17.891',1287.191
'0:17.895',1289.387
'0:17.898',1296.716
'0:17.902',1251.289
'0:17.906',1273.991
'0:17.910',1254.941
'0:17.914',1274.731
'0:17.918',1287.191
'0:17.922',1239.568
'0:17.926',1272.534
'0:17.930',1290.844
'0:17.934',1290.844
'0:17.938',1296.716
'0:17.941',1265.946
'0:17.945',1268.142
'0:17.949',1273.251
'0:17.953',1282.059
'0:17.957',1328.203
'0:17.961',1337.727
'0:17.965',1319.418
'0:17.969',1360.452
'0:17.973',1380.958
'0:17.977',1353.841
'0:17.980',1358.973
'0:17.984',1389.743
'0:17.988',1427.102
'0:17.992',1420.513
'0:17.996',1403.660
'0:18.000',1454.219
'0:18.004',1443.955
'0:18.008',1458.612
'0:18.012',1432.234
'0:18.016',1460.068
'0:18.020',1486.446
'0:18.023',1460.068
'0:18.027',1498.167
'0:18.031',1453.480
'0:18.035',1498.907
'0:18.039',1455.676
'0:18.043',1466.657
'0:18.047',1495.971
'0:18.051',1502.559
'0:18.055',1455.676
'0:18.059',1476.921
'0:18.063',1478.401
'0:18.066',1478.401
'0:18.070',1494.514
'0:18.074',1451.283
'0:18.078',1456.415
'0:18.082',1460.808
'0:18.086',1484.250
'0:18.090',1488.642
'0:18.094',1444.695
'0:18.098',1435.910
'0:18.102',1470.333
'0:18.105',1468.136
'0:18.109',1468.136
'0:18.113',1430.778
'0:18.117',1417.577
'0:18.121',1454.219
'0:18.125',1409.532
'0:18.129',1452.740
'0:18.133',1417.577
'0:18.137',1419.773
'0:18.141',1443.215
'0:18.145',1408.792
'0:18.148',1389.743
'0:18.152',1426.385
'0:18.156',1424.166
'0:18.160',1418.317
'0:18.164',1413.185
'0:18.168',1403.660
'0:18.172',1375.826
'0:18.176',1375.086
'0:18.180',1393.419
'0:18.184',1349.448
'0:18.188',1350.928
'0:18.191',1365.561
'0:18.195',1369.954
'0:18.199',1375.086
'0:18.203',1326.746
'0:18.207',1340.663
'0:18.211',1353.124
'0:18.215',1347.252
'0:18.219',1311.350
'0:18.223',1332.595
'0:18.227',1353.124
'0:18.230',1345.796
'0:18.234',1352.384
'0:18.238',1345.056
'0:18.242',1349.448
'0:18.246',1337.727
'0:18.250',1347.252
'0:18.254',1338.467
'0:18.258',1326.006
'0:18.262',1333.335
'0:18.266',1311.350
'0:18.270',1300.369
'0:18.273',1352.384
'0:18.277',1323.070
'0:18.281',1309.893
'0:18.285',1353.841
'0:18.289',1351.644
'0:18.293',1317.222
'0:18.297',1361.169
'0:18.301',1324.550
'0:18.305',1320.874
'0:18.309',1370.694
'0:18.313',1343.599
'0:18.316',1369.237
'0:18.320',1356.777
'0:18.324',1339.207
'0:18.328',1386.807
'0:18.332',1356.037
'0:18.336',1393.419
'0:18.340',1361.169
'0:18.344',1404.400
'0:18.348',1364.105
'0:18.352',1393.419
'0:18.355',1421.253
'0:18.359',1399.268
'0:18.363',1388.287
'0:18.367',1388.287
'0:18.371',1400.007
'0:18.375',1402.920
'0:18.379',1402.204
'0:18.383',1402.920
'0:18.387',1404.400
'0:18.391',1430.778
'0:18.395',1428.581
'0:18.398',1413.924
'0:18.402',1448.347
'0:18.406',1416.121
'0:18.410',1424.906
'0:18.414',1397.811
'0:18.418',1396.332
'0:18.422',1411.728
'0:18.426',1430.778
'0:18.430',1415.381
'0:18.434',1377.282
'0:18.438',1408.052
'0:18.441',1403.660
'0:18.445',1382.415
'0:18.449',1384.611
'0:18.453',1389.743
'0:18.457',1352.384
'0:18.461',1361.909
'0:18.465',1372.173
'0:18.469',1342.120
'0:18.473',1350.928
'0:18.477',1365.561
'0:18.480',1353.841
'0:18.484',1336.271
'0:18.488',1370.694
'0:18.492',1328.203
'0:18.496',1366.301
'0:18.500',1342.120
'0:18.504',1314.286
'0:18.508',1358.973
'0:18.512',1343.599
'0:18.516',1333.335
'0:18.520',1323.070
'0:18.523',1315.742
'0:18.527',1294.497
'0:18.531',1292.300
'0:18.535',1286.451
'0:18.539',1290.844
'0:18.543',1302.565
'0:18.547',1323.070
'0:18.551',1314.286
'0:18.555',1317.222
'0:18.559',1306.217
'0:18.563',1260.813
'0:18.566',1298.912
'0:18.570',1309.893
'0:18.574',1310.633
'0:18.578',1306.957
'0:18.582',1304.021
'0:18.586',1302.565
'0:18.590',1274.731
'0:18.594',1318.678
'0:18.598',1321.614
'0:18.602',1291.584
'0:18.605',1336.988
'0:18.609',1324.550
'0:18.613',1342.860
'0:18.617',1338.467
'0:18.621',1366.301
'0:18.625',1371.433
'0:18.629',1331.139
'0:18.633',1337.727
'0:18.637',1348.708
'0:18.641',1381.698
'0:18.645',1394.875
'0:18.648',1393.419
'0:18.652',1380.958
'0:18.656',1375.086
'0:18.660',1388.287
'0:18.664',1405.140
'0:18.668',1430.778
'0:18.672',1410.988
'0:18.676',1400.007
'0:18.680',1400.007
'0:18.684',1442.498
'0:18.688',1410.988
'0:18.691',1446.891
'0:18.695',1413.185
'0:18.699',1446.151
'0:18.703',1446.891
'0:18.707',1415.381
'0:18.711',1454.936
'0:18.715',1460.068
'0:18.719',1449.827
'0:18.723',1424.166
'0:18.727',1457.155
'0:18.730',1413.924
'0:18.734',1443.955
'0:18.738',1410.249
'0:18.742',1400.007
'0:18.746',1397.071
'0:18.750',1399.268
'0:18.754',1394.135
'0:18.758',1411.728
'0:18.762',1419.773
'0:18.766',1391.939
'0:18.770',1424.166
'0:18.773',1410.988
'0:18.777',1378.022
'0:18.781',1400.007
'0:18.785',1394.135
'0:18.789',1377.282
'0:18.793',1394.135
'0:18.797',1362.649
'0:18.801',1375.826
'0:18.805',1350.188
'0:18.809',1345.796
'0:18.813',1376.566
'0:18.816',1364.845
'0:18.820',1344.316
'0:18.824',1339.207
'0:18.828',1337.727
'0:18.832',1346.512
'0:18.836',1334.075
'0:18.840',1328.203
'0:18.844',1304.761
'0:18.848',1317.961
'0:18.852',1314.286
'0:18.855',1317.222
'0:18.859',1280.579
'0:18.863',1293.780
'0:18.867',1317.222
'0:18.871',1324.550
'0:18.875',1328.942
'0:18.879',1314.286
'0:18.883',1302.565
'0:18.887',1331.878
'0:18.891',1347.252
'0:18.895',1312.089
'0:18.898',1352.384
'0:18.902',1316.482
'0:18.906',1361.169
'0:18.910',1347.992
'0:18.914',1334.075
'0:18.918',1346.512
'0:18.922',1378.022
'0:18.926',1345.796
'0:18.930',1333.335
'0:18.934',1350.188
'0:18.938',1353.124
'0:18.941',1356.777
'0:18.945',1361.909
'0:18.949',1361.909
'0:18.953',1335.531
'0:18.957',1375.086
'0:18.961',1334.075
'0:18.965',1370.694
'0:18.969',1333.335
'0:18.973',1380.218
'0:18.977',1367.041
'0:18.980',1342.860
'0:18.984',1394.875
'0:18.988',1376.566
'0:18.992',1375.086
'0:18.996',1413.185
'0:19.000',1389.003
'0:19.004',1381.698
'0:19.008',1389.743
'0:19.012',1441.759
'0:19.016',1443.955
'0:19.020',1413.185
'0:19.023',1439.562
'0:19.027',1440.302
'0:19.031',1473.269
'0:19.035',1463.744
'0:19.039',1447.631
'0:19.043',1487.186
'0:19.047',1465.200
'0:19.051',1445.411
'0:19.055',1488.642
'0:19.059',1441.019
'0:19.063',1466.657
'0:19.066',1440.302
'0:19.070',1476.921
'0:19.074',1430.778
'0:19.078',1466.657
'0:19.082',1462.264
'0:19.086',1434.430
'0:19.090',1408.052
'0:19.094',1400.007
'0:19.098',1438.823
'0:19.102',1432.234
'0:19.105',1426.385
'0:19.109',1417.577
'0:19.113',1417.577
'0:19.117',1372.173
'0:19.121',1386.807
'0:19.125',1387.547
'0:19.129',1410.988
'0:19.133',1413.185
'0:19.137',1377.282
'0:19.141',1389.003
'0:19.145',1374.369
'0:19.148',1402.920
'0:19.152',1425.645
'0:19.156',1401.464
'0:19.160',1427.102
'0:19.164',1406.596
'0:19.168',1405.856
'0:19.172',1394.135
'0:19.176',1397.071
'0:19.180',1413.924
'0:19.184',1422.709
'0:19.188',1431.494
'0:19.191',1443.955
'0:19.195',1420.513
'0:19.199',1400.007
'0:19.203',1402.204
'0:19.207',1422.709
'0:19.211',1435.170
'0:19.215',1432.974
'0:19.219',1421.253
'0:19.223',1386.090
'0:19.227',1382.415
'0:19.230',1399.268
'0:19.234',1413.924
'0:19.238',1365.561
'0:19.242',1382.415
'0:19.246',1394.875
'0:19.250',1388.287
'0:19.254',1342.120
'0:19.258',1381.698
'0:19.262',1364.105
'0:19.266',1342.860
'0:19.270',1343.599
'0:19.273',1328.203
'0:19.277',1364.845
'0:19.281',1339.207
'0:19.285',1312.089
'0:19.289',1316.482
'0:19.293',1308.437
'0:19.297',1316.482
'0:19.301',1318.678
'0:19.305',1354.580
'0:19.309',1351.644
'0:19.313',1356.037
'0:19.316',1331.878
'0:19.320',1329.682
'0:19.324',1352.384
'0:19.328',1361.169
'0:19.332',1336.271
'0:19.336',1336.988
'0:19.340',1323.070
'0:19.344',1374.369
'0:19.348',1345.056
'0:19.352',1336.988
'0:19.355',1381.698
'0:19.359',1347.992
'0:19.363',1372.890
'0:19.367',1388.287
'0:19.371',1397.071
'0:19.375',1367.041
'0:19.379',1389.743
'0:19.383',1397.071
'0:19.387',1402.204
'0:19.391',1424.166
'0:19.395',1429.298
'0:19.398',1431.494
'0:19.402',1408.052
'0:19.406',1393.419
'0:19.410',1427.842
'0:19.414',1426.385
'0:19.418',1412.445
'0:19.422',1396.332
'0:19.426',1419.773
'0:19.430',1438.106
'0:19.434',1437.366
'0:19.438',1419.773
'0:19.441',1413.185
'0:19.445',1412.445
'0:19.449',1432.234
'0:19.453',1400.724
'0:19.457',1413.924
'0:19.461',1425.645
'0:19.465',1410.988
'0:19.469',1389.003
'0:19.473',1423.449
'0:19.477',1432.974
'0:19.480',1386.090
'0:19.484',1408.052
'0:19.488',1434.430
'0:19.492',1419.773
'0:19.496',1399.268
'0:19.500',1398.528
'0:19.504',1421.253
'0:19.508',1441.759
'0:19.512',1427.842
'0:19.516',1395.615
'0:19.520',1398.528
'0:19.523',1405.856
'0:19.527',1421.253
'0:19.531',1421.253
'0:19.535',1438.106
'0:19.539',1429.298
'0:19.543',1400.007
'0:19.547',1401.464
'0:19.551',1405.856
'0:19.555',1391.199
'0:19.559',1396.332
'0:19.563',1422.709
'0:19.566',1374.369
'0:19.570',1401.464
'0:19.574',1389.743
'0:19.578',1369.237
'0:19.582',1345.796
'0:19.586',1327.463
'0:19.590',1317.222
'0:19.594',1356.037
'0:19.598',1347.252
'0:19.602',1327.463
'0:19.605',1293.040
'0:19.609',1289.387
'0:19.613',1309.153
'0:19.617',1265.206
'0:19.621',1286.451
'0:19.625',1301.108
'0:19.629',1271.795
'0:19.633',1308.437
'0:19.637',1301.825
'0:19.641',1279.863
'0:19.645',1268.859
'0:19.648',1291.584
'0:19.652',1323.810
'0:19.656',1314.286
'0:19.660',1291.584
'0:19.664',1342.860
'0:19.668',1301.108
'0:19.672',1350.928
'0:19.676',1325.267
'0:19.680',1345.796
'0:19.684',1372.890
'0:19.688',1347.252
'0:19.691',1386.090
'0:19.695',1345.056
'0:19.699',1363.365
'0:19.703',1391.939
'0:19.707',1353.841
'0:19.711',1397.071
'0:19.715',1360.452
'0:19.719',1377.282
'0:19.723',1376.566
'0:19.727',1368.497
'0:19.730',1377.282
'0:19.734',1348.708
'0:19.738',1381.698
'0:19.742',1348.708
'0:19.746',1332.595
'0:19.750',1320.158
'0:19.754',1329.682
'0:19.758',1346.512
'0:19.762',1330.399
'0:19.766',1325.267
'0:19.770',1327.463
'0:19.773',1311.350
'0:19.777',1286.451
'0:19.781',1300.369
'0:19.785',1318.678
'0:19.789',1268.142
'0:19.793',1273.991
'0:19.797',1295.976
'0:19.801',1263.726
'0:19.805',1298.912
'0:19.809',1263.726
'0:19.813',1279.123
'0:19.816',1246.896
'0:19.820',1290.104
'0:19.824',1276.187
'0:19.828',1290.104
'0:19.832',1294.497
'0:19.836',1257.877
'0:19.840',1264.466
'0:19.844',1283.515
'0:19.848',1290.844
'0:19.852',1287.908
'0:19.855',1293.040
'0:19.859',1288.648
'0:19.863',1285.712
'0:19.867',1270.338
'0:19.871',1286.451
'0:19.875',1328.203
'0:19.879',1282.776
'0:19.883',1336.271
'0:19.887',1333.335
'0:19.891',1322.354
'0:19.895',1304.761
'0:19.898',1316.482
'0:19.902',1343.599
'0:19.906',1324.550
'0:19.910',1310.633
'0:19.914',1361.909
'0:19.918',1342.860
'0:19.922',1337.727
'0:19.926',1326.006
'0:19.930',1372.890
'0:19.934',1345.796
'0:19.938',1330.399
'0:19.941',1366.301
'0:19.945',1342.860
'0:19.949',1341.403
'0:19.953',1375.826
'0:19.957',1368.497
'0:19.961',1339.207
'0:19.965',1352.384
'0:19.969',1328.942
'0:19.973',1359.713
'0:19.977',1323.070
'0:19.980',1315.742
'0:19.984',1309.893
'0:19.988',1320.874
'0:19.992',1301.825
'0:19.996',1340.663
'0:20.000',1335.531
'0:20.004',1333.335
'0:20.008',1330.399
'0:20.012',1326.006
'0:20.016',1323.070
'0:20.020',1304.761
'0:20.023',1304.761
'0:20.027',1291.584
'0:20.031',1307.697
'0:20.035',1295.976
'0:20.039',1274.731
'0:20.043',1277.667
'0:20.047',1328.203
'0:20.051',1294.497
'0:20.055',1291.584
'0:20.059',1333.335
'0:20.063',1294.497
'0:20.066',1339.207
'0:20.070',1304.761
'0:20.074',1329.682
'0:20.078',1358.233
'0:20.082',1328.942
'0:20.086',1350.928
'0:20.090',1329.682
'0:20.094',1355.320
'0:20.098',1373.630
'0:20.102',1367.758
'0:20.105',1375.086
'0:20.109',1386.807
'0:20.113',1385.351
'0:20.117',1366.301
'0:20.121',1413.185
'0:20.125',1416.860
'0:20.129',1388.287
'0:20.133',1383.154
'0:20.137',1429.298
'0:20.141',1435.910
'0:20.145',1415.381
'0:20.148',1410.988
'0:20.152',1397.071
'0:20.156',1448.347
'0:20.160',1442.498
'0:20.164',1452.740
'0:20.168',1450.544
'0:20.172',1436.626
'0:20.176',1412.445
'0:20.180',1424.166
'0:20.184',1404.400
'0:20.188',1407.336
'0:20.191',1449.087
'0:20.195',1452.023
'0:20.199',1446.891
'0:20.203',1444.695
'0:20.207',1427.842
'0:20.211',1412.445
'0:20.215',1399.268
'0:20.219',1413.924
'0:20.223',1417.577
'0:20.227',1436.626
'0:20.230',1446.891
'0:20.234',1433.690
'0:20.238',1405.856
'0:20.242',1417.577
'0:20.246',1408.792
'0:20.250',1456.415
'0:20.254',1411.728
'0:20.258',1457.872
'0:20.262',1416.860
'0:20.266',1467.397
'0:20.270',1471.072
'0:20.273',1456.415
'0:20.277',1429.298
'0:20.281',1471.072
'0:20.285',1443.215
'0:20.289',1484.989
'0:20.293',1476.181
'0:20.297',1470.333
'0:20.301',1457.872
'0:20.305',1460.068
'0:20.309',1479.857
'0:20.313',1463.004
'0:20.316',1460.068
'0:20.320',1476.181
'0:20.324',1476.921
'0:20.328',1446.151
'0:20.332',1446.151
'0:20.336',1476.921
'0:20.340',1460.068
'0:20.344',1438.823
'0:20.348',1427.102
'0:20.352',1423.449
'0:20.355',1416.121
'0:20.359',1416.860
'0:20.363',1409.532
'0:20.367',1419.773
'0:20.371',1421.970
'0:20.375',1373.630
'0:20.379',1376.566
'0:20.383',1372.890
'0:20.387',1378.762
'0:20.391',1400.007
'0:20.395',1350.188
'0:20.398',1367.758
'0:20.402',1383.894
'0:20.406',1367.758
'0:20.410',1350.188
'0:20.414',1358.973
'0:20.418',1338.467
'0:20.422',1366.301
'0:20.426',1365.561
'0:20.430',1351.644
'0:20.434',1331.878
'0:20.438',1335.531
'0:20.441',1378.762
'0:20.445',1345.056
'0:20.449',1328.203
'0:20.453',1374.369
'0:20.457',1328.203
'0:20.461',1379.479
'0:20.465',1328.203
'0:20.469',1345.796
'0:20.473',1372.890
'0:20.477',1332.595
'0:20.480',1375.826
'0:20.484',1344.316
'0:20.488',1346.512
'0:20.492',1352.384
'0:20.496',1330.399
'0:20.500',1367.041
'0:20.504',1353.841
'0:20.508',1343.599
'0:20.512',1320.874
'0:20.516',1341.403
'0:20.520',1333.335
'0:20.523',1325.267
'0:20.527',1329.682
'0:20.531',1371.433
'0:20.535',1367.758
'0:20.539',1372.173
'0:20.543',1375.826
'0:20.547',1384.611
'0:20.551',1384.611
'0:20.555',1375.086
'0:20.559',1348.708
'0:20.563',1369.954
'0:20.566',1375.086
'0:20.570',1369.237
'0:20.574',1369.954
'0:20.578',1388.287
'0:20.582',1349.448
'0:20.586',1360.452
'0:20.590',1390.483
'0:20.594',1364.105
'0:20.598',1345.796
'0:20.602',1327.463
'0:20.605',1318.678
'0:20.609',1328.942
'0:20.613',1350.188
'0:20.617',1320.874
'0:20.621',1284.972
'0:20.625',1325.267
'0:20.629',1276.927
'0:20.633',1292.300
'0:20.637',1262.270
'0:20.641',1301.825
'0:20.645',1275.470
'0:20.648',1246.896
'0:20.652',1292.300
'0:20.656',1279.123
'0:20.660',1282.776
'0:20.664',1248.353
'0:20.668',1293.040
'0:20.672',1308.437
'0:20.676',1315.025
'0:20.680',1312.829
'0:20.684',1311.350
'0:20.688',1309.153
'0:20.691',1312.829
'0:20.695',1368.497
'0:20.699',1346.512
'0:20.703',1368.497
'0:20.707',1404.400
'0:20.711',1391.939
'0:20.715',1411.728
'0:20.719',1441.759
'0:20.723',1459.351
'0:20.727',1449.087
'0:20.730',1484.989
'0:20.734',1463.744
'0:20.738',1506.235
'0:20.742',1493.774
'0:20.746',1482.793
'0:20.750',1504.039
'0:20.754',1520.152
'0:20.758',1498.907
'0:20.762',1495.231
'0:20.766',1497.427
'0:20.770',1457.872
'0:20.773',1443.215
'0:20.777',1452.023
'0:20.781',1459.351
'0:20.785',1448.347
'0:20.789',1386.090
'0:20.793',1394.875
'0:20.797',1381.698
'0:20.801',1361.169
'0:20.805',1317.222
'0:20.809',1315.025
'0:20.813',1286.451
'0:20.816',1284.972
'0:20.820',1306.217
'0:20.824',1299.629
'0:20.828',1248.353
'0:20.832',1259.334
'0:20.836',1254.225
'0:20.840',1236.632
'0:20.844',1213.930
'0:20.848',1242.481
'0:20.852',1254.941
'0:20.855',1235.176
'0:20.859',1216.843
'0:20.863',1239.568
'0:20.867',1205.122
'0:20.871',1256.421
'0:20.875',1213.930
'0:20.879',1256.421
'0:20.883',1228.564
'0:20.887',1226.368
'0:20.891',1259.334
'0:20.895',1230.043
'0:20.898',1270.338
'0:20.902',1288.648
'0:20.906',1259.334
'0:20.910',1305.501
'0:20.914',1271.055
'0:20.918',1302.565
'0:20.922',1279.123
'0:20.926',1316.482
'0:20.930',1299.629
'0:20.934',1299.629
'0:20.938',1334.791
'0:20.941',1358.233
'0:20.945',1353.124
'0:20.949',1350.188
'0:20.953',1376.566
'0:20.957',1380.958
'0:20.961',1388.287
'0:20.965',1350.928
'0:20.969',1381.698
'0:20.973',1398.528
'0:20.977',1376.566
'0:20.980',1410.988
'0:20.984',1370.694
'0:20.988',1418.317
'0:20.992',1393.419
'0:20.996',1374.369
'0:21.000',1420.513
'0:21.004',1372.890
'0:21.008',1417.577
'0:21.012',1390.483
'0:21.016',1380.218
'0:21.020',1397.811
'0:21.023',1363.365
'0:21.027',1403.660
'0:21.031',1368.497
'0:21.035',1354.580
'0:21.039',1379.479
'0:21.043',1373.630
'0:21.047',1361.169
'0:21.051',1342.120
'0:21.055',1362.649
'0:21.059',1360.452
'0:21.063',1336.271
'0:21.066',1313.546
'0:21.070',1339.207
'0:21.074',1347.252
'0:21.078',1317.961
'0:21.082',1319.418
'0:21.086',1330.399
'0:21.090',1345.056
'0:21.094',1356.037
'0:21.098',1353.841
'0:21.102',1346.512
'0:21.105',1339.207
'0:21.109',1347.252
'0:21.113',1396.332
'0:21.117',1365.561
'0:21.121',1407.336
'0:21.125',1382.415
'0:21.129',1419.773
'0:21.133',1383.154
'0:21.137',1430.778
'0:21.141',1391.199
'0:21.145',1432.974
'0:21.148',1430.778
'0:21.152',1399.268
'0:21.156',1431.494
'0:21.160',1438.106
'0:21.164',1452.023
'0:21.168',1438.823
'0:21.172',1408.052
'0:21.176',1410.988
'0:21.180',1441.759
'0:21.184',1439.562
'0:21.188',1452.740
'0:21.191',1429.298
'0:21.195',1462.264
'0:21.199',1453.480
'0:21.203',1416.860
'0:21.207',1435.910
'0:21.211',1448.347
'0:21.215',1463.004
'0:21.219',1468.136
'0:21.223',1430.038
'0:21.227',1430.778
'0:21.230',1427.102
'0:21.234',1441.019
'0:21.238',1471.789
'0:21.242',1449.827
'0:21.246',1453.480
'0:21.250',1449.827
'0:21.254',1455.676
'0:21.258',1452.740
'0:21.262',1444.695
'0:21.266',1449.087
'0:21.270',1473.269
'0:21.273',1467.397
'0:21.277',1483.510
'0:21.281',1457.155
'0:21.285',1452.740
'0:21.289',1453.480
'0:21.293',1456.415
'0:21.297',1446.151
'0:21.301',1472.529
'0:21.305',1467.397
'0:21.309',1474.725
'0:21.313',1432.974
'0:21.316',1426.385
'0:21.320',1441.019
'0:21.324',1454.936
'0:21.328',1454.936
'0:21.332',1445.411
'0:21.336',1410.988
'0:21.340',1438.823
'0:21.344',1415.381
'0:21.348',1434.430
'0:21.352',1413.185
'0:21.355',1385.351
'0:21.359',1428.581
'0:21.363',1402.204
'0:21.367',1394.875
'0:21.371',1372.890
'0:21.375',1414.664
'0:21.379',1389.003
'0:21.383',1359.713
'0:21.387',1360.452
'0:21.391',1397.811
'0:21.395',1377.282
'0:21.398',1369.954
'0:21.402',1352.384
'0:21.406',1345.056
'0:21.410',1336.988
'0:21.414',1336.988
'0:21.418',1331.878
'0:21.422',1331.878
'0:21.426',1326.746
'0:21.430',1326.746
'0:21.434',1350.188
'0:21.438',1357.516
'0:21.441',1364.105
'0:21.445',1367.758
'0:21.449',1350.928
'0:21.453',1331.878
'0:21.457',1358.973
'0:21.461',1385.351
'0:21.465',1372.173
'0:21.469',1374.369
'0:21.473',1368.497
'0:21.477',1346.512
'0:21.480',1396.332
'0:21.484',1383.154
'0:21.488',1352.384
'0:21.492',1399.268
'0:21.496',1353.124
'0:21.500',1391.939
'0:21.504',1355.320
'0:21.508',1376.566
'0:21.512',1364.845
'0:21.516',1372.890
'0:21.520',1363.365
'0:21.523',1339.207
'0:21.527',1373.630
'0:21.531',1350.928
'0:21.535',1368.497
'0:21.539',1372.173
'0:21.543',1358.973
'0:21.547',1360.452
'0:21.551',1352.384
'0:21.555',1331.139
'0:21.559',1329.682
'0:21.563',1338.467
'0:21.566',1321.614
'0:21.570',1340.663
'0:21.574',1339.207
'0:21.578',1331.139
'0:21.582',1343.599
'0:21.586',1353.124
'0:21.590',1338.467
'0:21.594',1337.727
'0:21.598',1348.708
'0:21.602',1337.727
'0:21.605',1323.810
'0:21.609',1314.286
'0:21.613',1309.153
'0:21.617',1324.550
'0:21.621',1342.860
'0:21.625',1300.369
'0:21.629',1287.908
'0:21.633',1295.236
'0:21.637',1320.158
'0:21.641',1319.418
'0:21.645',1298.172
'0:21.648',1291.584
'0:21.652',1284.972
'0:21.656',1276.187
'0:21.660',1307.697
'0:21.664',1266.662
'0:21.668',1265.206
'0:21.672',1283.515
'0:21.676',1311.350
'0:21.680',1326.746
'0:21.684',1332.595
'0:21.688',1334.075
'0:21.691',1320.158
'0:21.695',1312.829
'0:21.699',1354.580
'0:21.703',1374.369
'0:21.707',1362.649
'0:21.711',1361.169
'0:21.715',1371.433
'0:21.719',1391.939
'0:21.723',1405.140
'0:21.727',1419.773
'0:21.730',1431.494
'0:21.734',1427.842
'0:21.738',1449.827
'0:21.742',1482.793
'0:21.746',1463.004
'0:21.750',1459.351
'0:21.754',1450.544
'0:21.758',1446.891
'0:21.762',1426.385
'0:21.766',1419.057
'0:21.770',1418.317
'0:21.773',1399.268
'0:21.777',1374.369
'0:21.781',1388.287
'0:21.785',1375.826
'0:21.789',1357.516
'0:21.793',1342.120
'0:21.797',1318.678
'0:21.801',1305.501
'0:21.805',1249.093
'0:21.809',1257.138
'0:21.813',1213.930
'0:21.816',1239.568
'0:21.820',1191.945
'0:21.824',1172.156
'0:21.828',1178.744
'0:21.832',1204.405
'0:21.836',1194.141
'0:21.840',1147.997
'0:21.844',1145.061
'0:21.848',1161.175
'0:21.852',1155.303
'0:21.855',1175.831
'0:21.859',1184.616
'0:21.863',1180.224
'0:21.867',1168.503
'0:21.871',1150.193
'0:21.875',1145.778
'0:21.879',1154.586
'0:21.883',1151.650
'0:21.887',1161.175
'0:21.891',1170.699
'0:21.895',1165.567
'0:21.898',1216.126
'0:21.902',1210.994
'0:21.906',1208.058
'0:21.910',1229.304
'0:21.914',1219.779
'0:21.918',1212.450
'0:21.922',1225.651
'0:21.926',1211.734
'0:21.930',1219.039
'0:21.934',1249.809
'0:21.938',1224.911
'0:21.941',1263.010
'0:21.945',1243.221
'0:21.949',1250.549
'0:21.953',1283.515
'0:21.957',1296.716
'0:21.961',1306.957
'0:21.965',1304.021
'0:21.969',1272.534
'0:21.973',1281.319
'0:21.977',1335.531
'0:21.980',1300.369
'0:21.984',1328.942
'0:21.988',1326.746
'0:21.992',1367.041
'0:21.996',1355.320
'0:22.000',1380.218
'0:22.004',1378.762
'0:22.008',1387.547
'0:22.012',1391.199
'0:22.016',1367.041
'0:22.020',1414.664
'0:22.023',1421.970
'0:22.027',1420.513
'0:22.031',1428.581
'0:22.035',1429.298
'0:22.039',1444.695
'0:22.043',1423.449
'0:22.047',1414.664
'0:22.051',1459.351
'0:22.055',1430.778
'0:22.059',1427.102
'0:22.063',1461.548
'0:22.066',1450.544
'0:22.070',1433.690
'0:22.074',1432.234
'0:22.078',1419.773
'0:22.082',1431.494
'0:22.086',1451.283
'0:22.090',1435.910
'0:22.094',1425.645
'0:22.098',1404.400
'0:22.102',1406.596
'0:22.105',1408.052
'0:22.109',1413.924
'0:22.113',1398.528
'0:22.117',1411.728
'0:22.121',1424.166
'0:22.125',1391.199
'0:22.129',1385.351
'0:22.133',1379.479
'0:22.137',1379.479
'0:22.141',1384.611
'0:22.145',1389.003
'0:22.148',1391.199
'0:22.152',1405.856
'0:22.156',1414.664
'0:22.160',1404.400
'0:22.164',1374.369
'0:22.168',1387.547
'0:22.172',1406.596
'0:22.176',1410.249
'0:22.180',1410.249
'0:22.184',1385.351
'0:22.188',1377.282
'0:22.191',1359.713
'0:22.195',1360.452
'0:22.199',1364.105
'0:22.203',1393.419
'0:22.207',1413.185
'0:22.211',1373.630
'0:22.215',1400.007
'0:22.219',1418.317
'0:22.223',1380.958
'0:22.227',1384.611
'0:22.230',1393.419
'0:22.234',1393.419
'0:22.238',1410.988
'0:22.242',1430.038
'0:22.246',1413.185
'0:22.250',1385.351
'0:22.254',1403.660
'0:22.258',1426.385
'0:22.262',1441.759
'0:22.266',1410.988
'0:22.270',1402.204
'0:22.273',1421.253
'0:22.277',1424.906
'0:22.281',1438.823
'0:22.285',1431.494
'0:22.289',1424.166
'0:22.293',1417.577
'0:22.297',1416.121
'0:22.301',1420.513
'0:22.305',1427.842
'0:22.309',1430.038
'0:22.313',1466.657
'0:22.316',1471.072
'0:22.320',1447.631
'0:22.324',1425.645
'0:22.328',1423.449
'0:22.332',1468.876
'0:22.336',1440.302
'0:22.340',1419.773
'0:22.344',1419.057
'0:22.348',1415.381
'0:22.352',1460.808
'0:22.355',1432.234
'0:22.359',1422.709
'0:22.363',1441.019
'0:22.367',1423.449
'0:22.371',1419.773
'0:22.375',1413.185
'0:22.379',1420.513
'0:22.383',1393.419
'0:22.387',1383.154
'0:22.391',1383.894
'0:22.395',1421.970
'0:22.398',1419.773
'0:22.402',1403.660
'0:22.406',1378.762
'0:22.410',1402.204
'0:22.414',1376.566
'0:22.418',1384.611
'0:22.422',1415.381
'0:22.426',1397.811
'0:22.430',1389.003
'0:22.434',1419.057
'0:22.438',1380.218
'0:22.441',1382.415
'0:22.445',1397.071
'0:22.449',1419.773
'0:22.453',1425.645
'0:22.457',1442.498
'0:22.461',1434.430
'0:22.465',1419.057
'0:22.469',1410.249
'0:22.473',1412.445
'0:22.477',1437.366
'0:22.480',1416.860
'0:22.484',1418.317
'0:22.488',1465.940
'0:22.492',1449.087
'0:22.496',1419.057
'0:22.500',1430.038
'0:22.504',1454.936
'0:22.508',1448.347
'0:22.512',1425.645
'0:22.516',1434.430
'0:22.520',1409.532
'0:22.523',1402.920
'0:22.527',1402.920
'0:22.531',1407.336
'0:22.535',1415.381
'0:22.539',1424.166
'0:22.543',1421.970
'0:22.547',1405.140
'0:22.551',1379.479
'0:22.555',1369.237
'0:22.559',1375.086
'0:22.563',1404.400
'0:22.566',1399.268
'0:22.570',1358.973
'0:22.574',1357.516
'0:22.578',1383.894
'0:22.582',1346.512
'0:22.586',1383.154
'0:22.590',1361.169
'0:22.594',1379.479
'0:22.598',1356.037
'0:22.602',1350.188
'0:22.605',1383.154
'0:22.609',1357.516
'0:22.613',1343.599
'0:22.617',1364.845
'0:22.621',1343.599
'0:22.625',1356.777
'0:22.629',1378.022
'0:22.633',1341.403
'0:22.637',1374.369
'0:22.641',1341.403
'0:22.645',1325.267
'0:22.648',1359.713
'0:22.652',1328.203
'0:22.656',1328.942
'0:22.660',1300.369
'0:22.664',1331.878
'0:22.668',1323.070
'0:22.672',1309.153
'0:22.676',1296.716
'0:22.680',1287.908
'0:22.684',1290.104
'0:22.688',1262.270
'0:22.691',1258.617
'0:22.695',1258.617
'0:22.699',1263.010
'0:22.703',1257.877
'0:22.707',1268.142
'0:22.711',1282.059
'0:22.715',1299.629
'0:22.719',1309.893
'0:22.723',1285.712
'0:22.727',1275.470
'0:22.730',1334.791
'0:22.734',1306.957
'0:22.738',1356.037
'0:22.742',1331.139
'0:22.746',1380.218
'0:22.750',1400.724
'0:22.754',1416.860
'0:22.758',1392.679
'0:22.762',1443.215
'0:22.766',1466.657
'0:22.770',1484.250
'0:22.773',1492.318
'0:22.777',1477.661
'0:22.781',1501.843
'0:22.785',1523.805
'0:22.789',1499.646
'0:22.793',1488.642
'0:22.797',1532.613
'0:22.801',1484.989
'0:22.805',1526.001
'0:22.809',1495.231
'0:22.813',1468.136
'0:22.816',1455.676
'0:22.820',1452.740
'0:22.824',1441.759
'0:22.828',1449.087
'0:22.832',1402.204
'0:22.836',1404.400
'0:22.840',1384.611
'0:22.844',1373.630
'0:22.848',1306.217
'0:22.852',1303.304
'0:22.855',1316.482
'0:22.859',1275.470
'0:22.863',1243.221
'0:22.867',1259.334
'0:22.871',1236.632
'0:22.875',1221.235
'0:22.879',1221.235
'0:22.883',1219.039
'0:22.887',1183.877
'0:22.891',1212.450
'0:22.895',1194.141
'0:22.898',1165.567
'0:22.902',1210.994
'0:22.906',1181.680
'0:22.910',1213.190
'0:22.914',1222.715
'0:22.918',1205.122
'0:22.922',1191.945
'0:22.926',1228.564
'0:22.930',1254.225
'0:22.934',1216.126
'0:22.938',1217.583
'0:22.941',1255.681
'0:22.945',1282.776
'0:22.949',1273.251
'0:22.953',1270.338
'0:22.957',1254.941
'0:22.961',1306.217
'0:22.965',1315.025
'0:22.969',1317.222
'0:22.973',1289.387
'0:22.977',1282.059
'0:22.980',1326.006
'0:22.984',1304.021
'0:22.988',1318.678
'0:22.992',1325.267
'0:22.996',1329.682
'0:23.000',1318.678
'0:23.004',1345.796
'0:23.008',1345.796
'0:23.012',1320.158
'0:23.016',1369.237
'0:23.020',1322.354
'0:23.023',1361.169
'0:23.027',1362.649
'0:23.031',1324.550
'0:23.035',1350.928
'0:23.039',1326.006
'0:23.043',1355.320
'0:23.047',1372.890
'0:23.051',1325.267
'0:23.055',1345.796
'0:23.059',1331.878
'0:23.063',1353.841
'0:23.066',1321.614
'0:23.070',1356.037
'0:23.074',1315.025
'0:23.078',1355.320
'0:23.082',1342.120
'0:23.086',1315.025
'0:23.090',1354.580
'0:23.094',1324.550
'0:23.098',1303.304
'0:23.102',1352.384
'0:23.105',1305.501
'0:23.109',1354.580
'0:23.113',1315.742
'0:23.117',1353.841
'0:23.121',1322.354
'0:23.125',1344.316
'0:23.129',1350.188
'0:23.133',1348.708
'0:23.137',1347.252
'0:23.141',1369.237
'0:23.145',1336.271
'0:23.148',1356.037
'0:23.152',1367.041
'0:23.156',1394.135
'0:23.160',1372.890
'0:23.164',1383.154
'0:23.168',1378.762
'0:23.172',1405.856
'0:23.176',1403.660
'0:23.180',1391.199
'0:23.184',1396.332
'0:23.188',1409.532
'0:23.191',1372.890
'0:23.195',1417.577
'0:23.199',1377.282
'0:23.203',1418.317
'0:23.207',1412.445
'0:23.211',1405.856
'0:23.215',1409.532
'0:23.219',1376.566
'0:23.223',1413.185
'0:23.227',1367.041
'0:23.230',1408.792
'0:23.234',1410.249
'0:23.238',1413.185
'0:23.242',1416.121
'0:23.246',1414.664
'0:23.250',1411.728
'0:23.254',1420.513
'0:23.258',1402.204
'0:23.262',1430.038
'0:23.266',1429.298
'0:23.270',1435.910
'0:23.273',1423.449
'0:23.277',1394.875
'0:23.281',1417.577
'0:23.285',1405.856
'0:23.289',1419.057
'0:23.293',1431.494
'0:23.297',1433.690
'0:23.301',1447.631
'0:23.305',1462.264
'0:23.309',1455.676
'0:23.313',1450.544
'0:23.316',1448.347
'0:23.320',1440.302
'0:23.324',1480.597
'0:23.328',1463.004
'0:23.332',1486.446
'0:23.336',1454.219
'0:23.340',1487.186
'0:23.344',1449.087
'0:23.348',1490.122
'0:23.352',1462.264
'0:23.355',1457.155
'0:23.359',1465.940
'0:23.363',1443.215
'0:23.367',1445.411
'0:23.371',1468.876
'0:23.375',1445.411
'0:23.379',1414.664
'0:23.383',1410.249
'0:23.387',1437.366
'0:23.391',1394.135
'0:23.395',1421.253
'0:23.398',1391.939
'0:23.402',1369.237
'0:23.406',1378.022
'0:23.410',1401.464
'0:23.414',1369.237
'0:23.418',1369.954
'0:23.422',1355.320
