'Elapsed time','wrist_ppg'
'hh:mm:ss.mmm','mV'
'0:00.000',1271.776
'0:00.004',1267.387
'0:00.008',1254.219
'0:00.012',1286.435
'0:00.016',1257.159
'0:00.020',1287.927
'0:00.023',1315.754
'0:00.027',1344.305
'0:00.031',1350.910
'0:00.035',1362.629
'0:00.039',1378.013
'0:00.043',1389.007
'0:00.047',1377.288
'0:00.051',1388.283
'0:00.055',1364.121
'0:00.059',1375.072
'0:00.063',1372.899
'0:00.066',1398.553
'0:00.070',1392.672
'0:00.074',1364.845
'0:00.078',1387.558
'0:00.082',1418.326
'0:00.086',1421.991
'0:00.090',1398.553
'0:00.094',1434.434
'0:00.098',1404.391
'0:00.102',1445.428
'0:00.105',1473.980
'0:00.109',1438.823
'0:00.113',1475.471
'0:00.117',1495.969
'0:00.121',1517.958
'0:00.125',1504.747
'0:00.129',1511.352
'0:00.133',1528.185
'0:00.137',1573.612
'0:00.141',1548.001
'0:00.145',1582.433
'0:00.148',1562.617
'0:00.152',1616.098
'0:00.156',1588.271
'0:00.160',1586.098
'0:00.164',1610.260
'0:00.168',1610.984
'0:00.172',1616.098
'0:00.176',1600.714
'0:00.180',1638.811
'0:00.184',1594.152
'0:00.188',1629.308
'0:00.191',1618.314
'0:00.195',1586.098
'0:00.199',1586.822
'0:00.203',1608.811
'0:00.207',1573.612
'0:00.211',1537.731
'0:00.215',1526.736
'0:00.219',1506.239
'0:00.223',1503.298
'0:00.227',1515.017
'0:00.230',1481.309
'0:00.234',1421.991
'0:00.238',1417.601
'0:00.242',1388.283
'0:00.246',1386.067
'0:00.250',1342.856
'0:00.254',1284.986
'0:00.258',1262.997
'0:00.262',1243.224
'0:00.266',1227.116
'0:00.270',1146.533
'0:00.273',1151.647
'0:00.277',1136.263
'0:00.281',1095.950
'0:00.285',1052.015
'0:00.289',1013.193
'0:00.293',1001.474
'0:00.297',983.875
'0:00.301',965.551
'0:00.305',971.431
'0:00.309',964.826
'0:00.313',933.334
'0:00.316',914.286
'0:00.320',905.507
'0:00.324',926.729
'0:00.328',934.059
'0:00.332',926.729
'0:00.336',898.178
'0:00.340',954.599
'0:00.344',920.891
'0:00.348',961.886
'0:00.352',966.318
'0:00.355',972.880
'0:00.359',1023.463
'0:00.363',1041.020
'0:00.367',1063.734
'0:00.371',1073.279
'0:00.375',1066.674
'0:00.379',1101.831
'0:00.383',1096.717
'0:00.387',1142.144
'0:00.391',1175.084
'0:00.395',1172.911
'0:00.398',1161.917
'0:00.402',1197.073
'0:00.406',1241.008
'0:00.410',1217.571
'0:00.414',1248.338
'0:00.418',1278.381
'0:00.422',1300.370
'0:00.426',1293.765
'0:00.430',1286.435
'0:00.434',1301.094
'0:00.438',1351.635
'0:00.441',1372.175
'0:00.445',1351.635
'0:00.449',1391.223
'0:00.453',1393.397
'0:00.457',1406.607
'0:00.461',1388.283
'0:00.465',1438.823
'0:00.469',1397.786
'0:00.473',1432.218
'0:00.477',1428.553
'0:00.480',1413.937
'0:00.484',1427.829
'0:00.488',1461.536
'0:00.492',1412.445
'0:00.496',1445.428
'0:00.500',1410.272
'0:00.504',1402.942
'0:00.508',1422.715
'0:00.512',1372.899
'0:00.516',1399.277
'0:00.520',1360.456
'0:00.523',1335.527
'0:00.527',1370.683
'0:00.531',1362.629
'0:00.535',1339.916
'0:00.539',1340.640
'0:00.543',1322.359
'0:00.547',1301.819
'0:00.551',1286.435
'0:00.555',1306.975
'0:00.559',1300.370
'0:00.563',1290.824
'0:00.566',1280.597
'0:00.570',1258.608
'0:00.574',1284.262
'0:00.578',1258.608
'0:00.582',1276.932
'0:00.586',1275.441
'0:00.590',1283.537
'0:00.594',1278.381
'0:00.598',1286.435
'0:00.602',1284.986
'0:00.605',1271.051
'0:00.609',1267.387
'0:00.613',1274.716
'0:00.617',1284.262
'0:00.621',1277.657
'0:00.625',1299.645
'0:00.629',1276.208
'0:00.633',1262.273
'0:00.637',1281.321
'0:00.641',1294.489
'0:00.645',1266.662
'0:00.648',1273.267
'0:00.652',1277.657
'0:00.656',1296.705
'0:00.660',1294.489
'0:00.664',1276.208
'0:00.668',1271.051
'0:00.672',1264.489
'0:00.676',1248.338
'0:00.680',1290.824
'0:00.684',1292.316
'0:00.688',1288.651
'0:00.691',1253.494
'0:00.695',1283.537
'0:00.699',1259.332
'0:00.703',1273.992
'0:00.707',1308.424
'0:00.711',1295.256
'0:00.715',1297.430
'0:00.719',1279.105
'0:00.723',1280.597
'0:00.727',1295.981
'0:00.730',1304.035
'0:00.734',1292.316
'0:00.738',1296.705
'0:00.742',1304.035
'0:00.746',1353.126
'0:00.750',1356.024
'0:00.754',1360.456
'0:00.758',1344.305
'0:00.762',1356.024
'0:00.766',1352.402
'0:00.770',1340.640
'0:00.773',1333.353
'0:00.777',1345.797
'0:00.781',1326.024
'0:00.785',1301.819
'0:00.789',1269.602
'0:00.793',1266.662
'0:00.797',1287.927
'0:00.801',1264.489
'0:00.805',1221.235
'0:00.809',1241.775
'0:00.813',1212.457
'0:00.816',1235.895
'0:00.820',1230.057
'0:00.824',1259.332
'0:00.828',1221.960
'0:00.832',1238.111
'0:00.836',1268.878
'0:00.840',1331.137
'0:00.844',1335.527
'0:00.848',1337.742
'0:00.852',1411.721
'0:00.855',1402.218
'0:00.859',1465.201
'0:00.863',1501.849
'0:00.867',1525.287
'0:00.871',1547.233
'0:00.875',1557.503
'0:00.879',1575.828
'0:00.883',1583.882
'0:00.887',1586.822
'0:00.891',1571.438
'0:00.895',1536.282
'0:00.898',1524.563
'0:00.902',1513.568
'0:00.906',1508.412
'0:00.910',1532.617
'0:00.914',1473.980
'0:00.918',1504.023
'0:00.922',1462.985
'0:00.926',1446.153
'0:00.930',1490.131
'0:00.934',1446.153
'0:00.938',1491.579
'0:00.941',1471.082
'0:00.945',1526.012
'0:00.949',1498.185
'0:00.953',1541.395
'0:00.957',1588.271
'0:00.961',1612.433
'0:00.965',1596.325
'0:00.969',1608.044
'0:00.973',1665.914
'0:00.977',1659.351
'0:00.980',1658.627
'0:00.984',1672.519
'0:00.988',1633.698
'0:00.992',1667.405
'0:00.996',1605.871
'0:01.000',1627.092
'0:01.004',1574.379
'0:01.008',1524.563
'0:01.012',1489.364
'0:01.016',1491.579
'0:01.020',1435.883
'0:01.023',1389.732
'0:01.027',1382.402
'0:01.031',1328.197
'0:01.035',1288.651
'0:01.039',1254.219
'0:01.043',1232.230
'0:01.047',1254.219
'0:01.051',1242.500
'0:01.055',1243.224
'0:01.059',1245.440
'0:01.063',1260.824
'0:01.066',1268.111
'0:01.070',1262.273
'0:01.074',1321.592
'0:01.078',1357.515
'0:01.082',1351.635
'0:01.086',1399.277
'0:01.090',1454.207
'0:01.094',1485.699
'0:01.098',1512.077
'0:01.102',1589.762
'0:01.105',1593.427
'0:01.109',1621.979
'0:01.113',1691.568
'0:01.117',1709.892
'0:01.121',1715.730
'0:01.125',1723.059
'0:01.129',1742.108
'0:01.133',1758.983
'0:01.137',1777.307
'0:01.141',1783.870
'0:01.145',1786.810
'0:01.148',1789.026
'0:01.152',1785.361
'0:01.156',1783.145
'0:01.160',1773.642
'0:01.164',1761.923
'0:01.168',1772.151
'0:01.172',1743.599
'0:01.176',1725.275
'0:01.180',1707.676
'0:01.184',1701.113
'0:01.188',1672.519
'0:01.191',1699.622
'0:01.195',1649.806
'0:01.199',1669.579
'0:01.203',1638.087
'0:01.207',1660.800
'0:01.211',1674.735
'0:01.215',1635.913
'0:01.219',1666.681
'0:01.223',1677.675
'0:01.227',1656.411
'0:01.230',1646.865
'0:01.234',1669.579
'0:01.238',1676.184
'0:01.242',1641.027
'0:01.246',1673.243
'0:01.250',1664.465
'0:01.254',1618.314
'0:01.258',1616.865
'0:01.262',1627.859
'0:01.266',1615.373
'0:01.270',1595.601
'0:01.273',1587.546
'0:01.277',1547.233
'0:01.281',1507.688
'0:01.285',1511.352
'0:01.289',1520.898
'0:01.293',1471.806
'0:01.297',1492.304
'0:01.301',1473.255
'0:01.305',1461.536
'0:01.309',1471.082
'0:01.313',1463.752
'0:01.316',1464.477
'0:01.320',1450.542
'0:01.324',1476.920
'0:01.328',1454.207
'0:01.332',1462.261
'0:01.336',1493.753
'0:01.340',1456.423
'0:01.344',1491.579
'0:01.348',1503.298
'0:01.352',1475.471
'0:01.355',1479.861
'0:01.359',1523.796
'0:01.363',1533.341
'0:01.367',1534.066
'0:01.371',1529.676
'0:01.375',1503.298
'0:01.379',1511.352
'0:01.383',1507.688
'0:01.387',1535.515
'0:01.391',1545.060
'0:01.395',1515.742
'0:01.398',1504.023
'0:01.402',1536.282
'0:01.406',1550.174
'0:01.410',1515.742
'0:01.414',1506.963
'0:01.418',1511.352
'0:01.422',1561.168
'0:01.426',1526.012
'0:01.430',1523.071
'0:01.434',1544.336
'0:01.438',1561.893
'0:01.441',1531.850
'0:01.445',1528.952
'0:01.449',1545.785
'0:01.453',1530.401
'0:01.457',1531.850
'0:01.461',1514.293
'0:01.465',1504.023
'0:01.469',1520.131
'0:01.473',1520.131
'0:01.477',1517.958
'0:01.480',1471.082
'0:01.484',1467.417
'0:01.488',1487.915
'0:01.492',1481.309
'0:01.496',1499.634
'0:01.500',1487.915
'0:01.504',1480.585
'0:01.508',1442.488
'0:01.512',1455.698
'0:01.516',1474.704
'0:01.520',1416.834
'0:01.523',1437.374
'0:01.527',1395.612
'0:01.531',1425.655
'0:01.535',1382.402
'0:01.539',1352.402
'0:01.543',1331.862
'0:01.547',1313.538
'0:01.551',1284.986
'0:01.555',1294.489
'0:01.559',1301.094
'0:01.563',1251.278
'0:01.566',1235.170
'0:01.570',1273.992
'0:01.574',1225.625
'0:01.578',1247.614
'0:01.582',1266.662
'0:01.586',1237.344
'0:01.590',1258.608
'0:01.594',1264.489
'0:01.598',1314.305
'0:01.602',1355.299
'0:01.605',1347.970
'0:01.609',1392.672
'0:01.613',1386.067
'0:01.617',1432.985
'0:01.621',1453.482
'0:01.625',1477.645
'0:01.629',1530.401
'0:01.633',1556.779
'0:01.637',1553.839
'0:01.641',1602.930
'0:01.645',1578.768
'0:01.648',1637.362
'0:01.652',1605.871
'0:01.656',1645.416
'0:01.660',1620.530
'0:01.664',1617.589
'0:01.668',1639.578
'0:01.672',1646.141
'0:01.676',1595.601
'0:01.680',1586.822
'0:01.684',1593.427
'0:01.688',1548.725
'0:01.691',1509.904
'0:01.695',1458.596
'0:01.699',1410.272
'0:01.703',1383.894
'0:01.707',1330.413
'0:01.711',1308.424
'0:01.715',1243.949
'0:01.719',1211.008
'0:01.723',1128.933
'0:01.727',1077.668
'0:01.730',1042.512
'0:01.734',969.983
'0:01.738',943.604
'0:01.742',878.405
'0:01.746',796.330
'0:01.750',763.389
'0:01.754',691.585
'0:01.758',679.866
'0:01.762',624.893
'0:01.766',539.196
'0:01.770',493.045
'0:01.773',451.284
'0:01.777',435.175
'0:01.781',420.516
'0:01.785',350.927
'0:01.789',360.430
'0:01.793',361.922
'0:01.797',349.436
'0:01.801',345.771
'0:01.805',339.208
'0:01.809',364.819
'0:01.813',382.419
'0:01.816',369.251
'0:01.820',424.181
'0:01.824',504.764
'0:01.828',523.813
'0:01.832',624.169
'0:01.836',654.212
'0:01.840',732.622
'0:01.844',812.438
'0:01.848',883.519
'0:01.852',1012.469
'0:01.855',1052.015
'0:01.859',1142.144
'0:01.863',1252.727
'0:01.867',1286.435
'0:01.871',1362.629
'0:01.875',1406.607
'0:01.879',1504.023
'0:01.883',1509.904
'0:01.887',1537.006
'0:01.891',1583.157
'0:01.895',1569.222
'0:01.898',1597.049
'0:01.902',1598.541
'0:01.906',1572.163
'0:01.910',1566.282
'0:01.914',1571.438
'0:01.918',1566.282
'0:01.922',1532.617
'0:01.926',1501.082
'0:01.930',1466.650
'0:01.934',1463.752
'0:01.938',1469.591
'0:01.941',1433.709
'0:01.945',1388.283
'0:01.949',1410.272
'0:01.953',1358.240
'0:01.957',1381.678
'0:01.961',1361.180
'0:01.965',1358.240
'0:01.969',1330.413
'0:01.973',1342.132
'0:01.977',1344.305
'0:01.980',1334.078
'0:01.984',1317.970
'0:01.988',1315.029
'0:01.992',1323.083
'0:01.996',1339.191
'0:02.000',1317.202
'0:02.004',1326.748
'0:02.008',1343.581
'0:02.012',1310.640
'0:02.016',1322.359
'0:02.020',1351.635
'0:02.023',1315.029
'0:02.027',1375.072
'0:02.031',1342.132
'0:02.035',1379.504
'0:02.039',1413.169
'0:02.043',1416.110
'0:02.047',1410.272
'0:02.051',1432.985
'0:02.055',1449.818
'0:02.059',1487.915
'0:02.063',1506.963
'0:02.066',1523.796
'0:02.070',1552.390
'0:02.074',1517.958
'0:02.078',1519.406
'0:02.082',1521.622
'0:02.086',1520.131
'0:02.090',1512.801
'0:02.094',1511.352
'0:02.098',1521.622
'0:02.102',1454.931
'0:02.105',1457.147
'0:02.109',1454.207
'0:02.113',1391.223
'0:02.117',1405.115
'0:02.121',1346.521
'0:02.125',1334.078
'0:02.129',1347.970
'0:02.133',1315.029
'0:02.137',1280.597
'0:02.141',1269.602
'0:02.145',1271.776
'0:02.148',1304.035
'0:02.152',1293.040
'0:02.156',1281.321
'0:02.160',1273.992
'0:02.164',1269.602
'0:02.168',1300.370
'0:02.172',1310.640
'0:02.176',1343.581
'0:02.180',1353.851
'0:02.184',1347.970
'0:02.188',1338.467
'0:02.191',1330.413
'0:02.195',1342.856
'0:02.199',1389.007
'0:02.203',1350.910
'0:02.207',1397.786
'0:02.211',1353.851
'0:02.215',1395.612
'0:02.219',1356.791
'0:02.223',1369.234
'0:02.227',1394.121
'0:02.230',1364.845
'0:02.234',1332.586
'0:02.238',1323.083
'0:02.242',1313.538
'0:02.246',1305.484
'0:02.250',1294.489
'0:02.254',1319.418
'0:02.258',1280.597
'0:02.262',1253.494
'0:02.266',1257.159
'0:02.270',1249.830
'0:02.273',1212.457
'0:02.277',1168.479
'0:02.281',1172.144
'0:02.285',1188.295
'0:02.289',1175.084
'0:02.293',1121.604
'0:02.297',1145.808
'0:02.301',1169.246
'0:02.305',1125.993
'0:02.309',1178.749
'0:02.313',1189.019
'0:02.316',1180.241
'0:02.320',1221.235
'0:02.324',1221.960
'0:02.328',1230.781
'0:02.332',1269.602
'0:02.336',1294.489
'0:02.340',1348.737
'0:02.344',1369.234
'0:02.348',1421.266
'0:02.352',1448.369
'0:02.355',1479.861
'0:02.359',1483.525
'0:02.363',1543.569
'0:02.367',1572.887
'0:02.371',1615.373
'0:02.375',1632.249
'0:02.379',1638.087
'0:02.383',1661.525
'0:02.387',1649.081
'0:02.391',1663.740
'0:02.395',1668.130
'0:02.398',1673.243
'0:02.402',1690.843
'0:02.406',1699.622
'0:02.410',1706.951
'0:02.414',1681.298
'0:02.418',1684.962
'0:02.422',1643.968
'0:02.426',1635.913
'0:02.430',1625.643
'0:02.434',1647.632
'0:02.438',1579.492
'0:02.441',1605.146
'0:02.445',1567.049
'0:02.449',1548.725
'0:02.453',1518.682
'0:02.457',1473.255
'0:02.461',1429.320
'0:02.465',1376.564
'0:02.469',1372.899
'0:02.473',1318.694
'0:02.477',1315.029
'0:02.480',1254.219
'0:02.484',1224.900
'0:02.488',1208.068
'0:02.492',1204.403
'0:02.496',1180.965
'0:02.500',1172.144
'0:02.504',1120.155
'0:02.508',1121.604
'0:02.512',1129.658
'0:02.516',1169.246
'0:02.520',1202.911
'0:02.523',1247.614
'0:02.527',1279.872
'0:02.531',1292.316
'0:02.535',1331.862
'0:02.539',1422.715
'0:02.543',1491.579
'0:02.547',1547.233
'0:02.551',1595.601
'0:02.555',1657.135
'0:02.559',1751.653
'0:02.563',1823.458
'0:02.566',1882.777
'0:02.570',1941.371
'0:02.574',2003.673
'0:02.578',2097.424
'0:02.582',2114.300
'0:02.586',2156.786
'0:02.590',2197.056
'0:02.594',2227.824
'0:02.598',2246.872
'0:02.602',2252.753
'0:02.605',2250.537
'0:02.609',2240.310
'0:02.613',2195.607
'0:02.617',2171.445
'0:02.621',2138.462
'0:02.625',2103.305
'0:02.629',2046.884
'0:02.633',2001.457
'0:02.637',1913.544
'0:02.641',1894.496
'0:02.645',1827.847
'0:02.648',1758.983
'0:02.652',1717.221
'0:02.656',1677.675
'0:02.660',1631.482
'0:02.664',1635.146
'0:02.668',1575.103
'0:02.672',1581.666
'0:02.676',1565.558
'0:02.680',1515.742
'0:02.684',1536.282
'0:02.688',1519.406
'0:02.691',1498.909
'0:02.695',1537.731
'0:02.699',1511.352
'0:02.703',1491.579
'0:02.707',1523.796
'0:02.711',1495.244
'0:02.715',1541.395
'0:02.719',1531.850
'0:02.723',1510.628
'0:02.727',1504.023
'0:02.730',1553.114
'0:02.734',1526.012
'0:02.738',1538.455
'0:02.742',1568.498
'0:02.746',1538.455
'0:02.750',1551.665
'0:02.754',1572.163
'0:02.758',1615.373
'0:02.762',1587.546
'0:02.766',1621.254
'0:02.770',1663.740
'0:02.773',1684.238
'0:02.777',1687.178
'0:02.781',1716.497
'0:02.785',1749.437
'0:02.789',1791.924
'0:02.793',1790.475
'0:02.797',1820.518
'0:02.801',1860.064
'0:02.805',1855.674
'0:02.809',1882.053
'0:02.813',1865.944
'0:02.816',1900.377
'0:02.820',1882.777
'0:02.824',1907.706
'0:02.828',1886.442
'0:02.832',1888.658
'0:02.836',1863.729
'0:02.840',1889.382
'0:02.844',1835.177
'0:02.848',1826.356
'0:02.852',1843.231
'0:02.855',1804.410
'0:02.859',1778.756
'0:02.863',1786.086
'0:02.867',1797.805
'0:02.871',1776.540
'0:02.875',1737.719
'0:02.879',1720.162
'0:02.883',1710.616
'0:02.887',1696.724
'0:02.891',1693.059
'0:02.895',1706.227
'0:02.898',1646.141
'0:02.902',1647.632
'0:02.906',1605.146
'0:02.910',1621.979
'0:02.914',1601.481
'0:02.918',1526.736
'0:02.922',1489.364
'0:02.926',1475.471
'0:02.930',1408.780
'0:02.934',1408.780
'0:02.938',1356.791
'0:02.941',1302.543
'0:02.945',1275.441
'0:02.949',1295.256
'0:02.953',1241.775
'0:02.957',1238.835
'0:02.961',1220.511
'0:02.965',1223.451
'0:02.969',1265.938
'0:02.973',1282.770
'0:02.977',1297.430
'0:02.980',1308.424
'0:02.984',1314.305
'0:02.988',1315.754
'0:02.992',1359.689
'0:02.996',1331.137
'0:03.000',1375.839
'0:03.004',1342.856
'0:03.008',1343.581
'0:03.012',1335.527
'0:03.016',1290.100
'0:03.020',1298.154
'0:03.023',1235.895
'0:03.027',1204.403
'0:03.031',1172.911
'0:03.035',1173.635
'0:03.039',1119.430
'0:03.043',1094.501
'0:03.047',1038.847
'0:03.051',1063.009
'0:03.055',1026.361
'0:03.059',1005.139
'0:03.063',996.318
'0:03.066',942.113
'0:03.070',926.729
'0:03.074',960.437
'0:03.078',904.783
'0:03.082',934.783
'0:03.086',923.064
'0:03.090',892.297
'0:03.094',941.389
'0:03.098',919.400
'0:03.102',923.789
'0:03.105',934.059
'0:03.109',905.507
'0:03.113',936.275
'0:03.117',915.735
'0:03.121',960.437
'0:03.125',939.940
'0:03.129',912.837
'0:03.133',946.502
'0:03.137',925.280
'0:03.141',898.902
'0:03.145',863.021
'0:03.148',834.427
'0:03.152',852.027
'0:03.156',820.492
'0:03.160',773.617
'0:03.164',704.752
'0:03.168',697.423
'0:03.172',657.877
'0:03.176',621.229
'0:03.180',573.629
'0:03.184',488.656
'0:03.188',459.338
'0:03.191',424.905
'0:03.195',388.257
'0:03.199',358.981
'0:03.203',311.339
'0:03.207',293.782
'0:03.211',236.636
'0:03.215',211.707
'0:03.219',219.037
'0:03.223',239.577
'0:03.227',227.858
'0:03.230',274.733
'0:03.234',286.452
'0:03.238',308.441
'0:03.242',373.641
'0:03.246',391.198
'0:03.250',461.554
'0:03.254',515.034
'0:03.258',584.623
'0:03.262',654.936
'0:03.266',704.752
'0:03.270',787.552
'0:03.273',893.789
'0:03.277',980.934
'0:03.281',1054.955
'0:03.285',1098.166
'0:03.289',1159.701
'0:03.293',1235.895
'0:03.297',1320.867
'0:03.301',1384.618
'0:03.305',1447.602
'0:03.309',1503.298
'0:03.313',1580.941
'0:03.316',1642.476
'0:03.320',1723.059
'0:03.324',1772.151
'0:03.328',1797.080
'0:03.332',1822.691
'0:03.336',1873.999
'0:03.340',1922.323
'0:03.344',1917.934
'0:03.348',1947.977
'0:03.352',1978.744
'0:03.355',1986.798
'0:03.359',1961.187
'0:03.363',1950.193
'0:03.367',1952.366
'0:03.371',1943.587
'0:03.375',1906.939
'0:03.379',1890.107
'0:03.383',1834.453
'0:03.387',1791.924
'0:03.391',1733.329
'0:03.395',1699.622
'0:03.398',1638.811
'0:03.402',1602.930
'0:03.406',1548.001
'0:03.410',1534.790
'0:03.414',1514.293
'0:03.418',1435.158
'0:03.422',1429.320
'0:03.426',1396.337
'0:03.430',1400.002
'0:03.434',1382.402
'0:03.438',1361.905
'0:03.441',1345.797
'0:03.445',1328.921
'0:03.449',1278.381
'0:03.453',1259.332
'0:03.457',1277.657
'0:03.461',1213.906
'0:03.465',1219.062
'0:03.469',1174.360
'0:03.473',1186.079
'0:03.477',1173.635
'0:03.480',1161.917
'0:03.484',1129.658
'0:03.488',1095.950
'0:03.492',1090.836
'0:03.496',1054.231
'0:03.500',1047.626
'0:03.504',1049.799
'0:03.508',1071.063
'0:03.512',1063.009
'0:03.516',1043.961
'0:03.520',1031.517
'0:03.523',1032.242
'0:03.527',1084.998
'0:03.531',1076.944
'0:03.535',1087.171
'0:03.539',1117.939
'0:03.543',1131.874
'0:03.547',1147.982
'0:03.551',1192.684
'0:03.555',1227.841
'0:03.559',1249.830
'0:03.563',1262.273
'0:03.566',1279.872
'0:03.570',1322.359
'0:03.574',1352.402
'0:03.578',1402.942
'0:03.582',1414.661
'0:03.586',1434.434
'0:03.590',1470.315
'0:03.594',1500.358
'0:03.598',1545.060
'0:03.602',1596.325
'0:03.605',1594.876
'0:03.609',1668.854
'0:03.613',1652.746
'0:03.617',1720.162
'0:03.621',1701.838
'0:03.625',1736.994
'0:03.629',1747.989
'0:03.633',1763.372
'0:03.637',1799.253
'0:03.641',1810.248
'0:03.645',1817.577
'0:03.648',1801.469
'0:03.652',1767.037
'0:03.656',1759.707
'0:03.660',1730.389
'0:03.664',1739.935
'0:03.668',1676.184
'0:03.672',1657.860
'0:03.676',1643.243
'0:03.680',1602.930
'0:03.684',1572.887
'0:03.688',1487.190
'0:03.691',1473.980
'0:03.695',1401.451
'0:03.699',1381.678
'0:03.703',1316.478
'0:03.707',1293.040
'0:03.711',1284.986
'0:03.715',1227.841
'0:03.719',1180.241
'0:03.723',1150.198
'0:03.727',1120.879
'0:03.730',1112.101
'0:03.734',1094.501
'0:03.738',1076.944
'0:03.742',1055.680
'0:03.746',1036.631
'0:03.750',1021.972
'0:03.754',1008.804
'0:03.758',950.934
'0:03.762',982.426
'0:03.766',969.983
'0:03.770',953.107
'0:03.773',948.718
'0:03.777',959.713
'0:03.781',974.372
'0:03.785',995.594
'0:03.789',1007.313
'0:03.793',1025.637
'0:03.797',1030.026
'0:03.801',1108.436
'0:03.805',1155.311
'0:03.809',1180.241
'0:03.813',1243.224
'0:03.816',1321.592
'0:03.820',1403.667
'0:03.824',1459.321
'0:03.828',1507.688
'0:03.832',1606.595
'0:03.836',1619.038
'0:03.840',1702.562
'0:03.844',1736.994
'0:03.848',1779.480
'0:03.852',1808.799
'0:03.855',1818.302
'0:03.859',1866.669
'0:03.863',1830.788
'0:03.867',1826.356
'0:03.871',1852.734
'0:03.875',1827.847
'0:03.879',1757.492
'0:03.883',1723.059
'0:03.887',1710.616
'0:03.891',1637.362
'0:03.895',1595.601
'0:03.898',1551.665
'0:03.902',1507.688
'0:03.906',1402.942
'0:03.910',1400.002
'0:03.914',1347.970
'0:03.918',1279.872
'0:03.922',1230.057
'0:03.926',1220.511
'0:03.930',1139.928
'0:03.934',1150.922
'0:03.938',1104.047
'0:03.941',1078.393
'0:03.945',1067.398
'0:03.949',1064.458
'0:03.953',1065.950
'0:03.957',1065.950
'0:03.961',1029.301
'0:03.965',1027.853
'0:03.969',1052.015
'0:03.973',1097.441
'0:03.977',1104.047
'0:03.980',1113.550
'0:03.984',1118.663
'0:03.988',1197.798
'0:03.992',1197.798
'0:03.996',1270.327
'0:04.000',1268.878
'0:04.004',1338.467
'0:04.008',1403.667
'0:04.012',1441.764
'0:04.016',1504.747
'0:04.020',1563.384
'0:04.023',1594.152
'0:04.027',1617.589
'0:04.031',1708.443
'0:04.035',1729.665
'0:04.039',1762.648
'0:04.043',1786.086
'0:04.047',1845.404
'0:04.051',1842.507
'0:04.055',1877.663
'0:04.059',1915.036
'0:04.063',1882.053
'0:04.066',1895.987
'0:04.070',1907.706
'0:04.074',1887.166
'0:04.078',1902.550
'0:04.082',1849.069
'0:04.086',1839.566
'0:04.090',1850.561
'0:04.094',1821.967
'0:04.098',1772.151
'0:04.102',1758.259
'0:04.105',1748.713
'0:04.109',1728.940
'0:04.113',1715.730
'0:04.117',1704.778
'0:04.121',1722.335
'0:04.125',1687.903
'0:04.129',1666.681
'0:04.133',1704.011
'0:04.137',1666.681
'0:04.141',1696.724
'0:04.145',1665.189
'0:04.148',1704.011
'0:04.152',1657.860
'0:04.156',1691.568
'0:04.160',1686.454
'0:04.164',1641.752
'0:04.168',1678.400
'0:04.172',1641.027
'0:04.176',1624.195
'0:04.180',1642.476
'0:04.184',1599.265
'0:04.188',1603.655
'0:04.191',1624.919
'0:04.195',1620.530
'0:04.199',1602.206
'0:04.203',1582.433
'0:04.207',1564.833
'0:04.211',1580.941
'0:04.215',1572.887
'0:04.219',1581.666
'0:04.223',1597.816
'0:04.227',1582.433
'0:04.230',1619.038
'0:04.234',1641.752
'0:04.238',1616.865
'0:04.242',1621.254
'0:04.246',1660.800
'0:04.250',1646.141
'0:04.254',1663.740
'0:04.258',1664.465
'0:04.262',1651.297
'0:04.266',1654.962
'0:04.270',1663.740
'0:04.273',1649.806
'0:04.277',1651.297
'0:04.281',1670.346
'0:04.285',1619.038
'0:04.289',1631.482
'0:04.293',1645.416
'0:04.297',1614.649
'0:04.301',1591.936
'0:04.305',1619.038
'0:04.309',1619.038
'0:04.313',1620.530
'0:04.316',1629.308
'0:04.320',1624.195
'0:04.324',1657.135
'0:04.328',1671.795
'0:04.332',1684.962
'0:04.336',1722.335
'0:04.340',1757.492
'0:04.344',1748.713
'0:04.348',1769.210
'0:04.352',1784.594
'0:04.355',1798.529
'0:04.359',1840.291
'0:04.363',1855.674
'0:04.367',1867.393
'0:04.371',1870.334
'0:04.375',1849.069
'0:04.379',1845.404
'0:04.383',1871.058
'0:04.387',1832.237
'0:04.391',1819.026
'0:04.395',1833.686
'0:04.398',1824.183
'0:04.402',1786.810
'0:04.406',1758.983
'0:04.410',1737.719
'0:04.414',1715.730
'0:04.418',1691.568
'0:04.422',1678.400
'0:04.426',1642.476
'0:04.430',1622.703
'0:04.434',1567.049
'0:04.438',1535.515
'0:04.441',1526.012
'0:04.445',1513.568
'0:04.449',1460.088
'0:04.453',1427.104
'0:04.457',1442.488
'0:04.461',1379.504
'0:04.465',1392.672
'0:04.469',1342.856
'0:04.473',1372.175
'0:04.477',1346.521
'0:04.480',1325.257
'0:04.484',1311.364
'0:04.488',1294.489
'0:04.492',1339.191
'0:04.496',1320.867
'0:04.500',1325.257
'0:04.504',1286.435
'0:04.508',1316.478
'0:04.512',1337.742
'0:04.516',1303.310
'0:04.520',1320.867
'0:04.523',1349.461
'0:04.527',1350.186
'0:04.531',1315.754
'0:04.535',1363.354
'0:04.539',1342.132
'0:04.543',1366.294
'0:04.547',1410.996
'0:04.551',1380.229
'0:04.555',1397.786
'0:04.559',1417.601
'0:04.563',1445.428
'0:04.566',1460.088
'0:04.570',1466.650
'0:04.574',1498.909
'0:04.578',1523.796
'0:04.582',1523.071
'0:04.586',1531.125
'0:04.590',1530.401
'0:04.594',1524.563
'0:04.598',1565.558
'0:04.602',1547.233
'0:04.605',1522.347
'0:04.609',1517.958
'0:04.613',1547.233
'0:04.617',1538.455
'0:04.621',1500.358
'0:04.625',1495.969
'0:04.629',1462.985
'0:04.633',1430.045
'0:04.637',1439.548
'0:04.641',1367.018
'0:04.645',1386.834
'0:04.648',1336.251
'0:04.652',1306.208
'0:04.656',1279.105
'0:04.660',1245.440
'0:04.664',1199.247
'0:04.668',1168.479
'0:04.672',1117.214
'0:04.676',1070.339
'0:04.680',1049.074
'0:04.684',1019.031
'0:04.688',923.064
'0:04.691',895.962
'0:04.695',827.097
'0:04.699',797.822
'0:04.703',715.747
'0:04.707',690.860
'0:04.711',633.715
'0:04.715',569.964
'0:04.719',521.597
'0:04.723',471.781
'0:04.727',385.359
'0:04.730',381.695
'0:04.734',347.262
'0:04.738',304.009
'0:04.742',263.014
'0:04.746',268.128
'0:04.750',273.242
'0:04.754',250.528
'0:04.758',296.722
'0:04.762',316.495
'0:04.766',350.927
'0:04.770',389.024
'0:04.773',393.414
'0:04.777',471.781
'0:04.781',498.884
'0:04.785',598.515
'0:04.789',665.206
'0:04.793',695.974
'0:04.797',782.438
'0:04.801',838.816
'0:04.805',891.573
'0:04.809',900.351
'0:04.813',962.653
'0:04.816',1027.853
'0:04.820',1076.177
'0:04.824',1098.166
'0:04.828',1116.490
'0:04.832',1135.538
'0:04.836',1132.598
'0:04.840',1167.030
'0:04.844',1168.479
'0:04.848',1208.792
'0:04.852',1164.090
'0:04.855',1197.073
'0:04.859',1219.787
'0:04.863',1175.084
'0:04.867',1204.403
'0:04.871',1229.290
'0:04.875',1230.781
'0:04.879',1221.235
'0:04.883',1233.679
'0:04.887',1429.320
'0:04.891',1468.866
'0:04.895',1508.412
'0:04.898',1521.622
'0:04.902',1566.282
'0:04.906',1567.773
'0:04.910',1632.973
'0:04.914',1627.859
'0:04.918',1648.357
'0:04.922',1698.173
'0:04.926',1700.346
'0:04.930',1710.616
'0:04.934',1735.545
'0:04.938',1761.923
'0:04.941',1813.188
'0:04.945',1814.637
'0:04.949',1823.458
'0:04.953',1579.492
'0:04.957',1535.515
'0:04.961',1496.693
'0:04.965',1479.861
'0:04.969',1416.110
'0:04.973',1416.834
'0:04.977',1360.456
'0:04.980',1358.964
'0:04.984',1325.257
'0:04.988',1293.765
'0:04.992',1282.046
'0:04.996',1261.548
'0:05.000',1235.170
'0:05.004',1231.505
'0:05.008',1208.792
'0:05.012',1206.576
'0:05.016',1222.727
'0:05.020',1070.339
'0:05.023',1060.793
'0:05.027',1062.285
'0:05.031',1047.626
'0:05.035',1057.128
'0:05.039',1093.777
'0:05.043',1084.998
'0:05.047',1084.998
'0:05.051',1095.226
'0:05.055',1124.544
'0:05.059',1184.630
'0:05.063',1219.787
'0:05.066',1259.332
'0:05.070',1275.441
'0:05.074',1322.359
'0:05.078',1361.180
'0:05.082',1437.374
'0:05.086',1460.088
'0:05.090',1497.418
'0:05.094',1546.509
'0:05.098',1605.146
'0:05.102',1613.200
'0:05.105',1695.957
'0:05.109',1700.346
'0:05.113',1757.492
'0:05.117',1772.875
'0:05.121',1780.205
'0:05.125',1803.643
'0:05.129',1814.637
'0:05.133',1857.123
'0:05.137',1829.296
'0:05.141',1820.518
'0:05.145',1843.956
'0:05.148',1849.836
'0:05.152',1798.529
'0:05.156',1788.259
'0:05.160',1780.205
'0:05.164',1745.773
'0:05.168',1701.838
'0:05.172',1693.783
'0:05.176',1650.530
'0:05.180',1613.925
'0:05.184',1566.282
'0:05.188',1570.714
'0:05.191',1509.904
'0:05.195',1450.542
'0:05.199',1434.434
'0:05.203',1397.061
'0:05.207',1365.569
'0:05.211',1302.543
'0:05.215',1266.662
'0:05.219',1235.895
'0:05.223',1235.170
'0:05.227',1242.500
'0:05.230',1232.954
'0:05.234',1227.841
'0:05.238',1218.295
'0:05.242',1237.344
'0:05.246',1239.560
'0:05.250',1242.500
'0:05.254',1327.472
'0:05.258',1323.083
'0:05.262',1387.558
'0:05.266',1441.764
'0:05.270',1477.645
'0:05.273',1537.731
'0:05.277',1615.373
'0:05.281',1671.795
'0:05.285',1676.184
'0:05.289',1721.610
'0:05.293',1750.162
'0:05.297',1773.642
'0:05.301',1791.199
'0:05.305',1821.967
'0:05.309',1789.750
'0:05.313',1784.594
'0:05.316',1767.762
'0:05.320',1754.594
'0:05.324',1744.324
'0:05.328',1728.940
'0:05.332',1706.951
'0:05.336',1725.275
'0:05.340',1664.465
'0:05.344',1642.476
'0:05.348',1632.249
'0:05.352',1649.806
'0:05.355',1585.331
'0:05.359',1591.936
'0:05.363',1573.612
'0:05.367',1528.952
'0:05.371',1513.568
'0:05.375',1491.579
'0:05.379',1482.801
'0:05.383',1476.920
'0:05.387',1465.201
'0:05.391',1425.655
'0:05.395',1389.732
'0:05.398',1410.272
'0:05.402',1354.575
'0:05.406',1328.197
'0:05.410',1361.180
'0:05.414',1356.791
'0:05.418',1336.975
'0:05.422',1313.538
'0:05.426',1304.035
'0:05.430',1336.975
'0:05.434',1330.413
'0:05.438',1349.461
'0:05.441',1380.229
'0:05.445',1424.164
'0:05.449',1441.039
'0:05.453',1440.272
'0:05.457',1444.704
'0:05.461',1491.579
'0:05.465',1527.461
'0:05.469',1509.136
'0:05.473',1518.682
'0:05.477',1547.233
'0:05.480',1608.044
'0:05.484',1599.990
'0:05.488',1638.811
'0:05.492',1665.914
'0:05.496',1679.849
'0:05.500',1697.448
'0:05.504',1708.443
'0:05.508',1748.713
'0:05.512',1806.583
'0:05.516',1816.853
'0:05.520',1849.836
'0:05.523',1868.118
'0:05.527',1924.539
'0:05.531',1970.690
'0:05.535',1991.187
'0:05.539',2008.787
'0:05.543',2032.225
'0:05.547',2071.813
'0:05.551',2052.765
'0:05.555',2073.262
'0:05.559',2087.197
'0:05.563',2079.100
'0:05.566',2061.543
'0:05.570',2072.538
'0:05.574',2019.057
'0:05.578',1991.187
'0:05.582',1975.079
'0:05.586',1926.755
'0:05.590',1916.485
'0:05.594',1865.220
'0:05.598',1822.691
'0:05.602',1763.372
'0:05.605',1725.275
'0:05.609',1695.957
'0:05.613',1693.059
'0:05.617',1619.038
'0:05.621',1605.146
'0:05.625',1583.882
'0:05.629',1538.455
'0:05.633',1512.077
'0:05.637',1499.634
'0:05.641',1491.579
'0:05.645',1471.082
'0:05.648',1434.434
'0:05.652',1450.542
'0:05.656',1405.840
'0:05.660',1372.175
'0:05.664',1372.899
'0:05.668',1356.791
'0:05.672',1353.851
'0:05.676',1296.705
'0:05.680',1277.657
'0:05.684',1267.387
'0:05.688',1240.284
'0:05.691',1252.003
'0:05.695',1211.733
'0:05.699',1216.122
'0:05.703',1211.008
'0:05.707',1218.295
'0:05.711',1196.349
'0:05.715',1182.414
'0:05.719',1210.241
'0:05.723',1214.673
'0:05.727',1178.749
'0:05.730',1168.479
'0:05.734',1188.295
'0:05.738',1211.733
'0:05.742',1214.673
'0:05.746',1174.360
'0:05.750',1185.354
'0:05.754',1208.792
'0:05.758',1169.246
'0:05.762',1178.749
'0:05.766',1161.192
'0:05.770',1160.425
'0:05.773',1133.323
'0:05.777',1120.155
'0:05.781',1110.609
'0:05.785',1065.950
'0:05.789',1052.015
'0:05.793',1020.523
'0:05.797',1034.415
'0:05.801',1011.702
'0:05.805',984.599
'0:05.809',978.761
'0:05.813',1008.804
'0:05.816',1012.469
'0:05.820',1026.361
'0:05.824',1027.853
'0:05.828',1057.128
'0:05.832',1089.387
'0:05.836',1100.382
'0:05.840',1095.950
'0:05.844',1163.365
'0:05.848',1153.863
'0:05.852',1200.014
'0:05.855',1242.500
'0:05.859',1267.387
'0:05.863',1278.381
'0:05.867',1344.305
'0:05.871',1366.294
'0:05.875',1380.229
'0:05.879',1376.564
'0:05.883',1394.121
'0:05.887',1426.380
'0:05.891',1460.812
'0:05.895',1433.709
'0:05.898',1427.104
'0:05.902',1420.499
'0:05.906',1410.996
'0:05.910',1419.050
'0:05.914',1413.937
'0:05.918',1405.840
'0:05.922',1328.197
'0:05.926',1334.078
'0:05.930',1287.160
'0:05.934',1231.505
'0:05.938',1169.246
'0:05.941',1123.820
'0:05.945',1068.123
'0:05.949',1014.642
'0:05.953',951.659
'0:05.957',881.303
'0:05.961',830.038
'0:05.965',718.687
'0:05.969',707.693
'0:05.973',637.379
'0:05.977',575.078
'0:05.980',500.375
'0:05.984',507.705
'0:05.988',471.781
'0:05.992',438.840
'0:05.996',380.203
'0:06.000',406.581
'0:06.004',358.257
'0:06.008',405.857
'0:06.012',385.359
'0:06.016',378.754
'0:06.020',427.846
'0:06.023',467.392
'0:06.027',503.315
'0:06.031',491.554
'0:06.035',538.472
'0:06.039',609.510
'0:06.043',656.428
'0:06.047',672.536
'0:06.051',766.287
'0:06.055',802.211
'0:06.059',849.086
'0:06.063',877.638
'0:06.066',966.318
'0:06.070',977.270
'0:06.074',1067.398
'0:06.078',1082.782
'0:06.082',1147.257
'0:06.086',1201.463
'0:06.090',1202.911
'0:06.094',1276.208
'0:06.098',1282.770
'0:06.102',1354.575
'0:06.105',1403.667
'0:06.109',1443.212
'0:06.113',1477.645
'0:06.117',1473.980
'0:06.121',1528.952
'0:06.125',1542.120
'0:06.129',1555.330
'0:06.133',1607.319
'0:06.137',1654.962
'0:06.141',1656.411
'0:06.145',1704.011
'0:06.148',1713.556
'0:06.152',1708.443
'0:06.156',1728.216
'0:06.160',1749.437
'0:06.164',1769.210
'0:06.168',1786.086
'0:06.172',1821.967
'0:06.176',1813.913
'0:06.180',1808.075
'0:06.184',1802.194
'0:06.188',1817.577
'0:06.191',1800.020
'0:06.195',1791.199
'0:06.199',1756.043
'0:06.203',1746.540
'0:06.207',1726.000
'0:06.211',1715.730
'0:06.215',1699.622
'0:06.219',1699.622
'0:06.223',1701.838
'0:06.227',1693.059
'0:06.230',1670.346
'0:06.234',1681.298
'0:06.238',1635.146
'0:06.242',1668.854
'0:06.246',1617.589
'0:06.250',1654.195
'0:06.254',1624.919
'0:06.258',1594.152
'0:06.262',1610.984
'0:06.266',1610.260
'0:06.270',1594.152
'0:06.273',1564.109
'0:06.277',1558.995
'0:06.281',1534.790
'0:06.285',1523.071
'0:06.289',1512.077
'0:06.293',1501.849
'0:06.297',1491.579
'0:06.301',1467.417
'0:06.305',1449.093
'0:06.309',1415.385
'0:06.313',1425.655
'0:06.316',1400.726
'0:06.320',1340.640
'0:06.324',1304.035
'0:06.328',1281.321
'0:06.332',1277.657
'0:06.336',1250.554
'0:06.340',1224.176
'0:06.344',1170.695
'0:06.348',1183.138
'0:06.352',1134.047
'0:06.355',1091.561
'0:06.359',1073.279
'0:06.363',1052.739
'0:06.367',1074.728
'0:06.371',1038.847
'0:06.375',994.869
'0:06.379',977.270
'0:06.383',958.988
'0:06.387',961.161
'0:06.391',944.329
'0:06.395',940.664
'0:06.398',963.377
'0:06.402',915.735
'0:06.406',938.448
'0:06.410',915.010
'0:06.414',931.119
'0:06.418',893.789
'0:06.422',897.453
'0:06.426',862.254
'0:06.430',890.124
'0:06.434',868.135
'0:06.438',846.870
'0:06.441',847.637
'0:06.445',820.492
'0:06.449',775.108
'0:06.453',746.514
'0:06.457',763.389
'0:06.461',744.341
'0:06.465',697.423
'0:06.469',662.990
'0:06.473',679.141
'0:06.477',617.564
'0:06.480',649.098
'0:06.484',626.385
'0:06.488',612.450
'0:06.492',608.785
'0:06.496',564.850
'0:06.500',602.180
'0:06.504',612.450
'0:06.508',616.839
'0:06.512',628.558
'0:06.516',615.391
'0:06.520',654.212
'0:06.523',686.428
'0:06.527',698.914
'0:06.531',741.400
'0:06.535',799.270
'0:06.539',799.995
'0:06.543',882.070
'0:06.547',898.902
'0:06.551',969.216
'0:06.555',1005.139
'0:06.559',1035.182
'0:06.563',1114.998
'0:06.566',1156.036
'0:06.570',1211.733
'0:06.574',1249.830
'0:06.578',1276.208
'0:06.582',1301.094
'0:06.586',1337.742
'0:06.590',1388.283
'0:06.594',1430.045
'0:06.598',1469.591
'0:06.602',1478.369
'0:06.605',1553.839
'0:06.609',1548.725
'0:06.613',1593.427
'0:06.617',1571.438
'0:06.621',1600.714
'0:06.625',1610.260
'0:06.629',1599.990
'0:06.633',1607.319
'0:06.637',1605.146
'0:06.641',1586.098
'0:06.645',1588.271
'0:06.648',1588.995
'0:06.652',1524.563
'0:06.656',1524.563
'0:06.660',1487.190
'0:06.664',1454.931
'0:06.668',1468.866
'0:06.672',1410.996
'0:06.676',1403.667
'0:06.680',1421.266
'0:06.684',1375.072
'0:06.688',1387.558
'0:06.691',1344.305
'0:06.695',1362.629
'0:06.699',1350.186
'0:06.703',1320.867
'0:06.707',1370.683
'0:06.711',1345.072
'0:06.715',1346.521
'0:06.719',1353.851
'0:06.723',1395.612
'0:06.727',1414.661
'0:06.730',1378.737
'0:06.734',1413.937
'0:06.738',1438.099
'0:06.742',1453.482
'0:06.746',1461.536
'0:06.750',1478.369
'0:06.754',1501.082
'0:06.758',1566.282
'0:06.762',1576.552
'0:06.766',1574.379
'0:06.770',1603.655
'0:06.773',1654.962
'0:06.777',1673.243
'0:06.781',1709.167
'0:06.785',1723.059
'0:06.789',1735.545
'0:06.793',1731.156
'0:06.797',1764.097
'0:06.801',1794.864
'0:06.805',1793.415
'0:06.809',1821.967
'0:06.813',1835.177
'0:06.816',1858.615
'0:06.820',1876.939
'0:06.824',1887.166
'0:06.828',1897.436
'0:06.832',1914.269
'0:06.836',1928.204
'0:06.840',1942.139
'0:06.844',1959.696
'0:06.848',1972.906
'0:06.852',2006.614
'0:06.855',2016.841
'0:06.859',2021.230
'0:06.863',2020.506
'0:06.867',2029.284
'0:06.871',2072.538
'0:06.875',2085.706
'0:06.879',2087.197
'0:06.883',2084.257
'0:06.887',2092.311
'0:06.891',2120.138
'0:06.895',2125.294
'0:06.898',2156.061
'0:06.902',2159.726
'0:06.906',2158.959
'0:06.910',2173.618
'0:06.914',2179.499
'0:06.918',2209.542
'0:06.922',2219.770
'0:06.926',2208.775
'0:06.930',2203.661
'0:06.934',2197.056
'0:06.938',2191.218
'0:06.941',2176.559
'0:06.945',2159.726
'0:06.949',2142.127
'0:06.953',2128.959
'0:06.957',2091.586
'0:06.961',2073.262
'0:06.965',2002.182
'0:06.969',1967.025
'0:06.973',1953.133
'0:06.977',1878.388
'0:06.980',1817.577
'0:06.984',1782.421
'0:06.988',1754.594
'0:06.992',1678.400
'0:06.996',1676.184
'0:07.000',1585.331
'0:07.004',1595.601
'0:07.008',1560.444
'0:07.012',1526.736
'0:07.016',1499.634
'0:07.020',1438.099
'0:07.023',1434.434
'0:07.027',1397.786
'0:07.031',1363.354
'0:07.035',1356.024
'0:07.039',1368.510
'0:07.043',1373.624
'0:07.047',1315.029
'0:07.051',1332.586
'0:07.055',1356.791
'0:07.059',1322.359
'0:07.063',1309.148
'0:07.066',1353.851
'0:07.070',1340.640
'0:07.074',1321.592
'0:07.078',1317.202
'0:07.082',1335.527
'0:07.086',1338.467
'0:07.090',1371.408
'0:07.094',1325.257
'0:07.098',1323.808
'0:07.102',1355.299
'0:07.105',1331.862
'0:07.109',1353.126
'0:07.113',1328.921
'0:07.117',1351.635
'0:07.121',1377.288
'0:07.125',1333.353
'0:07.129',1353.851
'0:07.133',1353.851
'0:07.137',1317.970
'0:07.141',1357.515
'0:07.145',1320.867
'0:07.148',1308.424
'0:07.152',1305.484
'0:07.156',1281.321
'0:07.160',1270.327
'0:07.164',1262.997
'0:07.168',1247.614
'0:07.172',1287.927
'0:07.176',1270.327
'0:07.180',1244.673
'0:07.184',1280.597
'0:07.188',1290.824
'0:07.191',1294.489
'0:07.195',1280.597
'0:07.199',1283.537
'0:07.203',1332.586
'0:07.207',1309.148
'0:07.211',1330.413
'0:07.215',1369.959
'0:07.219',1399.277
'0:07.223',1436.650
'0:07.227',1424.164
'0:07.230',1462.985
'0:07.234',1515.742
'0:07.238',1539.946
'0:07.242',1530.401
'0:07.246',1596.325
'0:07.250',1576.552
'0:07.254',1622.703
'0:07.258',1624.195
'0:07.262',1662.292
'0:07.266',1699.622
'0:07.270',1701.838
'0:07.273',1747.264
'0:07.277',1765.588
'0:07.281',1764.821
'0:07.285',1769.977
'0:07.289',1821.242
'0:07.293',1813.913
'0:07.297',1843.231
'0:07.301',1866.669
'0:07.305',1838.842
'0:07.309',1867.393
'0:07.313',1887.166
'0:07.316',1870.334
'0:07.320',1868.885
'0:07.324',1862.280
'0:07.328',1833.686
'0:07.332',1832.961
'0:07.336',1816.853
'0:07.340',1791.199
'0:07.344',1755.318
'0:07.348',1711.340
'0:07.352',1688.627
'0:07.355',1653.470
'0:07.359',1596.325
'0:07.363',1533.341
'0:07.367',1459.321
'0:07.371',1421.991
'0:07.375',1317.202
'0:07.379',1262.273
'0:07.383',1171.420
'0:07.387',1128.933
'0:07.391',1047.626
'0:07.395',968.491
'0:07.398',871.075
'0:07.402',797.055
'0:07.406',698.914
'0:07.410',644.709
'0:07.414',575.845
'0:07.418',470.332
'0:07.422',441.014
'0:07.426',386.084
'0:07.430',345.047
'0:07.434',265.188
'0:07.438',280.571
'0:07.441',251.295
'0:07.445',225.642
'0:07.449',162.658
'0:07.453',174.377
'0:07.457',185.329
'0:07.461',199.264
'0:07.465',208.809
'0:07.469',175.826
'0:07.473',192.658
'0:07.477',240.301
'0:07.480',246.906
'0:07.484',290.841
'0:07.488',372.874
'0:07.492',402.917
'0:07.496',462.278
'0:07.500',504.040
'0:07.504',553.131
'0:07.508',591.228
'0:07.512',672.536
'0:07.516',685.704
'0:07.520',765.563
'0:07.523',837.367
'0:07.527',854.200
'0:07.531',938.448
'0:07.535',1008.804
'0:07.539',1049.074
'0:07.543',1074.728
'0:07.547',1162.641
'0:07.551',1201.463
'0:07.555',1215.397
'0:07.559',1297.430
'0:07.563',1343.581
'0:07.566',1382.402
'0:07.570',1409.505
'0:07.574',1438.823
'0:07.578',1517.958
'0:07.582',1521.622
'0:07.586',1566.282
'0:07.590',1602.206
'0:07.594',1627.859
'0:07.598',1671.795
'0:07.602',1734.054
'0:07.605',1747.264
'0:07.609',1748.713
'0:07.613',1793.415
'0:07.617',1818.302
'0:07.621',1811.739
'0:07.625',1852.734
'0:07.629',1841.015
'0:07.633',1835.902
'0:07.637',1847.620
'0:07.641',1835.177
'0:07.645',1849.836
'0:07.648',1827.847
'0:07.652',1831.512
'0:07.656',1809.523
'0:07.660',1759.707
'0:07.664',1736.994
'0:07.668',1728.940
'0:07.672',1719.395
'0:07.676',1676.184
'0:07.680',1646.865
'0:07.684',1617.589
'0:07.688',1587.546
'0:07.691',1532.617
'0:07.695',1504.747
'0:07.699',1497.418
'0:07.703',1464.477
'0:07.707',1435.158
'0:07.711',1420.499
'0:07.715',1404.391
'0:07.719',1402.942
'0:07.723',1392.672
'0:07.727',1394.888
'0:07.730',1375.839
'0:07.734',1386.067
'0:07.738',1378.737
'0:07.742',1386.834
'0:07.746',1397.786
'0:07.750',1405.840
'0:07.754',1425.655
'0:07.758',1437.374
'0:07.762',1473.980
'0:07.766',1497.418
'0:07.770',1486.466
'0:07.773',1509.904
'0:07.777',1556.055
'0:07.781',1560.444
'0:07.785',1548.001
'0:07.789',1608.811
'0:07.793',1583.157
'0:07.797',1600.714
'0:07.801',1613.925
'0:07.805',1639.578
'0:07.809',1657.860
'0:07.813',1649.806
'0:07.816',1639.578
'0:07.820',1657.135
'0:07.824',1680.573
'0:07.828',1640.303
'0:07.832',1645.416
'0:07.836',1630.033
'0:07.840',1628.584
'0:07.844',1611.709
'0:07.848',1638.811
'0:07.852',1577.276
'0:07.855',1564.833
'0:07.859',1572.887
'0:07.863',1513.568
'0:07.867',1504.023
'0:07.871',1490.855
'0:07.875',1471.082
'0:07.879',1454.207
'0:07.883',1423.439
'0:07.887',1360.456
'0:07.891',1328.197
'0:07.895',1320.143
'0:07.898',1325.257
'0:07.902',1285.711
'0:07.906',1267.387
'0:07.910',1230.781
'0:07.914',1243.224
'0:07.918',1213.906
'0:07.922',1190.468
'0:07.926',1180.241
'0:07.930',1157.527
'0:07.934',1092.328
'0:07.938',1109.885
'0:07.941',1072.512
'0:07.945',1071.063
'0:07.949',1016.858
'0:07.953',994.869
'0:07.957',1019.799
'0:07.961',1007.313
'0:07.965',991.929
'0:07.969',975.096
'0:07.973',947.994
'0:07.977',905.507
'0:07.980',929.670
'0:07.984',936.999
'0:07.988',904.016
'0:07.992',887.908
'0:07.996',880.578
'0:08.000',927.454
'0:08.004',928.945
'0:08.008',912.070
'0:08.012',967.767
'0:08.016',987.540
'0:08.020',1033.691
'0:08.023',1047.626
'0:08.027',1063.009
'0:08.031',1131.149
'0:08.035',1194.857
'0:08.039',1236.619
'0:08.043',1270.327
'0:08.047',1273.992
'0:08.051',1303.310
'0:08.055',1339.916
'0:08.059',1400.002
'0:08.063',1421.991
'0:08.066',1408.056
'0:08.070',1409.505
'0:08.074',1415.385
'0:08.078',1457.147
'0:08.082',1458.596
'0:08.086',1418.326
'0:08.090',1394.121
'0:08.094',1410.996
'0:08.098',1416.834
'0:08.102',1362.629
'0:08.105',1381.678
'0:08.109',1379.504
'0:08.113',1363.354
'0:08.117',1340.640
'0:08.121',1378.013
'0:08.125',1364.121
'0:08.129',1326.748
'0:08.133',1375.839
'0:08.137',1339.916
'0:08.141',1389.007
'0:08.145',1349.461
'0:08.148',1375.072
'0:08.152',1385.342
'0:08.156',1394.121
'0:08.160',1419.775
'0:08.164',1435.158
'0:08.168',1438.099
'0:08.172',1460.812
'0:08.176',1515.017
'0:08.180',1548.725
'0:08.184',1547.233
'0:08.188',1574.379
'0:08.191',1617.589
'0:08.195',1670.346
'0:08.199',1693.783
'0:08.203',1728.216
'0:08.207',1797.805
'0:08.211',1859.339
'0:08.215',1876.939
'0:08.219',1913.544
'0:08.223',2001.457
'0:08.227',2019.781
'0:08.230',2082.041
'0:08.234',2125.294
'0:08.238',2149.456
'0:08.242',2202.937
'0:08.246',2239.542
'0:08.250',2241.758
'0:08.254',2276.915
'0:08.258',2279.131
'0:08.262',2300.353
'0:08.266',2261.531
'0:08.270',2260.807
'0:08.273',2247.639
'0:08.277',2224.159
'0:08.281',2187.553
'0:08.285',2161.900
'0:08.289',2109.143
'0:08.293',2079.100
'0:08.297',2051.998
'0:08.301',2031.500
'0:08.305',1991.954
'0:08.309',1956.755
'0:08.313',1913.544
'0:08.316',1883.502
'0:08.320',1841.015
'0:08.324',1830.788
'0:08.328',1795.589
'0:08.332',1801.469
'0:08.336',1752.378
'0:08.340',1720.886
'0:08.344',1697.448
'0:08.348',1686.454
'0:08.352',1656.411
'0:08.355',1635.146
'0:08.359',1624.195
'0:08.363',1621.979
'0:08.367',1589.762
'0:08.371',1582.433
'0:08.375',1543.569
'0:08.379',1560.444
'0:08.383',1515.742
'0:08.387',1482.034
'0:08.391',1463.752
'0:08.395',1476.920
'0:08.398',1426.380
'0:08.402',1410.996
'0:08.406',1400.002
'0:08.410',1423.439
'0:08.414',1404.391
'0:08.418',1374.348
'0:08.422',1358.240
'0:08.426',1395.612
'0:08.430',1350.186
'0:08.434',1380.953
'0:08.438',1405.115
'0:08.441',1362.629
'0:08.445',1402.942
'0:08.449',1434.434
'0:08.453',1429.320
'0:08.457',1421.991
'0:08.461',1465.201
'0:08.465',1471.082
'0:08.469',1484.250
'0:08.473',1537.006
'0:08.477',1579.492
'0:08.480',1569.947
'0:08.484',1593.427
'0:08.488',1642.476
'0:08.492',1627.859
'0:08.496',1649.806
'0:08.500',1674.735
'0:08.504',1719.395
'0:08.508',1706.951
'0:08.512',1708.443
'0:08.516',1719.395
'0:08.520',1747.264
'0:08.523',1750.929
'0:08.527',1716.497
'0:08.531',1742.875
'0:08.535',1717.221
'0:08.539',1698.173
'0:08.543',1725.275
'0:08.547',1671.070
'0:08.551',1652.746
'0:08.555',1658.627
'0:08.559',1619.763
'0:08.563',1605.146
'0:08.566',1611.709
'0:08.570',1563.384
'0:08.574',1528.185
'0:08.578',1498.185
'0:08.582',1464.477
'0:08.586',1468.866
'0:08.590',1412.445
'0:08.594',1404.391
'0:08.598',1338.467
'0:08.602',1346.521
'0:08.605',1310.640
'0:08.609',1268.878
'0:08.613',1194.857
'0:08.617',1196.349
'0:08.621',1124.544
'0:08.625',1082.058
'0:08.629',1063.009
'0:08.633',1027.086
'0:08.637',1052.015
'0:08.641',1045.410
'0:08.645',1022.696
'0:08.648',1033.691
'0:08.652',1030.026
'0:08.656',1028.577
'0:08.660',1036.631
'0:08.664',1050.566
'0:08.668',1040.296
'0:08.672',1105.496
'0:08.676',1082.058
'0:08.680',1146.533
'0:08.684',1126.760
'0:08.688',1186.079
'0:08.691',1200.014
'0:08.695',1215.397
'0:08.699',1219.787
'0:08.703',1186.079
'0:08.707',1192.684
'0:08.711',1225.625
'0:08.715',1207.343
'0:08.719',1170.695
'0:08.723',1175.809
'0:08.727',1205.852
'0:08.730',1208.792
'0:08.734',1188.295
'0:08.738',1170.695
'0:08.742',1172.144
'0:08.746',1207.343
'0:08.750',1227.841
'0:08.754',1254.219
'0:08.758',1275.441
'0:08.762',1279.872
'0:08.766',1361.905
'0:08.770',1364.845
'0:08.773',1389.007
'0:08.777',1436.650
'0:08.781',1518.682
'0:08.785',1529.676
'0:08.789',1575.828
'0:08.793',1627.092
'0:08.797',1636.638
'0:08.801',1660.800
'0:08.805',1695.232
'0:08.809',1722.335
'0:08.813',1742.875
'0:08.816',1766.313
'0:08.820',1797.805
'0:08.824',1826.356
'0:08.828',1829.296
'0:08.832',1815.404
'0:08.836',1850.561
'0:08.840',1853.459
'0:08.844',1823.458
'0:08.848',1824.183
'0:08.852',1810.972
'0:08.855',1787.535
'0:08.859',1763.372
'0:08.863',1733.329
'0:08.867',1746.540
'0:08.871',1682.065
'0:08.875',1656.411
'0:08.879',1647.632
'0:08.883',1594.152
'0:08.887',1539.179
'0:08.891',1490.855
'0:08.895',1471.806
'0:08.898',1380.953
'0:08.902',1375.072
'0:08.906',1323.808
'0:08.910',1273.267
'0:08.914',1176.576
'0:08.918',1156.036
'0:08.922',1093.777
'0:08.926',1052.739
'0:08.930',1007.313
'0:08.934',979.486
'0:08.938',929.670
'0:08.941',858.589
'0:08.945',830.762
'0:08.949',810.265
'0:08.953',754.568
'0:08.957',703.303
'0:08.961',651.996
'0:08.965',663.715
'0:08.969',614.666
'0:08.973',586.796
'0:08.977',538.472
'0:08.980',565.575
'0:08.984',532.591
'0:08.988',505.489
'0:08.992',485.716
'0:08.996',520.148
'0:09.000',539.921
'0:09.004',510.602
'0:09.008',578.742
'0:09.012',605.845
'0:09.016',641.044
'0:09.020',671.812
'0:09.023',716.471
'0:09.027',776.557
'0:09.031',829.313
'0:09.035',841.757
'0:09.039',937.724
'0:09.043',1001.474
'0:09.047',1046.134
'0:09.051',1086.447
'0:09.055',1163.365
'0:09.059',1178.749
'0:09.063',1253.494
'0:09.066',1293.040
'0:09.070',1312.089
'0:09.074',1315.029
'0:09.078',1391.223
'0:09.082',1378.013
'0:09.086',1382.402
'0:09.090',1435.158
'0:09.094',1457.872
'0:09.098',1436.650
'0:09.102',1440.272
'0:09.105',1468.866
'0:09.109',1487.915
'0:09.113',1483.525
'0:09.117',1495.244
'0:09.121',1499.634
'0:09.125',1480.585
'0:09.129',1508.412
'0:09.133',1486.466
'0:09.137',1467.417
'0:09.141',1467.417
'0:09.145',1466.650
'0:09.148',1465.926
'0:09.152',1471.082
'0:09.156',1481.309
'0:09.160',1465.926
'0:09.164',1461.536
'0:09.168',1464.477
'0:09.172',1424.888
'0:09.176',1457.147
'0:09.180',1450.542
'0:09.184',1436.650
'0:09.188',1391.948
'0:09.191',1419.775
'0:09.195',1409.505
'0:09.199',1384.618
'0:09.203',1391.223
'0:09.207',1414.661
'0:09.211',1435.883
'0:09.215',1442.488
'0:09.219',1413.937
'0:09.223',1428.553
'0:09.227',1443.937
'0:09.230',1480.585
'0:09.234',1526.736
'0:09.238',1518.682
'0:09.242',1520.898
'0:09.246',1560.444
'0:09.250',1559.719
'0:09.254',1616.865
'0:09.258',1588.271
'0:09.262',1613.200
'0:09.266',1636.638
'0:09.270',1621.254
'0:09.273',1660.076
'0:09.277',1629.308
'0:09.281',1658.627
'0:09.285',1621.254
'0:09.289',1657.860
'0:09.293',1616.098
'0:09.297',1611.709
'0:09.301',1647.632
'0:09.305',1613.200
'0:09.309',1602.930
'0:09.313',1607.319
'0:09.316',1622.703
'0:09.320',1605.871
'0:09.324',1586.098
'0:09.328',1613.200
'0:09.332',1570.714
'0:09.336',1603.655
'0:09.340',1564.833
'0:09.344',1539.946
'0:09.348',1569.222
'0:09.352',1552.390
'0:09.355',1528.185
'0:09.359',1512.077
'0:09.363',1459.321
'0:09.367',1430.769
'0:09.371',1416.834
'0:09.375',1409.505
'0:09.379',1352.402
'0:09.383',1360.456
'0:09.387',1306.208
'0:09.391',1320.143
'0:09.395',1304.759
'0:09.398',1276.932
'0:09.402',1254.943
'0:09.406',1259.332
'0:09.410',1259.332
'0:09.414',1260.824
'0:09.418',1257.884
'0:09.422',1257.884
'0:09.426',1212.457
'0:09.430',1225.625
'0:09.434',1263.722
'0:09.438',1266.662
'0:09.441',1248.338
'0:09.445',1249.105
'0:09.449',1238.111
'0:09.453',1273.267
'0:09.457',1263.722
'0:09.461',1277.657
'0:09.465',1295.981
'0:09.469',1285.711
'0:09.473',1295.981
'0:09.477',1285.711
'0:09.480',1294.489
'0:09.484',1291.591
'0:09.488',1294.489
'0:09.492',1293.040
'0:09.496',1292.316
'0:09.500',1270.327
'0:09.504',1284.986
'0:09.508',1259.332
'0:09.512',1258.608
'0:09.516',1294.489
'0:09.520',1279.872
'0:09.523',1273.992
'0:09.527',1331.862
'0:09.531',1302.543
'0:09.535',1364.845
'0:09.539',1348.737
'0:09.543',1401.451
'0:09.547',1376.564
'0:09.551',1400.726
'0:09.555',1421.266
'0:09.559',1446.877
'0:09.563',1460.088
'0:09.566',1496.693
'0:09.570',1541.395
'0:09.574',1528.185
'0:09.578',1564.109
'0:09.582',1543.569
'0:09.586',1592.660
'0:09.590',1617.589
'0:09.594',1596.325
'0:09.598',1625.643
'0:09.602',1677.675
'0:09.605',1646.865
'0:09.609',1678.400
'0:09.613',1689.394
'0:09.617',1726.724
'0:09.621',1684.238
'0:09.625',1688.627
'0:09.629',1713.556
'0:09.633',1704.778
'0:09.637',1667.405
'0:09.641',1690.119
'0:09.645',1627.859
'0:09.648',1653.470
'0:09.652',1613.200
'0:09.656',1556.779
'0:09.660',1541.395
'0:09.664',1515.017
'0:09.668',1488.639
'0:09.672',1484.974
'0:09.676',1457.147
'0:09.680',1429.320
'0:09.684',1361.905
'0:09.688',1371.408
'0:09.691',1339.191
'0:09.695',1311.364
'0:09.699',1279.105
'0:09.703',1258.608
'0:09.707',1249.105
'0:09.711',1252.727
'0:09.715',1273.992
'0:09.719',1244.673
'0:09.723',1263.722
'0:09.727',1240.284
'0:09.730',1258.608
'0:09.734',1291.591
'0:09.738',1301.819
'0:09.742',1321.592
'0:09.746',1339.191
'0:09.750',1380.229
'0:09.754',1397.061
'0:09.758',1395.612
'0:09.762',1474.704
'0:09.766',1472.531
'0:09.770',1494.520
'0:09.773',1528.185
'0:09.777',1569.947
'0:09.781',1625.643
'0:09.785',1630.033
'0:09.789',1668.854
'0:09.793',1674.735
'0:09.797',1722.335
'0:09.801',1712.108
'0:09.805',1756.043
'0:09.809',1736.270
'0:09.813',1726.000
'0:09.816',1748.713
'0:09.820',1747.989
'0:09.824',1718.670
'0:09.828',1734.778
'0:09.832',1709.167
'0:09.836',1690.843
'0:09.840',1667.405
'0:09.844',1684.238
'0:09.848',1628.584
'0:09.852',1605.146
'0:09.855',1572.163
'0:09.859',1545.785
'0:09.863',1521.622
'0:09.867',1509.904
'0:09.871',1512.077
'0:09.875',1453.482
'0:09.879',1474.704
'0:09.883',1446.877
'0:09.887',1399.277
'0:09.891',1369.959
'0:09.895',1356.024
'0:09.898',1347.245
'0:09.902',1338.467
'0:09.906',1331.137
'0:09.910',1327.472
'0:09.914',1331.862
'0:09.918',1316.478
'0:09.922',1323.083
'0:09.926',1321.592
'0:09.930',1339.916
'0:09.934',1339.191
'0:09.938',1347.970
'0:09.941',1350.186
'0:09.945',1334.802
'0:09.949',1347.245
'0:09.953',1385.342
'0:09.957',1386.067
'0:09.961',1360.456
'0:09.965',1396.337
'0:09.969',1435.158
'0:09.973',1405.840
'0:09.977',1437.374
'0:09.980',1482.801
'0:09.984',1463.752
'0:09.988',1501.849
'0:09.992',1481.309
'0:09.996',1506.963
'0:10.000',1509.904
'0:10.004',1567.049
'0:10.008',1537.731
'0:10.012',1553.114
'0:10.016',1596.325
'0:10.020',1596.325
'0:10.023',1568.498
'0:10.027',1553.114
'0:10.031',1541.395
'0:10.035',1535.515
'0:10.039',1517.958
'0:10.043',1545.785
'0:10.047',1508.412
'0:10.051',1462.985
'0:10.055',1439.548
'0:10.059',1449.093
'0:10.063',1378.013
'0:10.066',1345.797
'0:10.070',1352.402
'0:10.074',1303.310
'0:10.078',1273.267
'0:10.082',1203.678
'0:10.086',1175.809
'0:10.090',1162.641
'0:10.094',1144.317
'0:10.098',1108.436
'0:10.102',1055.680
'0:10.105',1021.247
'0:10.109',1012.469
'0:10.113',1039.571
'0:10.117',1031.517
'0:10.121',1005.139
'0:10.125',984.599
'0:10.129',1027.086
'0:10.133',994.869
'0:10.137',1045.410
'0:10.141',1076.177
'0:10.145',1093.052
'0:10.148',1095.226
'0:10.152',1109.885
'0:10.156',1141.377
'0:10.160',1199.247
'0:10.164',1210.241
'0:10.168',1237.344
'0:10.172',1277.657
'0:10.176',1315.029
'0:10.180',1388.283
'0:10.184',1421.991
'0:10.188',1471.082
'0:10.191',1534.066
'0:10.195',1584.606
'0:10.199',1597.816
'0:10.203',1680.573
'0:10.207',1712.108
'0:10.211',1737.719
'0:10.215',1798.529
'0:10.219',1831.512
'0:10.223',1866.669
'0:10.227',1934.809
'0:10.230',1939.923
'0:10.234',1986.798
'0:10.238',2001.457
'0:10.242',2023.446
'0:10.246',2054.938
'0:10.250',2082.041
'0:10.254',2110.635
'0:10.258',2109.910
'0:10.262',2126.018
'0:10.266',2120.862
'0:10.270',2115.024
'0:10.273',2109.143
'0:10.277',2113.533
'0:10.281',2091.586
'0:10.285',2060.819
'0:10.289',2055.663
'0:10.293',2049.824
'0:10.297',1997.793
'0:10.301',1977.295
'0:10.305',1935.533
'0:10.309',1900.377
'0:10.313',1858.615
'0:10.316',1809.523
'0:10.320',1786.086
'0:10.324',1692.292
'0:10.328',1658.627
'0:10.332',1586.098
'0:10.336',1512.801
'0:10.340',1472.531
'0:10.344',1404.391
'0:10.348',1309.873
'0:10.352',1264.489
'0:10.355',1175.809
'0:10.359',1117.214
'0:10.363',1086.447
'0:10.367',978.761
'0:10.371',958.221
'0:10.375',897.453
'0:10.379',814.654
'0:10.383',778.773
'0:10.387',726.741
'0:10.391',679.866
'0:10.395',585.348
'0:10.398',582.407
'0:10.402',537.748
'0:10.406',519.424
'0:10.410',486.440
'0:10.414',419.067
'0:10.418',443.954
'0:10.422',414.635
'0:10.426',416.127
'0:10.430',372.874
'0:10.434',397.803
'0:10.438',410.971
'0:10.441',408.797
'0:10.445',381.695
'0:10.449',383.144
'0:10.453',435.900
'0:10.457',411.738
'0:10.461',437.349
'0:10.465',488.656
'0:10.469',513.543
'0:10.473',528.926
'0:10.477',515.034
'0:10.480',585.348
'0:10.484',623.445
'0:10.488',613.899
'0:10.492',671.812
'0:10.496',688.644
'0:10.500',755.293
'0:10.504',789.000
'0:10.508',785.336
'0:10.512',866.686
'0:10.516',868.859
'0:10.520',902.567
'0:10.523',956.048
'0:10.527',980.934
'0:10.531',1011.702
'0:10.535',1057.128
'0:10.539',1114.998
'0:10.543',1144.317
'0:10.547',1141.377
'0:10.551',1189.019
'0:10.555',1219.062
'0:10.559',1207.343
'0:10.563',1249.105
'0:10.566',1285.711
'0:10.570',1322.359
'0:10.574',1342.856
'0:10.578',1351.635
'0:10.582',1347.245
'0:10.586',1358.240
'0:10.590',1422.715
'0:10.594',1408.780
'0:10.598',1435.158
'0:10.602',1451.266
'0:10.605',1478.369
'0:10.609',1487.190
'0:10.613',1509.904
'0:10.617',1533.341
'0:10.621',1578.768
'0:10.625',1608.044
'0:10.629',1649.081
'0:10.633',1652.022
'0:10.637',1684.238
'0:10.641',1710.616
'0:10.645',1755.318
'0:10.648',1808.075
'0:10.652',1805.859
'0:10.656',1831.512
'0:10.660',1868.118
'0:10.664',1917.209
'0:10.668',1906.215
'0:10.672',1952.366
'0:10.676',1969.966
'0:10.680',1945.803
'0:10.684',1955.306
'0:10.688',1970.690
'0:10.691',1961.187
'0:10.695',1965.576
'0:10.699',1950.917
'0:10.703',1939.198
'0:10.707',1904.042
'0:10.711',1875.447
'0:10.715',1871.783
'0:10.719',1815.404
'0:10.723',1772.875
'0:10.727',1746.540
'0:10.730',1739.935
'0:10.734',1666.681
'0:10.738',1667.405
'0:10.742',1637.362
'0:10.746',1553.839
'0:10.750',1515.742
'0:10.754',1490.855
'0:10.758',1476.920
'0:10.762',1461.536
'0:10.766',1387.558
'0:10.770',1397.061
'0:10.773',1335.527
'0:10.777',1348.737
'0:10.781',1304.035
'0:10.785',1320.867
'0:10.789',1301.819
'0:10.793',1290.824
'0:10.797',1302.543
'0:10.801',1323.083
'0:10.805',1311.364
'0:10.809',1293.040
'0:10.813',1323.083
'0:10.816',1355.299
'0:10.820',1369.959
'0:10.824',1382.402
'0:10.828',1447.602
'0:10.832',1431.494
'0:10.836',1476.920
'0:10.840',1512.077
'0:10.844',1534.066
'0:10.848',1604.379
'0:10.852',1630.033
'0:10.855',1632.973
'0:10.859',1698.173
'0:10.863',1695.957
'0:10.867',1713.556
'0:10.871',1734.778
'0:10.875',1752.378
'0:10.879',1769.977
'0:10.883',1772.151
'0:10.887',1790.475
'0:10.891',1778.756
'0:10.895',1781.696
'0:10.898',1804.410
'0:10.902',1752.378
'0:10.906',1749.437
'0:10.910',1694.508
'0:10.914',1669.579
'0:10.918',1665.914
'0:10.922',1624.195
'0:10.926',1554.563
'0:10.930',1542.120
'0:10.934',1498.909
'0:10.938',1433.709
'0:10.941',1413.937
'0:10.945',1389.007
'0:10.949',1363.354
'0:10.953',1306.975
'0:10.957',1275.441
'0:10.961',1253.494
'0:10.965',1257.884
'0:10.969',1239.560
'0:10.973',1227.116
'0:10.977',1275.441
'0:10.980',1252.727
'0:10.984',1254.943
'0:10.988',1273.992
'0:10.992',1295.981
'0:10.996',1315.754
'0:11.000',1378.013
'0:11.004',1408.780
'0:11.008',1407.331
'0:11.012',1451.266
'0:11.016',1464.477
'0:11.020',1515.742
'0:11.023',1541.395
'0:11.027',1521.622
'0:11.031',1563.384
'0:11.035',1595.601
'0:11.039',1567.773
'0:11.043',1590.487
'0:11.047',1625.643
'0:11.051',1578.768
'0:11.055',1575.103
'0:11.059',1598.541
'0:11.063',1552.390
'0:11.066',1532.617
'0:11.070',1545.060
'0:11.074',1520.898
'0:11.078',1497.418
'0:11.082',1453.482
'0:11.086',1459.321
'0:11.090',1461.536
'0:11.094',1408.780
'0:11.098',1375.072
'0:11.102',1364.121
'0:11.105',1331.862
'0:11.109',1321.592
'0:11.113',1324.532
'0:11.117',1277.657
'0:11.121',1293.040
'0:11.125',1243.224
'0:11.129',1224.176
'0:11.133',1232.954
'0:11.137',1189.019
'0:11.141',1204.403
'0:11.145',1198.522
'0:11.148',1155.311
'0:11.152',1191.193
'0:11.156',1164.814
'0:11.160',1184.630
'0:11.164',1198.522
'0:11.168',1160.425
'0:11.172',1209.517
'0:11.176',1186.079
'0:11.180',1224.900
'0:11.184',1260.824
'0:11.188',1275.441
'0:11.191',1293.040
'0:11.195',1311.364
'0:11.199',1327.472
'0:11.203',1341.407
'0:11.207',1315.754
'0:11.211',1377.288
'0:11.215',1363.354
'0:11.219',1379.504
'0:11.223',1428.553
'0:11.227',1397.786
'0:11.230',1433.709
'0:11.234',1460.812
'0:11.238',1482.034
'0:11.242',1476.196
'0:11.246',1459.321
'0:11.250',1465.926
'0:11.254',1487.915
'0:11.258',1526.012
'0:11.262',1531.125
'0:11.266',1504.023
'0:11.270',1489.364
'0:11.273',1510.628
'0:11.277',1499.634
'0:11.281',1504.747
'0:11.285',1481.309
'0:11.289',1468.866
'0:11.293',1471.806
'0:11.297',1468.866
'0:11.301',1459.321
'0:11.305',1447.602
'0:11.309',1432.218
'0:11.313',1440.272
'0:11.316',1442.488
'0:11.320',1409.505
'0:11.324',1396.337
'0:11.328',1416.834
'0:11.332',1419.050
'0:11.336',1413.937
'0:11.340',1481.309
'0:11.344',1504.747
'0:11.348',1515.017
'0:11.352',1532.617
'0:11.355',1566.282
'0:11.359',1637.362
'0:11.363',1678.400
'0:11.367',1714.281
'0:11.371',1766.313
'0:11.375',1819.026
'0:11.379',1893.047
'0:11.383',1956.755
'0:11.387',2004.398
'0:11.391',2056.430
'0:11.395',2101.814
'0:11.398',2135.521
'0:11.402',2169.229
'0:11.406',2186.062
'0:11.410',2230.040
'0:11.414',2249.812
'0:11.418',2271.077
'0:11.422',2276.915
'0:11.426',2258.591
'0:11.430',2276.191
'0:11.434',2249.088
'0:11.438',2228.591
'0:11.441',2220.494
'0:11.445',2193.391
'0:11.449',2153.845
'0:11.453',2100.365
'0:11.457',2062.268
'0:11.461',2021.230
'0:11.465',1958.971
'0:11.469',1912.096
'0:11.473',1841.740
'0:11.477',1794.140
'0:11.480',1750.162
'0:11.484',1676.184
'0:11.488',1616.098
'0:11.492',1552.390
'0:11.496',1528.185
'0:11.500',1465.201
'0:11.504',1400.726
'0:11.508',1341.407
'0:11.512',1304.035
'0:11.516',1259.332
'0:11.520',1236.619
'0:11.523',1162.641
'0:11.527',1131.874
'0:11.531',1079.117
'0:11.535',1021.972
'0:11.539',986.091
'0:11.543',970.707
'0:11.547',967.042
'0:11.551',887.908
'0:11.555',905.507
'0:11.559',844.697
'0:11.563',813.205
'0:11.566',785.336
'0:11.570',766.287
'0:11.574',769.952
'0:11.578',732.622
'0:11.582',768.503
'0:11.586',769.227
'0:11.590',719.412
'0:11.594',765.563
'0:11.598',750.179
'0:11.602',786.060
'0:11.605',789.725
'0:11.609',851.302
'0:11.613',872.524
'0:11.617',891.573
'0:11.621',902.567
'0:11.625',956.048
'0:11.629',1012.469
'0:11.633',1014.642
'0:11.637',1100.382
'0:11.641',1095.226
'0:11.645',1130.382
'0:11.648',1171.420
'0:11.652',1208.068
'0:11.656',1241.008
'0:11.660',1265.938
'0:11.664',1290.824
'0:11.668',1292.316
'0:11.672',1298.921
'0:11.676',1293.765
'0:11.680',1276.932
'0:11.684',1273.267
'0:11.688',1248.338
'0:11.691',1290.824
'0:11.695',1259.332
'0:11.699',1235.895
'0:11.703',1276.208
'0:11.707',1238.835
'0:11.711',1259.332
'0:11.715',1265.938
'0:11.719',1254.943
'0:11.723',1317.970
'0:11.727',1352.402
'0:11.730',1363.354
'0:11.734',1423.439
'0:11.738',1446.153
'0:11.742',1517.233
'0:11.746',1539.946
'0:11.750',1594.876
'0:11.754',1670.346
'0:11.758',1760.432
'0:11.762',1821.967
'0:11.766',1888.658
'0:11.770',1943.587
'0:11.773',1989.739
'0:11.777',2013.176
'0:11.781',2074.711
'0:11.785',2120.862
'0:11.789',2133.348
'0:11.793',2137.737
'0:11.797',2145.067
'0:11.801',2145.791
'0:11.805',2133.348
'0:11.809',2133.348
'0:11.813',2082.041
'0:11.816',2037.381
'0:11.820',1994.128
'0:11.824',1920.874
'0:11.828',1865.220
'0:11.832',1813.913
'0:11.836',1733.329
'0:11.840',1598.541
'0:11.844',1515.017
'0:11.848',1416.110
'0:11.852',1360.456
'0:11.855',1258.608
'0:11.859',1135.538
'0:11.863',1060.793
'0:11.867',953.107
'0:11.871',838.816
'0:11.875',789.000
'0:11.879',704.028
'0:11.883',611.726
'0:11.887',543.586
'0:11.891',430.019
'0:11.895',416.127
'0:11.898',346.538
'0:11.902',254.960
'0:11.906',210.983
'0:11.910',172.161
'0:11.914',159.718
'0:11.918',120.129
'0:11.922',67.416
'0:11.926',50.540
'0:11.930',54.205
'0:11.934',49.816
'0:11.938',53.481
'0:11.941',54.930
'0:11.945',54.205
'0:11.949',82.799
'0:11.953',168.496
'0:11.957',205.869
'0:11.961',260.074
'0:11.965',309.165
'0:11.969',378.030
'0:11.973',413.187
'0:11.977',511.369
'0:11.980',578.742
'0:11.984',657.877
'0:11.988',698.914
'0:11.992',788.276
'0:11.996',870.351
'0:12.000',938.448
'0:12.004',1019.031
'0:12.008',1074.728
'0:12.012',1155.311
'0:12.016',1205.852
'0:12.020',1228.565
'0:12.023',1320.867
'0:12.027',1386.834
'0:12.031',1428.553
'0:12.035',1471.082
'0:12.039',1493.753
'0:12.043',1508.412
'0:12.047',1567.773
'0:12.051',1594.876
'0:12.055',1587.546
'0:12.059',1652.746
'0:12.063',1632.973
'0:12.066',1672.519
'0:12.070',1672.519
'0:12.074',1687.178
'0:12.078',1687.178
'0:12.082',1718.670
'0:12.086',1735.545
'0:12.090',1706.951
'0:12.094',1700.346
'0:12.098',1709.892
'0:12.102',1732.605
'0:12.105',1695.232
'0:12.109',1690.843
'0:12.113',1704.011
'0:12.117',1706.951
'0:12.121',1728.940
'0:12.125',1707.676
'0:12.129',1680.573
'0:12.133',1690.119
'0:12.137',1700.346
'0:12.141',1696.724
'0:12.145',1703.286
'0:12.148',1718.670
'0:12.152',1729.665
'0:12.156',1745.048
'0:12.160',1778.032
'0:12.164',1791.924
'0:12.168',1794.140
'0:12.172',1827.123
'0:12.176',1808.075
'0:12.180',1845.404
'0:12.184',1830.788
'0:12.188',1860.788
'0:12.191',1833.686
'0:12.195',1873.274
'0:12.199',1835.902
'0:12.203',1833.686
'0:12.207',1832.961
'0:12.211',1804.410
'0:12.215',1804.410
'0:12.219',1815.404
'0:12.223',1791.199
'0:12.227',1776.540
'0:12.230',1754.594
'0:12.234',1723.826
'0:12.238',1679.849
'0:12.242',1646.141
'0:12.246',1666.681
'0:12.250',1610.984
'0:12.254',1627.859
'0:12.258',1588.271
'0:12.262',1550.898
'0:12.266',1534.066
'0:12.270',1571.438
'0:12.273',1550.174
'0:12.277',1547.233
'0:12.281',1541.395
'0:12.285',1531.850
'0:12.289',1534.066
'0:12.293',1534.790
'0:12.297',1518.682
'0:12.301',1530.401
'0:12.305',1503.298
'0:12.309',1493.028
'0:12.313',1502.574
'0:12.316',1517.958
'0:12.320',1505.514
'0:12.324',1528.952
'0:12.328',1524.563
'0:12.332',1497.418
'0:12.336',1479.136
'0:12.340',1482.801
'0:12.344',1453.482
'0:12.348',1432.985
'0:12.352',1428.553
'0:12.355',1438.823
'0:12.359',1369.234
'0:12.363',1395.612
'0:12.367',1323.808
'0:12.371',1348.737
'0:12.375',1292.316
'0:12.379',1260.057
'0:12.383',1284.262
'0:12.387',1265.213
'0:12.391',1238.835
'0:12.395',1189.744
'0:12.398',1197.073
'0:12.402',1220.511
'0:12.406',1170.695
'0:12.410',1187.528
'0:12.414',1210.241
'0:12.418',1221.960
'0:12.422',1246.165
'0:12.426',1255.668
'0:12.430',1268.878
'0:12.434',1284.262
'0:12.438',1290.100
'0:12.441',1359.689
'0:12.445',1367.018
'0:12.449',1386.067
'0:12.453',1445.428
'0:12.457',1465.926
'0:12.461',1502.574
'0:12.465',1515.742
'0:12.469',1515.742
'0:12.473',1583.882
'0:12.477',1571.438
'0:12.480',1632.249
'0:12.484',1612.433
'0:12.488',1643.243
'0:12.492',1669.579
'0:12.496',1684.962
'0:12.500',1677.675
'0:12.504',1727.491
'0:12.508',1717.946
'0:12.512',1704.778
'0:12.516',1709.167
'0:12.520',1722.335
'0:12.523',1729.665
'0:12.527',1698.173
'0:12.531',1676.908
'0:12.535',1695.957
'0:12.539',1654.195
'0:12.543',1624.919
'0:12.547',1619.763
'0:12.551',1622.703
'0:12.555',1573.612
'0:12.559',1537.731
'0:12.563',1537.731
'0:12.566',1509.136
'0:12.570',1519.406
'0:12.574',1487.915
'0:12.578',1462.261
'0:12.582',1452.758
'0:12.586',1461.536
'0:12.590',1448.369
'0:12.594',1399.277
'0:12.598',1386.067
'0:12.602',1380.953
'0:12.605',1410.996
'0:12.609',1353.851
'0:12.613',1353.851
'0:12.617',1320.867
'0:12.621',1347.245
'0:12.625',1287.160
'0:12.629',1308.424
'0:12.633',1291.591
'0:12.637',1274.716
'0:12.641',1249.105
'0:12.645',1190.468
'0:12.648',1199.247
'0:12.652',1193.408
'0:12.656',1134.814
'0:12.660',1165.581
'0:12.664',1134.047
'0:12.668',1130.382
'0:12.672',1106.944
'0:12.676',1140.652
'0:12.680',1128.933
'0:12.684',1161.192
'0:12.688',1167.755
'0:12.691',1150.922
'0:12.695',1184.630
'0:12.699',1232.954
'0:12.703',1263.722
'0:12.707',1269.602
'0:12.711',1286.435
'0:12.715',1301.819
'0:12.719',1371.408
'0:12.723',1350.910
'0:12.727',1401.451
'0:12.730',1449.093
'0:12.734',1445.428
'0:12.738',1464.477
'0:12.742',1501.849
'0:12.746',1537.006
'0:12.750',1612.433
'0:12.754',1611.709
'0:12.758',1682.789
'0:12.762',1678.400
'0:12.766',1730.389
'0:12.770',1769.210
'0:12.773',1830.021
'0:12.777',1839.566
'0:12.781',1899.652
'0:12.785',1891.556
'0:12.789',1917.934
'0:12.793',1972.906
'0:12.797',1957.522
'0:12.801',1986.798
'0:12.805',1989.739
'0:12.809',1975.079
'0:12.813',1975.804
'0:12.816',1966.301
'0:12.820',1960.420
'0:12.824',1958.971
'0:12.828',1931.144
'0:12.832',1911.371
'0:12.836',1868.885
'0:12.840',1845.404
'0:12.844',1834.453
'0:12.848',1789.750
'0:12.852',1746.540
'0:12.855',1761.156
'0:12.859',1720.886
'0:12.863',1690.119
'0:12.867',1710.616
'0:12.871',1651.297
'0:12.875',1654.962
'0:12.879',1662.292
'0:12.883',1630.033
'0:12.887',1619.038
'0:12.891',1613.925
'0:12.895',1636.638
'0:12.898',1638.087
'0:12.902',1612.433
'0:12.906',1636.638
'0:12.910',1623.428
'0:12.914',1615.373
'0:12.918',1578.001
'0:12.922',1550.174
'0:12.926',1537.006
'0:12.930',1525.287
'0:12.934',1526.736
'0:12.938',1517.958
'0:12.941',1458.596
'0:12.945',1464.477
'0:12.949',1443.212
'0:12.953',1397.786
'0:12.957',1361.180
'0:12.961',1322.359
'0:12.965',1295.256
'0:12.969',1271.776
'0:12.973',1259.332
'0:12.977',1173.635
'0:12.980',1178.749
'0:12.984',1108.436
'0:12.988',1046.134
'0:12.992',1029.301
'0:12.996',1002.199
'0:13.000',910.621
'0:13.004',908.405
'0:13.008',856.416
'0:13.012',824.157
'0:13.016',749.455
'0:13.020',740.676
'0:13.023',706.244
'0:13.027',676.201
'0:13.031',645.433
'0:13.035',621.996
'0:13.039',605.121
'0:13.043',565.575
'0:13.047',530.418
'0:13.051',565.575
'0:13.055',565.575
'0:13.059',536.981
'0:13.063',550.191
'0:13.066',594.851
'0:13.070',615.391
'0:13.074',630.050
'0:13.078',645.433
'0:13.082',645.433
'0:13.086',720.136
'0:13.090',765.563
'0:13.094',797.822
'0:13.098',837.367
'0:13.102',859.356
'0:13.105',912.070
'0:13.109',979.486
'0:13.113',1033.691
'0:13.117',1065.183
'0:13.121',1109.885
'0:13.125',1162.641
'0:13.129',1252.003
'0:13.133',1303.310
'0:13.137',1352.402
'0:13.141',1367.018
'0:13.145',1421.266
'0:13.148',1457.147
'0:13.152',1524.563
'0:13.156',1573.612
'0:13.160',1602.206
'0:13.164',1620.530
'0:13.168',1661.525
'0:13.172',1715.005
'0:13.176',1729.665
'0:13.180',1759.707
'0:13.184',1808.075
'0:13.188',1842.507
'0:13.191',1853.459
'0:13.195',1913.544
'0:13.199',1917.934
'0:13.203',1951.641
'0:13.207',1989.739
'0:13.211',2002.182
'0:13.215',2059.327
'0:13.219',2077.651
'0:13.223',2087.921
'0:13.227',2126.743
'0:13.230',2164.116
'0:13.234',2166.289
'0:13.238',2199.997
'0:13.242',2211.715
'0:13.246',2221.985
'0:13.250',2256.418
'0:13.254',2276.191
'0:13.258',2259.358
'0:13.262',2293.023
'0:13.266',2268.861
'0:13.270',2272.526
'0:13.273',2265.196
'0:13.277',2258.591
'0:13.281',2234.429
'0:13.285',2199.272
'0:13.289',2175.834
'0:13.293',2132.581
'0:13.297',2082.041
'0:13.301',2011.727
'0:13.305',1956.755
'0:13.309',1871.783
'0:13.313',1824.907
'0:13.316',1727.491
'0:13.320',1614.649
'0:13.324',1523.071
'0:13.328',1394.121
'0:13.332',1292.316
'0:13.336',1224.900
'0:13.340',1109.160
'0:13.344',953.107
'0:13.348',865.919
'0:13.352',764.838
'0:13.355',676.925
'0:13.359',532.591
'0:13.363',436.624
'0:13.367',347.987
'0:13.371',303.285
'0:13.375',186.096
'0:13.379',112.075
'0:13.383',52.032
'0:13.387',2.940
'0:13.391',0.724
'0:13.395',1.449
'0:13.398',0.724
'0:13.402',0.000
'0:13.406',0.000
'0:13.410',0.724
'0:13.414',0.724
'0:13.418',1.449
'0:13.422',0.724
'0:13.426',11.719
'0:13.430',45.427
'0:13.434',72.529
'0:13.438',131.848
'0:13.441',229.307
'0:13.445',258.625
'0:13.449',373.641
'0:13.453',409.522
'0:13.457',528.202
'0:13.461',583.899
'0:13.465',680.590
'0:13.469',766.287
'0:13.473',834.427
'0:13.477',871.075
'0:13.480',969.216
'0:13.484',1030.750
'0:13.488',1068.847
'0:13.492',1169.971
'0:13.496',1219.062
'0:13.500',1277.657
'0:13.504',1299.645
'0:13.508',1371.408
'0:13.512',1368.510
'0:13.516',1439.548
'0:13.520',1449.093
'0:13.523',1505.514
'0:13.527',1516.466
'0:13.531',1502.574
'0:13.535',1523.071
'0:13.539',1550.898
'0:13.543',1569.947
'0:13.547',1549.449
'0:13.551',1558.995
'0:13.555',1589.762
'0:13.559',1575.103
'0:13.563',1544.336
'0:13.566',1554.563
'0:13.570',1553.839
'0:13.574',1583.157
'0:13.578',1533.341
'0:13.582',1565.558
'0:13.586',1522.347
'0:13.590',1550.898
'0:13.594',1516.466
'0:13.598',1546.509
'0:13.602',1511.352
'0:13.605',1532.617
'0:13.609',1542.844
'0:13.613',1519.406
'0:13.617',1554.563
'0:13.621',1526.736
'0:13.625',1560.444
'0:13.629',1539.179
'0:13.633',1558.995
'0:13.637',1561.893
'0:13.641',1591.936
'0:13.645',1588.995
'0:13.648',1566.282
'0:13.652',1580.941
'0:13.656',1573.612
'0:13.660',1578.768
'0:13.664',1605.871
'0:13.668',1620.530
'0:13.672',1595.601
'0:13.676',1649.806
'0:13.680',1630.033
'0:13.684',1628.584
'0:13.688',1676.908
'0:13.691',1657.860
'0:13.695',1702.562
'0:13.699',1695.957
'0:13.703',1728.216
'0:13.707',1755.318
'0:13.711',1752.378
'0:13.715',1772.151
'0:13.719',1778.032
'0:13.723',1800.020
'0:13.727',1808.799
'0:13.730',1821.967
'0:13.734',1850.561
'0:13.738',1868.885
'0:13.742',1848.345
'0:13.746',1862.280
'0:13.750',1879.837
'0:13.754',1869.609
'0:13.758',1843.231
'0:13.762',1840.291
'0:13.766',1851.285
'0:13.770',1847.620
'0:13.773',1792.691
'0:13.777',1816.129
'0:13.781',1748.713
'0:13.785',1759.707
'0:13.789',1736.270
'0:13.793',1694.508
'0:13.797',1651.297
'0:13.801',1587.546
'0:13.805',1569.222
'0:13.809',1529.676
'0:13.813',1476.920
'0:13.816',1451.266
'0:13.820',1391.948
'0:13.824',1359.689
'0:13.828',1345.072
'0:13.832',1282.770
'0:13.836',1298.154
'0:13.840',1254.219
'0:13.844',1219.062
'0:13.848',1170.695
'0:13.852',1157.527
'0:13.855',1179.474
'0:13.859',1163.365
'0:13.863',1139.928
'0:13.867',1141.377
'0:13.871',1131.874
'0:13.875',1112.101
'0:13.879',1126.760
'0:13.883',1134.047
'0:13.887',1138.479
'0:13.891',1147.257
'0:13.895',1158.976
'0:13.898',1158.252
'0:13.902',1172.911
'0:13.906',1171.420
'0:13.910',1184.630
'0:13.914',1202.187
'0:13.918',1266.662
'0:13.922',1246.165
'0:13.926',1282.046
'0:13.930',1335.527
'0:13.934',1359.689
'0:13.938',1375.839
'0:13.941',1397.786
'0:13.945',1470.315
'0:13.949',1464.477
'0:13.953',1529.676
'0:13.957',1533.341
'0:13.961',1581.666
'0:13.965',1619.038
'0:13.969',1659.351
'0:13.973',1662.292
'0:13.977',1682.789
'0:13.980',1715.005
'0:13.984',1741.383
'0:13.988',1704.778
'0:13.992',1726.000
'0:13.996',1742.108
'0:14.000',1728.216
'0:14.004',1687.178
'0:14.008',1655.686
'0:14.012',1647.632
'0:14.016',1636.638
'0:14.020',1583.157
'0:14.023',1572.887
'0:14.027',1546.509
'0:14.031',1487.915
'0:14.035',1446.153
'0:14.039',1427.104
'0:14.043',1432.218
'0:14.047',1403.667
'0:14.051',1347.970
'0:14.055',1334.802
'0:14.059',1322.359
'0:14.063',1270.327
'0:14.066',1282.770
'0:14.070',1272.543
'0:14.074',1221.960
'0:14.078',1257.159
'0:14.082',1208.068
'0:14.086',1237.344
'0:14.090',1257.159
'0:14.094',1253.494
'0:14.098',1247.614
'0:14.102',1303.310
'0:14.105',1308.424
'0:14.109',1350.910
'0:14.113',1386.067
'0:14.117',1392.672
'0:14.121',1454.207
'0:14.125',1452.758
'0:14.129',1526.736
'0:14.133',1543.569
'0:14.137',1596.325
'0:14.141',1615.373
'0:14.145',1635.146
'0:14.148',1697.448
'0:14.152',1687.903
'0:14.156',1710.616
'0:14.160',1738.443
'0:14.164',1756.767
'0:14.168',1783.870
'0:14.172',1810.248
'0:14.176',1790.475
'0:14.180',1772.151
'0:14.184',1791.199
'0:14.188',1764.097
'0:14.191',1758.259
'0:14.195',1734.778
'0:14.199',1731.880
'0:14.203',1680.573
'0:14.207',1693.059
'0:14.211',1662.292
'0:14.215',1630.757
'0:14.219',1602.930
'0:14.223',1577.276
'0:14.227',1572.163
'0:14.230',1533.341
'0:14.234',1534.790
'0:14.238',1484.974
'0:14.242',1494.520
'0:14.246',1501.849
'0:14.250',1465.201
'0:14.254',1446.153
'0:14.258',1423.439
'0:14.262',1415.385
'0:14.266',1410.996
'0:14.270',1409.505
'0:14.273',1431.494
'0:14.277',1432.985
'0:14.281',1438.099
'0:14.285',1438.823
'0:14.289',1425.655
'0:14.293',1429.320
'0:14.297',1402.218
'0:14.301',1413.169
'0:14.305',1446.877
'0:14.309',1484.974
'0:14.313',1498.909
'0:14.316',1498.185
'0:14.320',1504.747
'0:14.324',1553.839
'0:14.328',1593.427
'0:14.332',1593.427
'0:14.336',1641.027
'0:14.340',1668.854
'0:14.344',1715.730
'0:14.348',1774.367
'0:14.352',1776.540
'0:14.355',1823.458
'0:14.359',1868.118
'0:14.363',1900.377
'0:14.367',1904.042
'0:14.371',1928.204
'0:14.375',1950.917
'0:14.379',1956.755
'0:14.383',1974.355
'0:14.387',1964.852
'0:14.391',1975.079
'0:14.395',1978.020
'0:14.398',1980.236
'0:14.402',1977.295
'0:14.406',1968.517
'0:14.410',1978.744
'0:14.414',1966.301
'0:14.418',1934.809
'0:14.422',1920.150
'0:14.426',1897.436
'0:14.430',1883.502
'0:14.434',1868.885
'0:14.438',1853.459
'0:14.441',1860.064
'0:14.445',1840.291
'0:14.449',1808.075
'0:14.453',1827.123
'0:14.457',1791.199
'0:14.461',1777.307
'0:14.465',1741.383
'0:14.469',1733.329
'0:14.473',1706.227
'0:14.477',1679.849
'0:14.480',1650.530
'0:14.484',1630.757
'0:14.488',1602.930
'0:14.492',1591.211
'0:14.496',1550.898
'0:14.500',1557.503
'0:14.504',1488.639
'0:14.508',1437.374
'0:14.512',1392.672
'0:14.516',1350.910
'0:14.520',1336.975
'0:14.523',1278.381
'0:14.527',1227.841
'0:14.531',1157.527
'0:14.535',1113.550
'0:14.539',1102.555
'0:14.543',1013.918
'0:14.547',993.420
'0:14.551',982.426
'0:14.555',920.167
'0:14.559',921.616
'0:14.563',890.124
'0:14.566',827.097
'0:14.570',849.811
'0:14.574',818.319
'0:14.578',786.060
'0:14.582',822.708
'0:14.586',777.282
'0:14.590',802.935
'0:14.594',799.270
'0:14.598',776.557
'0:14.602',805.876
'0:14.605',776.557
'0:14.609',783.162
'0:14.613',821.259
'0:14.617',831.487
'0:14.621',824.157
'0:14.625',852.027
'0:14.629',868.859
'0:14.633',887.908
'0:14.637',898.902
'0:14.641',924.556
'0:14.645',972.156
'0:14.648',998.534
'0:14.652',1049.799
'0:14.656',1087.896
'0:14.660',1093.777
'0:14.664',1191.960
'0:14.668',1242.500
'0:14.672',1260.824
'0:14.676',1348.737
'0:14.680',1408.780
'0:14.684',1410.272
'0:14.688',1497.418
'0:14.691',1501.849
'0:14.695',1541.395
'0:14.699',1575.828
'0:14.703',1605.146
'0:14.707',1640.303
'0:14.711',1663.016
'0:14.715',1687.903
'0:14.719',1690.119
'0:14.723',1669.579
'0:14.727',1648.357
'0:14.730',1606.595
'0:14.734',1583.882
'0:14.738',1545.785
'0:14.742',1529.676
'0:14.746',1465.926
'0:14.750',1441.764
'0:14.754',1415.385
'0:14.758',1336.975
'0:14.762',1293.765
'0:14.766',1219.787
'0:14.770',1192.684
'0:14.773',1156.760
'0:14.777',1104.047
'0:14.781',1049.074
'0:14.785',1009.529
'0:14.789',961.886
'0:14.793',920.891
'0:14.797',879.854
'0:14.801',805.876
'0:14.805',819.043
'0:14.809',767.054
'0:14.813',740.676
'0:14.816',726.741
'0:14.820',714.298
'0:14.824',701.812
'0:14.828',654.936
'0:14.832',668.147
'0:14.836',641.769
'0:14.840',649.823
'0:14.844',658.601
'0:14.848',627.834
'0:14.852',635.888
'0:14.855',680.590
'0:14.859',666.655
'0:14.863',673.985
'0:14.867',671.045
'0:14.871',694.525
'0:14.875',728.957
'0:14.879',778.773
'0:14.883',802.935
'0:14.887',787.552
'0:14.891',832.978
'0:14.895',852.027
'0:14.898',912.837
'0:14.902',944.329
'0:14.906',975.096
'0:14.910',994.145
'0:14.914',994.869
'0:14.918',1060.069
'0:14.922',1054.955
'0:14.926',1112.101
'0:14.930',1094.501
'0:14.934',1115.766
'0:14.938',1137.712
'0:14.941',1156.036
'0:14.945',1180.965
'0:14.949',1178.025
'0:14.953',1242.500
'0:14.957',1206.576
'0:14.961',1252.727
'0:14.965',1243.224
'0:14.969',1250.554
'0:14.973',1294.489
'0:14.977',1291.591
'0:14.980',1277.657
'0:14.984',1299.645
'0:14.988',1340.640
'0:14.992',1369.959
'0:14.996',1353.126
'0:15.000',1353.851
'0:15.004',1360.456
'0:15.008',1371.408
'0:15.012',1385.342
'0:15.016',1436.650
'0:15.020',1412.445
'0:15.023',1409.505
'0:15.027',1456.423
'0:15.031',1459.321
'0:15.035',1441.764
'0:15.039',1464.477
'0:15.043',1447.602
'0:15.047',1450.542
'0:15.051',1490.855
'0:15.055',1468.866
'0:15.059',1471.806
'0:15.063',1506.239
'0:15.066',1485.699
'0:15.070',1527.461
'0:15.074',1506.239
'0:15.078',1517.233
'0:15.082',1564.109
'0:15.086',1582.433
'0:15.090',1572.163
'0:15.094',1560.444
'0:15.098',1569.222
'0:15.102',1575.828
'0:15.105',1584.606
'0:15.109',1596.325
'0:15.113',1597.816
'0:15.117',1599.990
'0:15.121',1608.044
'0:15.125',1624.919
'0:15.129',1639.578
'0:15.133',1642.476
'0:15.137',1633.698
'0:15.141',1597.049
'0:15.145',1588.995
'0:15.148',1584.606
'0:15.152',1599.265
'0:15.156',1557.503
'0:15.160',1542.844
'0:15.164',1540.671
'0:15.168',1572.887
'0:15.172',1519.406
'0:15.176',1553.839
'0:15.180',1539.179
'0:15.184',1525.287
'0:15.188',1494.520
'0:15.191',1482.034
'0:15.195',1501.082
'0:15.199',1486.466
'0:15.203',1457.147
'0:15.207',1490.855
'0:15.211',1433.709
'0:15.215',1463.752
'0:15.219',1454.207
'0:15.223',1421.266
'0:15.227',1397.786
'0:15.230',1396.337
'0:15.234',1414.661
'0:15.238',1405.115
'0:15.242',1373.624
'0:15.246',1334.078
'0:15.250',1317.202
'0:15.254',1335.527
'0:15.258',1295.256
'0:15.262',1288.651
'0:15.266',1318.694
'0:15.270',1262.273
'0:15.273',1251.278
'0:15.277',1254.219
'0:15.281',1260.824
'0:15.285',1257.884
'0:15.289',1285.711
'0:15.293',1252.727
'0:15.297',1246.165
'0:15.301',1250.554
'0:15.305',1273.267
'0:15.309',1304.035
'0:15.313',1274.716
'0:15.316',1264.489
'0:15.320',1290.824
'0:15.324',1321.592
'0:15.328',1291.591
'0:15.332',1283.537
'0:15.336',1313.538
'0:15.340',1306.208
'0:15.344',1296.705
'0:15.348',1320.867
'0:15.352',1334.802
'0:15.355',1320.867
'0:15.359',1343.581
'0:15.363',1333.353
'0:15.367',1358.964
'0:15.371',1378.737
'0:15.375',1380.229
'0:15.379',1371.408
'0:15.383',1370.683
'0:15.387',1437.374
'0:15.391',1449.093
'0:15.395',1473.980
'0:15.398',1480.585
'0:15.402',1497.418
'0:15.406',1490.855
'0:15.410',1531.125
'0:15.414',1575.103
'0:15.418',1567.773
'0:15.422',1563.384
'0:15.426',1580.941
'0:15.430',1590.487
'0:15.434',1599.990
'0:15.438',1605.146
'0:15.441',1608.811
'0:15.445',1605.871
'0:15.449',1599.265
'0:15.453',1598.541
'0:15.457',1590.487
'0:15.461',1604.379
'0:15.465',1545.060
'0:15.469',1545.785
'0:15.473',1490.855
'0:15.477',1514.293
'0:15.480',1460.812
'0:15.484',1410.996
'0:15.488',1383.169
'0:15.492',1364.845
'0:15.496',1367.018
'0:15.500',1363.354
'0:15.504',1317.970
'0:15.508',1294.489
'0:15.512',1306.208
'0:15.516',1272.543
'0:15.520',1303.310
'0:15.523',1268.111
'0:15.527',1317.202
'0:15.531',1306.208
'0:15.535',1299.645
'0:15.539',1312.813
'0:15.543',1332.586
'0:15.547',1300.370
'0:15.551',1347.970
'0:15.555',1324.532
'0:15.559',1356.791
'0:15.563',1314.305
'0:15.566',1357.515
'0:15.570',1320.143
'0:15.574',1312.813
'0:15.578',1347.970
'0:15.582',1361.905
'0:15.586',1367.018
'0:15.590',1369.234
'0:15.594',1378.013
'0:15.598',1384.618
'0:15.602',1378.013
'0:15.605',1387.558
'0:15.609',1391.223
'0:15.613',1414.661
'0:15.617',1474.704
'0:15.621',1454.931
'0:15.625',1489.364
'0:15.629',1519.406
'0:15.633',1554.563
'0:15.637',1589.762
'0:15.641',1657.860
'0:15.645',1690.119
'0:15.648',1723.826
'0:15.652',1723.826
'0:15.656',1734.778
'0:15.660',1783.145
'0:15.664',1774.367
'0:15.668',1792.691
'0:15.672',1828.572
'0:15.676',1836.626
'0:15.680',1814.637
'0:15.684',1854.950
'0:15.688',1816.129
'0:15.691',1837.350
'0:15.695',1808.075
'0:15.699',1814.637
'0:15.703',1792.691
'0:15.707',1792.691
'0:15.711',1743.599
'0:15.715',1728.940
'0:15.719',1706.951
'0:15.723',1700.346
'0:15.727',1702.562
'0:15.730',1671.795
'0:15.734',1627.859
'0:15.738',1649.806
'0:15.742',1583.157
'0:15.746',1569.222
'0:15.750',1557.503
'0:15.754',1517.233
'0:15.758',1490.131
'0:15.762',1443.937
'0:15.766',1361.905
'0:15.770',1359.689
'0:15.773',1290.100
'0:15.777',1238.835
'0:15.781',1209.517
'0:15.785',1172.911
'0:15.789',1083.507
'0:15.793',1084.998
'0:15.797',1028.577
'0:15.801',985.366
'0:15.805',975.096
'0:15.809',915.735
'0:15.813',920.167
'0:15.816',857.140
'0:15.820',882.794
'0:15.824',834.427
'0:15.828',823.433
'0:15.832',854.200
'0:15.836',810.265
'0:15.840',818.319
'0:15.844',817.595
'0:15.848',855.692
'0:15.852',846.146
'0:15.855',805.876
'0:15.859',843.973
'0:15.863',843.973
'0:15.867',809.540
'0:15.871',861.530
'0:15.875',820.492
'0:15.879',853.476
'0:15.883',852.751
'0:15.887',830.762
'0:15.891',876.189
'0:15.895',849.811
'0:15.898',866.686
'0:15.902',910.621
'0:15.906',952.383
'0:15.910',961.161
'0:15.914',981.701
'0:15.918',1010.977
'0:15.922',1047.626
'0:15.926',1109.160
'0:15.930',1150.922
'0:15.934',1189.019
'0:15.938',1233.679
'0:15.941',1247.614
'0:15.945',1339.191
'0:15.949',1395.612
'0:15.953',1416.110
'0:15.957',1443.937
'0:15.961',1537.006
'0:15.965',1542.120
'0:15.969',1614.649
'0:15.973',1605.871
'0:15.977',1649.081
'0:15.980',1690.843
'0:15.984',1685.729
'0:15.988',1683.513
'0:15.992',1696.724
'0:15.996',1714.281
'0:16.000',1724.551
'0:16.004',1720.886
'0:16.008',1725.275
'0:16.012',1761.923
'0:16.016',1745.048
'0:16.020',1739.935
'0:16.023',1762.648
'0:16.027',1797.080
'0:16.031',1784.594
'0:16.035',1796.356
'0:16.039',1832.237
'0:16.043',1849.836
'0:16.047',1850.561
'0:16.051',1868.885
'0:16.055',1904.766
'0:16.059',1934.809
'0:16.063',1942.139
'0:16.066',1934.084
'0:16.070',1955.306
'0:16.074',1959.696
'0:16.078',1967.750
'0:16.082',1982.409
'0:16.086',1986.798
'0:16.090',1988.290
'0:16.094',1979.469
'0:16.098',1977.295
'0:16.102',1989.014
'0:16.105',1977.295
'0:16.109',1935.533
'0:16.113',1918.701
'0:16.117',1904.042
'0:16.121',1909.880
'0:16.125',1893.772
'0:16.129',1845.404
'0:16.133',1842.507
'0:16.137',1811.739
'0:16.141',1772.875
'0:16.145',1754.594
'0:16.148',1742.875
'0:16.152',1719.395
'0:16.156',1649.081
'0:16.160',1625.643
'0:16.164',1614.649
'0:16.168',1594.876
'0:16.172',1557.503
'0:16.176',1508.412
'0:16.180',1478.369
'0:16.184',1447.602
'0:16.188',1424.888
'0:16.191',1417.601
'0:16.195',1381.678
'0:16.199',1383.169
'0:16.203',1394.888
'0:16.207',1358.964
'0:16.211',1337.742
'0:16.215',1378.013
'0:16.219',1336.975
'0:16.223',1372.899
'0:16.227',1324.532
'0:16.230',1352.402
'0:16.234',1364.121
'0:16.238',1376.564
'0:16.242',1372.175
'0:16.246',1351.635
'0:16.250',1336.975
'0:16.254',1361.180
'0:16.258',1358.964
'0:16.262',1348.737
'0:16.266',1377.288
'0:16.270',1402.942
'0:16.273',1400.726
'0:16.277',1372.899
'0:16.281',1396.337
'0:16.285',1381.678
'0:16.289',1358.964
'0:16.293',1328.921
'0:16.297',1302.543
'0:16.301',1320.867
'0:16.305',1314.305
'0:16.309',1252.003
'0:16.313',1238.835
'0:16.316',1232.954
'0:16.320',1194.133
'0:16.324',1210.241
'0:16.328',1190.468
'0:16.332',1178.025
'0:16.336',1166.306
'0:16.340',1154.587
'0:16.344',1145.041
'0:16.348',1124.544
'0:16.352',1122.328
'0:16.355',1127.484
'0:16.359',1075.453
'0:16.363',1108.436
'0:16.367',1063.009
'0:16.371',1086.447
'0:16.375',1099.615
'0:16.379',1039.571
'0:16.383',1068.847
'0:16.387',1027.086
'0:16.391',1049.799
'0:16.395',997.085
'0:16.398',1010.977
'0:16.402',1001.474
'0:16.406',977.270
'0:16.410',980.934
'0:16.414',983.150
'0:16.418',972.156
'0:16.422',964.102
'0:16.426',967.042
'0:16.430',975.096
'0:16.434',978.037
'0:16.438',955.323
'0:16.441',978.037
'0:16.445',1031.517
'0:16.449',1027.853
'0:16.453',1029.301
'0:16.457',1092.328
'0:16.461',1100.382
'0:16.465',1125.268
'0:16.469',1180.965
'0:16.473',1204.403
'0:16.477',1212.457
'0:16.480',1218.295
'0:16.484',1265.213
'0:16.488',1264.489
'0:16.492',1292.316
'0:16.496',1282.046
'0:16.500',1328.921
'0:16.504',1337.742
'0:16.508',1319.418
'0:16.512',1346.521
'0:16.516',1368.510
'0:16.520',1340.640
'0:16.523',1384.618
'0:16.527',1342.856
'0:16.531',1362.629
'0:16.535',1391.948
'0:16.539',1397.786
'0:16.543',1356.024
'0:16.547',1378.737
'0:16.551',1407.331
'0:16.555',1396.337
'0:16.559',1397.061
'0:16.563',1363.354
'0:16.566',1371.408
'0:16.570',1375.839
'0:16.574',1387.558
'0:16.578',1356.024
'0:16.582',1356.024
'0:16.586',1354.575
'0:16.590',1345.797
'0:16.594',1342.132
'0:16.598',1304.759
'0:16.602',1279.105
'0:16.605',1290.100
'0:16.609',1295.981
'0:16.613',1246.889
'0:16.617',1276.932
'0:16.621',1262.273
'0:16.625',1232.230
'0:16.629',1246.889
'0:16.633',1278.381
'0:16.637',1247.614
'0:16.641',1288.651
'0:16.645',1312.813
'0:16.648',1280.597
'0:16.652',1346.521
'0:16.656',1355.299
'0:16.660',1345.072
'0:16.664',1378.013
'0:16.668',1397.786
'0:16.672',1407.331
'0:16.676',1457.147
'0:16.680',1482.034
'0:16.684',1462.985
'0:16.688',1517.958
'0:16.691',1515.017
'0:16.695',1496.693
'0:16.699',1540.671
'0:16.703',1502.574
'0:16.707',1508.412
'0:16.711',1532.617
'0:16.715',1495.244
'0:16.719',1506.963
'0:16.723',1509.136
'0:16.727',1506.239
'0:16.730',1470.315
'0:16.734',1448.369
'0:16.738',1477.645
'0:16.742',1439.548
'0:16.746',1454.207
'0:16.750',1420.499
'0:16.754',1426.380
'0:16.758',1408.056
'0:16.762',1413.169
'0:16.766',1425.655
'0:16.770',1446.877
'0:16.773',1433.709
'0:16.777',1394.121
'0:16.781',1407.331
'0:16.785',1408.780
'0:16.789',1432.218
'0:16.793',1394.121
'0:16.797',1427.104
'0:16.801',1383.894
'0:16.805',1386.834
'0:16.809',1388.283
'0:16.813',1397.061
'0:16.816',1408.056
'0:16.820',1435.883
'0:16.824',1428.553
'0:16.828',1445.428
'0:16.832',1499.634
'0:16.836',1479.136
'0:16.840',1536.282
'0:16.844',1561.893
'0:16.848',1572.163
'0:16.852',1589.762
'0:16.855',1608.811
'0:16.859',1635.913
'0:16.863',1676.908
'0:16.867',1706.951
'0:16.871',1742.108
'0:16.875',1753.827
'0:16.879',1757.492
'0:16.883',1796.356
'0:16.887',1770.702
'0:16.891',1815.404
'0:16.895',1786.086
'0:16.898',1775.816
'0:16.902',1791.924
'0:16.906',1757.492
'0:16.910',1771.426
'0:16.914',1738.443
'0:16.918',1753.102
'0:16.922',1706.951
'0:16.926',1735.545
'0:16.930',1712.832
'0:16.934',1680.573
'0:16.938',1649.806
'0:16.941',1616.865
'0:16.945',1602.930
'0:16.949',1589.762
'0:16.953',1548.725
'0:16.957',1545.785
'0:16.961',1517.958
'0:16.965',1487.190
'0:16.969',1442.488
'0:16.973',1395.612
'0:16.977',1372.175
'0:16.980',1346.521
'0:16.984',1285.711
'0:16.988',1229.290
'0:16.992',1205.127
'0:16.996',1216.122
'0:17.000',1197.073
'0:17.004',1170.695
'0:17.008',1164.814
'0:17.012',1155.311
'0:17.016',1149.431
'0:17.020',1149.431
'0:17.023',1153.095
'0:17.027',1161.192
'0:17.031',1162.641
'0:17.035',1190.468
'0:17.039',1206.576
'0:17.043',1218.295
'0:17.047',1238.111
'0:17.051',1257.884
'0:17.055',1307.700
'0:17.059',1334.078
'0:17.063',1391.223
'0:17.066',1466.650
'0:17.070',1482.801
'0:17.074',1520.898
'0:17.078',1569.222
'0:17.082',1612.433
'0:17.086',1660.076
'0:17.090',1721.610
'0:17.094',1738.443
'0:17.098',1769.210
'0:17.102',1793.415
'0:17.105',1817.577
'0:17.109',1837.350
'0:17.113',1847.620
'0:17.117',1854.226
'0:17.121',1869.609
'0:17.125',1851.285
'0:17.129',1827.123
'0:17.133',1838.075
'0:17.137',1778.032
'0:17.141',1753.102
'0:17.145',1754.594
'0:17.148',1712.108
'0:17.152',1665.189
'0:17.156',1632.973
'0:17.160',1619.038
'0:17.164',1541.395
'0:17.168',1557.503
'0:17.172',1505.514
'0:17.176',1451.266
'0:17.180',1454.931
'0:17.184',1403.667
'0:17.188',1391.223
'0:17.191',1376.564
'0:17.195',1384.618
'0:17.199',1355.299
'0:17.203',1377.288
'0:17.207',1336.251
'0:17.211',1365.569
'0:17.215',1332.586
'0:17.219',1361.180
'0:17.223',1353.126
'0:17.227',1336.975
'0:17.230',1357.515
'0:17.234',1359.689
'0:17.238',1371.408
'0:17.242',1394.121
'0:17.246',1361.180
'0:17.250',1356.024
'0:17.254',1371.408
'0:17.258',1375.839
'0:17.262',1407.331
'0:17.266',1368.510
'0:17.270',1372.175
'0:17.273',1380.953
'0:17.277',1381.678
'0:17.281',1425.655
'0:17.285',1403.667
'0:17.289',1392.672
'0:17.293',1396.337
'0:17.297',1405.115
'0:17.301',1410.996
'0:17.305',1452.034
'0:17.309',1465.926
'0:17.313',1452.758
'0:17.316',1458.596
'0:17.320',1459.321
'0:17.324',1488.639
'0:17.328',1516.466
'0:17.332',1515.017
'0:17.336',1544.336
'0:17.340',1571.438
'0:17.344',1583.882
'0:17.348',1625.643
'0:17.352',1630.033
'0:17.355',1651.297
'0:17.359',1688.627
'0:17.363',1706.951
'0:17.367',1780.972
'0:17.371',1773.642
'0:17.375',1802.194
'0:17.379',1843.231
'0:17.383',1843.231
'0:17.387',1891.556
'0:17.391',1890.107
'0:17.395',1898.885
'0:17.398',1912.096
'0:17.402',1943.587
'0:17.406',1950.193
'0:17.410',1950.917
'0:17.414',1945.803
'0:17.418',1972.906
'0:17.422',1955.306
'0:17.426',1953.857
'0:17.430',1918.701
'0:17.434',1891.556
'0:17.438',1873.274
'0:17.441',1863.729
'0:17.445',1838.075
'0:17.449',1769.977
'0:17.453',1772.151
'0:17.457',1704.778
'0:17.461',1649.806
'0:17.465',1629.308
'0:17.469',1604.379
'0:17.473',1534.790
'0:17.477',1486.466
'0:17.480',1484.974
'0:17.484',1442.488
'0:17.488',1362.629
'0:17.492',1361.905
'0:17.496',1315.029
'0:17.500',1302.543
'0:17.504',1271.051
'0:17.508',1239.560
'0:17.512',1234.446
'0:17.516',1199.247
'0:17.520',1218.295
'0:17.523',1167.755
'0:17.527',1210.241
'0:17.531',1198.522
'0:17.535',1174.360
'0:17.539',1174.360
'0:17.543',1181.690
'0:17.547',1180.965
'0:17.551',1223.451
'0:17.555',1183.863
'0:17.559',1233.679
'0:17.563',1211.733
'0:17.566',1263.722
'0:17.570',1262.997
'0:17.574',1246.889
'0:17.578',1260.057
'0:17.582',1306.975
'0:17.586',1322.359
'0:17.590',1313.538
'0:17.594',1351.635
'0:17.598',1410.272
'0:17.602',1410.272
'0:17.605',1412.445
'0:17.609',1482.801
'0:17.613',1474.704
'0:17.617',1491.579
'0:17.621',1517.233
'0:17.625',1542.120
'0:17.629',1567.773
'0:17.633',1597.049
'0:17.637',1649.806
'0:17.641',1627.859
'0:17.645',1668.130
'0:17.648',1698.173
'0:17.652',1670.346
'0:17.656',1715.005
'0:17.660',1680.573
'0:17.664',1712.108
'0:17.668',1719.395
'0:17.672',1693.783
'0:17.676',1666.681
'0:17.680',1688.627
'0:17.684',1675.459
'0:17.688',1609.535
'0:17.691',1581.666
'0:17.695',1557.503
'0:17.699',1520.131
'0:17.703',1517.233
'0:17.707',1442.488
'0:17.711',1443.212
'0:17.715',1361.905
'0:17.719',1314.305
'0:17.723',1288.651
'0:17.727',1265.938
'0:17.730',1198.522
'0:17.734',1149.431
'0:17.738',1112.101
'0:17.742',1079.117
'0:17.746',1061.518
'0:17.750',974.372
'0:17.754',979.486
'0:17.758',945.778
'0:17.762',904.016
'0:17.766',860.805
'0:17.770',829.313
'0:17.773',838.092
'0:17.777',792.665
'0:17.781',779.497
'0:17.785',772.168
'0:17.789',744.341
'0:17.793',726.017
'0:17.797',749.455
'0:17.801',748.006
'0:17.805',750.179
'0:17.809',752.395
'0:17.813',753.119
'0:17.816',744.341
'0:17.820',754.568
'0:17.824',756.784
'0:17.828',779.497
'0:17.832',775.833
'0:17.836',835.919
'0:17.840',819.043
'0:17.844',838.092
'0:17.848',837.367
'0:17.852',846.146
'0:17.855',887.908
'0:17.859',917.951
'0:17.863',932.610
'0:17.867',942.113
'0:17.871',941.389
'0:17.875',953.107
'0:17.879',955.323
'0:17.883',986.091
'0:17.887',967.767
'0:17.891',1024.912
'0:17.895',1037.356
'0:17.898',1049.074
'0:17.902',1025.637
'0:17.906',1085.723
'0:17.910',1079.842
'0:17.914',1090.112
'0:17.918',1089.387
'0:17.922',1129.658
'0:17.926',1100.382
'0:17.930',1099.615
'0:17.934',1106.944
'0:17.938',1113.550
'0:17.941',1169.246
'0:17.945',1160.425
'0:17.949',1162.641
'0:17.953',1163.365
'0:17.957',1182.414
'0:17.961',1175.084
'0:17.965',1241.008
'0:17.969',1211.733
'0:17.973',1262.997
'0:17.977',1247.614
'0:17.980',1315.754
'0:17.984',1298.154
'0:17.988',1347.970
'0:17.992',1382.402
'0:17.996',1380.953
'0:18.000',1415.385
'0:18.004',1413.937
'0:18.008',1406.607
'0:18.012',1460.812
'0:18.016',1451.266
'0:18.020',1450.542
'0:18.023',1427.104
'0:18.027',1419.050
'0:18.031',1430.769
'0:18.035',1458.596
'0:18.039',1442.488
'0:18.043',1429.320
'0:18.047',1414.661
'0:18.051',1421.991
'0:18.055',1418.326
'0:18.059',1408.780
'0:18.063',1403.667
'0:18.066',1392.672
'0:18.070',1395.612
'0:18.074',1393.397
'0:18.078',1344.305
'0:18.082',1342.856
'0:18.086',1358.964
'0:18.090',1374.348
'0:18.094',1388.283
'0:18.098',1400.726
'0:18.102',1404.391
'0:18.105',1420.499
'0:18.109',1392.672
'0:18.113',1434.434
'0:18.117',1408.056
'0:18.121',1407.331
'0:18.125',1454.931
'0:18.129',1445.428
'0:18.133',1426.380
'0:18.137',1440.272
'0:18.141',1472.531
'0:18.145',1482.801
'0:18.148',1467.417
'0:18.152',1447.602
'0:18.156',1503.298
'0:18.160',1462.261
'0:18.164',1517.958
'0:18.168',1476.920
'0:18.172',1495.969
'0:18.176',1525.287
'0:18.180',1481.309
'0:18.184',1522.347
'0:18.188',1471.082
'0:18.191',1498.909
'0:18.195',1485.699
'0:18.199',1443.937
'0:18.203',1427.104
'0:18.207',1427.829
'0:18.211',1420.499
'0:18.215',1397.786
'0:18.219',1358.240
'0:18.223',1356.791
'0:18.227',1336.251
'0:18.230',1318.694
'0:18.234',1298.921
'0:18.238',1293.040
'0:18.242',1265.938
'0:18.246',1270.327
'0:18.250',1268.111
'0:18.254',1283.537
'0:18.258',1252.727
'0:18.262',1290.100
'0:18.266',1309.148
'0:18.270',1273.992
'0:18.273',1286.435
'0:18.277',1311.364
'0:18.281',1350.910
'0:18.285',1366.294
'0:18.289',1410.272
'0:18.293',1441.039
'0:18.297',1500.358
'0:18.301',1502.574
'0:18.305',1558.228
'0:18.309',1610.260
'0:18.313',1660.800
'0:18.316',1696.724
'0:18.320',1761.156
'0:18.324',1815.404
'0:18.328',1873.999
'0:18.332',1912.096
'0:18.336',1942.139
'0:18.340',2018.333
'0:18.344',2029.284
'0:18.348',2056.430
'0:18.352',2095.976
'0:18.355',2086.430
'0:18.359',2103.305
'0:18.363',2110.635
'0:18.367',2095.976
'0:18.371',2068.149
'0:18.375',2060.819
'0:18.379',2011.003
'0:18.383',1996.344
'0:18.387',1935.533
'0:18.391',1887.166
'0:18.395',1818.302
'0:18.398',1769.977
'0:18.402',1663.740
'0:18.406',1597.816
'0:18.410',1512.801
'0:18.414',1478.369
'0:18.418',1387.558
'0:18.422',1324.532
'0:18.426',1253.494
'0:18.430',1241.008
'0:18.434',1200.014
'0:18.438',1157.527
'0:18.441',1114.998
'0:18.445',1049.074
'0:18.449',1058.620
'0:18.453',1022.696
'0:18.457',993.420
'0:18.461',973.647
'0:18.465',949.443
'0:18.469',945.053
'0:18.473',918.675
'0:18.477',863.746
'0:18.480',839.541
'0:18.484',865.919
'0:18.488',818.319
'0:18.492',835.152
'0:18.496',799.995
'0:18.500',840.308
'0:18.504',799.270
'0:18.508',808.773
'0:18.512',860.081
'0:18.516',865.194
'0:18.520',898.902
'0:18.523',926.729
'0:18.527',942.113
'0:18.531',969.216
'0:18.535',996.318
'0:18.539',1005.139
'0:18.543',1043.961
'0:18.547',1106.220
'0:18.551',1148.706
'0:18.555',1180.241
'0:18.559',1200.738
'0:18.563',1226.392
'0:18.566',1254.943
'0:18.570',1250.554
'0:18.574',1307.700
'0:18.578',1277.657
'0:18.582',1292.316
'0:18.586',1311.364
'0:18.590',1347.970
'0:18.594',1354.575
'0:18.598',1360.456
'0:18.602',1364.845
'0:18.605',1355.299
'0:18.609',1356.791
'0:18.613',1356.024
'0:18.617',1332.586
'0:18.621',1361.905
'0:18.625',1364.845
'0:18.629',1374.348
'0:18.633',1397.061
'0:18.637',1404.391
'0:18.641',1362.629
'0:18.645',1374.348
'0:18.648',1421.991
'0:18.652',1427.104
'0:18.656',1418.326
'0:18.660',1386.834
'0:18.664',1400.002
'0:18.668',1408.056
'0:18.672',1406.607
'0:18.676',1408.056
'0:18.680',1434.434
'0:18.684',1441.764
'0:18.688',1435.883
'0:18.691',1432.985
'0:18.695',1432.218
'0:18.699',1424.164
'0:18.703',1425.655
'0:18.707',1421.266
'0:18.711',1426.380
'0:18.715',1451.266
'0:18.719',1429.320
'0:18.723',1440.272
'0:18.727',1449.093
'0:18.730',1455.698
'0:18.734',1465.201
'0:18.738',1498.185
'0:18.742',1468.866
'0:18.746',1520.131
'0:18.750',1538.455
'0:18.754',1523.071
'0:18.758',1517.958
'0:18.762',1573.612
'0:18.766',1558.228
'0:18.770',1608.811
'0:18.773',1583.157
'0:18.777',1605.871
'0:18.781',1654.195
'0:18.785',1682.065
'0:18.789',1677.675
'0:18.793',1693.059
'0:18.797',1714.281
'0:18.801',1733.329
'0:18.805',1753.827
'0:18.809',1775.091
'0:18.813',1797.080
'0:18.816',1801.469
'0:18.820',1830.788
'0:18.824',1873.999
'0:18.828',1871.058
'0:18.832',1879.837
'0:18.836',1904.766
'0:18.840',1886.442
'0:18.844',1896.712
'0:18.848',1890.831
'0:18.852',1901.101
'0:18.855',1888.658
'0:18.859',1880.604
'0:18.863',1869.609
'0:18.867',1860.788
'0:18.871',1880.604
'0:18.875',1834.453
'0:18.879',1837.350
'0:18.883',1782.421
'0:18.887',1805.134
'0:18.891',1758.259
'0:18.895',1724.551
'0:18.898',1710.616
'0:18.902',1707.676
'0:18.906',1708.443
'0:18.910',1696.724
'0:18.914',1709.167
'0:18.918',1676.184
'0:18.922',1652.022
'0:18.926',1649.806
'0:18.930',1653.470
'0:18.934',1652.746
'0:18.938',1672.519
'0:18.941',1695.232
'0:18.945',1693.059
'0:18.949',1709.167
'0:18.953',1707.676
'0:18.957',1700.346
'0:18.961',1699.622
'0:18.965',1687.178
'0:18.969',1690.119
'0:18.973',1715.730
'0:18.977',1706.951
'0:18.980',1674.011
'0:18.984',1643.243
'0:18.988',1620.530
'0:18.992',1624.195
'0:18.996',1582.433
'0:19.000',1569.222
'0:19.004',1519.406
'0:19.008',1483.525
'0:19.012',1454.931
'0:19.016',1421.266
'0:19.020',1399.277
'0:19.023',1389.007
'0:19.027',1326.748
'0:19.031',1278.381
'0:19.035',1288.651
'0:19.039',1261.548
'0:19.043',1211.733
'0:19.047',1195.624
'0:19.051',1229.290
'0:19.055',1233.679
'0:19.059',1235.170
'0:19.063',1233.679
'0:19.066',1304.035
'0:19.070',1292.316
'0:19.074',1329.688
'0:19.078',1385.342
'0:19.082',1459.321
'0:19.086',1479.861
'0:19.090',1523.796
'0:19.094',1578.001
'0:19.098',1641.027
'0:19.102',1695.957
'0:19.105',1742.108
'0:19.109',1780.205
'0:19.113',1833.686
'0:19.117',1857.890
'0:19.121',1874.723
'0:19.125',1911.371
'0:19.129',1931.869
'0:19.133',1920.150
'0:19.137',1932.593
'0:19.141',1922.323
'0:19.145',1891.556
'0:19.148',1849.069
'0:19.152',1819.026
'0:19.156',1786.810
'0:19.160',1691.568
'0:19.164',1628.584
'0:19.168',1586.822
'0:19.172',1463.752
'0:19.176',1368.510
'0:19.180',1302.543
'0:19.184',1177.300
'0:19.188',1075.453
'0:19.191',1020.523
'0:19.195',909.897
'0:19.199',779.497
'0:19.203',689.369
'0:19.207',608.785
'0:19.211',525.986
'0:19.215',387.533
'0:19.219',304.009
'0:19.223',268.852
'0:19.227',194.874
'0:19.230',87.188
'0:19.234',31.492
'0:19.238',0.000
'0:19.242',0.000
'0:19.246',0.724
'0:19.250',0.724
'0:19.254',0.724
'0:19.258',1.449
'0:19.262',1.449
'0:19.266',0.724
'0:19.270',0.000
'0:19.273',0.724
'0:19.277',1.449
'0:19.281',1.449
'0:19.285',0.724
'0:19.289',0.724
'0:19.293',1.449
'0:19.297',0.000
'0:19.301',0.724
'0:19.305',12.443
'0:19.309',42.486
'0:19.313',69.589
'0:19.316',171.437
'0:19.320',235.145
'0:19.324',334.052
'0:19.328',413.911
'0:19.332',507.705
'0:19.336',549.466
'0:19.340',673.985
'0:19.344',742.849
'0:19.348',862.254
'0:19.352',947.269
'0:19.355',1032.242
'0:19.359',1084.998
'0:19.363',1189.019
'0:19.367',1219.787
'0:19.371',1285.711
'0:19.375',1344.305
'0:19.379',1438.823
'0:19.383',1471.082
'0:19.387',1492.304
'0:19.391',1551.665
'0:19.395',1576.552
'0:19.398',1585.331
'0:19.402',1605.871
'0:19.406',1641.027
'0:19.410',1659.351
'0:19.414',1675.459
'0:19.418',1681.298
'0:19.422',1742.875
'0:19.426',1717.221
'0:19.430',1765.588
'0:19.434',1742.875
'0:19.438',1761.156
'0:19.441',1750.162
'0:19.445',1786.086
'0:19.449',1778.032
'0:19.453',1810.972
'0:19.457',1772.151
'0:19.461',1813.913
'0:19.465',1772.875
'0:19.469',1809.523
'0:19.473',1763.372
'0:19.477',1755.318
'0:19.480',1747.989
'0:19.484',1765.588
'0:19.488',1750.929
'0:19.492',1747.264
'0:19.496',1760.432
'0:19.500',1717.221
'0:19.504',1733.329
'0:19.508',1747.989
'0:19.512',1725.275
'0:19.516',1739.210
'0:19.520',1728.940
'0:19.523',1745.048
'0:19.527',1753.102
'0:19.531',1759.707
'0:19.535',1794.864
'0:19.539',1778.032
'0:19.543',1778.756
'0:19.547',1788.259
'0:19.551',1800.745
'0:19.555',1813.913
'0:19.559',1824.183
'0:19.563',1821.967
'0:19.566',1818.302
'0:19.570',1818.302
'0:19.574',1819.026
'0:19.578',1805.134
'0:19.582',1808.799
'0:19.586',1823.458
'0:19.590',1776.540
'0:19.594',1781.696
'0:19.598',1765.588
'0:19.602',1769.977
'0:19.605',1725.275
'0:19.609',1749.437
'0:19.613',1706.227
'0:19.617',1740.659
'0:19.621',1697.448
'0:19.625',1693.783
'0:19.629',1719.395
'0:19.633',1679.849
'0:19.637',1688.627
'0:19.641',1702.562
'0:19.645',1693.059
'0:19.648',1681.298
'0:19.652',1678.400
'0:19.656',1642.476
'0:19.660',1627.859
'0:19.664',1605.871
'0:19.668',1623.428
'0:19.672',1556.779
'0:19.676',1555.330
'0:19.680',1536.282
'0:19.684',1504.747
'0:19.688',1524.563
'0:19.691',1483.525
'0:19.695',1446.877
'0:19.699',1430.769
'0:19.703',1438.823
'0:19.707',1450.542
'0:19.711',1440.272
'0:19.715',1427.829
'0:19.719',1411.721
'0:19.723',1363.354
'0:19.727',1397.786
'0:19.730',1339.916
'0:19.734',1338.467
'0:19.738',1361.905
'0:19.742',1301.819
'0:19.746',1326.748
'0:19.750',1293.765
'0:19.754',1248.338
'0:19.758',1257.159
'0:19.762',1243.949
'0:19.766',1198.522
'0:19.770',1192.684
'0:19.773',1140.652
'0:19.777',1158.976
'0:19.781',1132.598
'0:19.785',1101.106
'0:19.789',1095.950
'0:19.793',1110.609
'0:19.797',1132.598
'0:19.801',1137.712
'0:19.805',1150.922
'0:19.809',1170.695
'0:19.813',1184.630
'0:19.816',1200.014
'0:19.820',1218.295
'0:19.824',1298.154
'0:19.828',1339.191
'0:19.832',1353.851
'0:19.836',1416.834
'0:19.840',1471.082
'0:19.844',1487.915
'0:19.848',1567.049
'0:19.852',1602.930
'0:19.855',1610.984
'0:19.859',1667.405
'0:19.863',1672.519
'0:19.867',1690.119
'0:19.871',1719.395
'0:19.875',1743.599
'0:19.879',1720.162
'0:19.883',1733.329
'0:19.887',1730.389
'0:19.891',1712.108
'0:19.895',1709.892
'0:19.898',1716.497
'0:19.902',1723.826
'0:19.906',1696.724
'0:19.910',1681.298
'0:19.914',1659.351
'0:19.918',1649.806
'0:19.922',1635.146
'0:19.926',1597.049
'0:19.930',1551.665
'0:19.934',1548.001
'0:19.938',1558.995
'0:19.941',1501.082
'0:19.945',1513.568
'0:19.949',1465.201
'0:19.953',1477.645
'0:19.957',1442.488
'0:19.961',1467.417
'0:19.965',1441.039
'0:19.969',1418.326
'0:19.973',1435.883
'0:19.977',1471.082
'0:19.980',1445.428
'0:19.984',1449.093
'0:19.988',1491.579
'0:19.992',1515.017
'0:19.996',1542.120
'0:20.000',1550.174
'0:20.004',1569.222
'0:20.008',1543.569
'0:20.012',1564.833
'0:20.016',1567.049
'0:20.020',1608.811
'0:20.023',1619.763
'0:20.027',1612.433
'0:20.031',1580.941
'0:20.035',1621.254
'0:20.039',1588.271
'0:20.043',1595.601
'0:20.047',1577.276
'0:20.051',1564.833
'0:20.055',1547.233
'0:20.059',1572.163
'0:20.063',1558.995
'0:20.066',1545.060
'0:20.070',1546.509
'0:20.074',1534.790
'0:20.078',1519.406
'0:20.082',1499.634
'0:20.086',1470.315
'0:20.090',1468.866
'0:20.094',1451.266
'0:20.098',1465.926
'0:20.102',1478.369
'0:20.105',1428.553
'0:20.109',1421.991
'0:20.113',1420.499
'0:20.117',1439.548
'0:20.121',1444.704
'0:20.125',1451.266
'0:20.129',1450.542
'0:20.133',1472.531
'0:20.137',1484.250
'0:20.141',1489.364
'0:20.145',1482.801
'0:20.148',1459.321
'0:20.152',1474.704
'0:20.156',1475.471
'0:20.160',1484.974
'0:20.164',1495.244
'0:20.168',1515.742
'0:20.172',1514.293
'0:20.176',1515.742
'0:20.180',1547.233
'0:20.184',1561.893
'0:20.188',1539.179
'0:20.191',1594.876
'0:20.195',1560.444
'0:20.199',1572.163
'0:20.203',1596.325
'0:20.207',1591.211
'0:20.211',1613.200
'0:20.215',1615.373
'0:20.219',1639.578
'0:20.223',1620.530
'0:20.227',1664.465
'0:20.230',1625.643
'0:20.234',1624.195
'0:20.238',1649.806
'0:20.242',1668.130
'0:20.246',1641.027
'0:20.250',1628.584
'0:20.254',1624.195
'0:20.258',1666.681
'0:20.262',1631.482
'0:20.266',1632.249
'0:20.270',1619.763
'0:20.273',1606.595
'0:20.277',1615.373
'0:20.281',1588.271
'0:20.285',1628.584
'0:20.289',1616.098
'0:20.293',1580.941
'0:20.297',1564.833
'0:20.301',1567.049
'0:20.305',1597.816
'0:20.309',1597.816
'0:20.313',1569.222
'0:20.316',1548.725
'0:20.320',1535.515
'0:20.324',1531.125
'0:20.328',1534.066
'0:20.332',1542.120
'0:20.336',1536.282
'0:20.340',1566.282
'0:20.344',1512.801
'0:20.348',1510.628
'0:20.352',1506.239
'0:20.355',1528.185
'0:20.359',1541.395
'0:20.363',1504.747
'0:20.367',1477.645
'0:20.371',1480.585
'0:20.375',1498.909
'0:20.379',1442.488
'0:20.383',1467.417
'0:20.387',1415.385
'0:20.391',1449.818
'0:20.395',1388.283
'0:20.398',1372.899
'0:20.402',1353.851
'0:20.406',1352.402
'0:20.410',1354.575
'0:20.414',1347.245
'0:20.418',1346.521
'0:20.422',1343.581
'0:20.426',1287.160
'0:20.430',1287.160
'0:20.434',1297.430
'0:20.438',1301.819
'0:20.441',1320.143
'0:20.445',1318.694
'0:20.449',1312.813
'0:20.453',1280.597
'0:20.457',1311.364
'0:20.461',1266.662
'0:20.465',1268.111
'0:20.469',1264.489
'0:20.473',1283.537
'0:20.477',1286.435
'0:20.480',1272.543
'0:20.484',1298.921
'0:20.488',1263.722
'0:20.492',1247.614
'0:20.496',1269.602
'0:20.500',1244.673
'0:20.504',1264.489
'0:20.508',1273.992
'0:20.512',1301.094
'0:20.516',1265.213
'0:20.520',1278.381
'0:20.523',1300.370
'0:20.527',1365.569
'0:20.531',1377.288
'0:20.535',1388.283
'0:20.539',1406.607
'0:20.543',1457.147
'0:20.547',1521.622
'0:20.551',1508.412
'0:20.555',1547.233
'0:20.559',1572.887
'0:20.563',1631.482
'0:20.566',1652.746
'0:20.570',1648.357
'0:20.574',1689.394
'0:20.578',1684.962
'0:20.582',1695.232
'0:20.586',1672.519
'0:20.590',1691.568
'0:20.594',1643.243
'0:20.598',1642.476
'0:20.602',1618.314
'0:20.605',1577.276
'0:20.609',1541.395
'0:20.613',1468.142
'0:20.617',1455.698
'0:20.621',1396.337
'0:20.625',1340.640
'0:20.629',1300.370
'0:20.633',1208.068
'0:20.637',1168.479
'0:20.641',1128.209
'0:20.645',1064.458
'0:20.648',998.534
'0:20.652',994.869
'0:20.656',915.735
'0:20.660',923.789
'0:20.664',881.303
'0:20.668',856.416
'0:20.672',841.757
'0:20.676',783.162
'0:20.680',784.611
'0:20.684',743.574
'0:20.688',772.892
'0:20.691',717.963
'0:20.695',756.060
'0:20.699',731.130
'0:20.703',736.244
'0:20.707',716.471
'0:20.711',767.054
'0:20.715',726.741
'0:20.719',775.833
'0:20.723',746.514
'0:20.727',778.006
'0:20.730',778.773
'0:20.734',780.222
'0:20.738',770.676
'0:20.742',816.870
'0:20.746',843.206
'0:20.750',840.308
'0:20.754',836.643
'0:20.758',847.637
'0:20.762',881.303
'0:20.766',904.016
'0:20.770',940.664
'0:20.773',950.167
'0:20.777',972.156
'0:20.781',950.934
'0:20.785',992.653
'0:20.789',1032.966
'0:20.793',1032.242
'0:20.797',1016.134
'0:20.801',1063.734
'0:20.805',1090.112
'0:20.809',1103.280
'0:20.813',1093.052
'0:20.816',1132.598
'0:20.820',1139.203
'0:20.824',1134.047
'0:20.828',1153.095
'0:20.832',1150.922
'0:20.836',1144.317
'0:20.840',1180.965
'0:20.844',1211.008
'0:20.848',1217.571
'0:20.852',1223.451
'0:20.855',1227.116
'0:20.859',1247.614
'0:20.863',1282.046
'0:20.867',1290.824
'0:20.871',1326.748
'0:20.875',1331.862
'0:20.879',1356.024
'0:20.883',1340.640
'0:20.887',1394.888
'0:20.891',1359.689
'0:20.895',1424.164
'0:20.898',1405.115
'0:20.902',1413.937
'0:20.906',1421.266
'0:20.910',1468.866
'0:20.914',1453.482
'0:20.918',1470.315
'0:20.922',1506.963
'0:20.926',1470.315
'0:20.930',1520.131
'0:20.934',1502.574
'0:20.938',1484.250
'0:20.941',1505.514
'0:20.945',1521.622
'0:20.949',1479.861
'0:20.953',1522.347
'0:20.957',1486.466
'0:20.961',1463.752
'0:20.965',1501.849
'0:20.969',1480.585
'0:20.973',1441.764
'0:20.977',1422.715
'0:20.980',1420.499
'0:20.984',1400.002
'0:20.988',1377.288
'0:20.992',1358.964
'0:20.996',1356.791
'0:21.000',1369.959
'0:21.004',1360.456
'0:21.008',1353.126
'0:21.012',1355.299
'0:21.016',1372.899
'0:21.020',1388.283
'0:21.023',1353.851
'0:21.027',1372.899
'0:21.031',1392.672
'0:21.035',1421.266
'0:21.039',1444.704
'0:21.043',1465.926
'0:21.047',1482.801
'0:21.051',1531.125
'0:21.055',1534.066
'0:21.059',1567.773
'0:21.063',1613.925
'0:21.066',1661.525
'0:21.070',1651.297
'0:21.074',1701.113
'0:21.078',1742.875
'0:21.082',1761.923
'0:21.086',1754.594
'0:21.090',1796.356
'0:21.094',1799.253
'0:21.098',1800.745
'0:21.102',1803.643
'0:21.105',1832.237
'0:21.109',1833.686
'0:21.113',1819.793
'0:21.117',1826.356
'0:21.121',1852.010
'0:21.125',1806.583
'0:21.129',1825.632
'0:21.133',1787.535
'0:21.137',1783.870
'0:21.141',1747.264
'0:21.145',1726.724
'0:21.148',1708.443
'0:21.152',1674.735
'0:21.156',1621.254
'0:21.160',1568.498
'0:21.164',1535.515
'0:21.168',1493.753
'0:21.172',1472.531
'0:21.176',1440.272
'0:21.180',1372.899
'0:21.184',1365.569
'0:21.188',1306.975
'0:21.191',1289.375
'0:21.195',1234.446
'0:21.199',1225.625
'0:21.203',1180.241
'0:21.207',1179.474
'0:21.211',1169.971
'0:21.215',1153.095
'0:21.219',1131.149
'0:21.223',1125.268
'0:21.227',1117.214
'0:21.230',1112.825
'0:21.234',1101.831
'0:21.238',1119.430
'0:21.242',1122.328
'0:21.246',1129.658
'0:21.250',1135.538
'0:21.254',1140.652
'0:21.258',1148.706
'0:21.262',1200.738
'0:21.266',1194.133
'0:21.270',1204.403
'0:21.273',1274.716
'0:21.277',1264.489
'0:21.281',1290.100
'0:21.285',1330.413
'0:21.289',1368.510
'0:21.293',1409.505
'0:21.297',1444.704
'0:21.301',1477.645
'0:21.305',1507.688
'0:21.309',1523.071
'0:21.313',1573.612
'0:21.316',1577.276
'0:21.320',1605.146
'0:21.324',1622.703
'0:21.328',1682.065
'0:21.332',1692.292
'0:21.336',1681.298
'0:21.340',1671.070
'0:21.344',1707.676
'0:21.348',1679.849
'0:21.352',1701.113
'0:21.355',1687.903
'0:21.359',1657.135
'0:21.363',1684.962
'0:21.367',1670.346
'0:21.371',1646.865
'0:21.375',1647.632
'0:21.379',1632.249
'0:21.383',1622.703
'0:21.387',1561.168
'0:21.391',1560.444
'0:21.395',1558.228
'0:21.398',1536.282
'0:21.402',1512.801
'0:21.406',1492.304
'0:21.410',1520.898
'0:21.414',1513.568
'0:21.418',1484.250
'0:21.422',1479.136
'0:21.426',1471.806
'0:21.430',1462.985
'0:21.434',1405.115
'0:21.438',1412.445
'0:21.441',1425.655
'0:21.445',1422.715
'0:21.449',1369.234
'0:21.453',1394.121
'0:21.457',1361.180
'0:21.461',1380.953
'0:21.465',1369.959
'0:21.469',1373.624
'0:21.473',1365.569
'0:21.477',1335.527
'0:21.480',1353.126
'0:21.484',1393.397
'0:21.488',1398.553
'0:21.492',1405.840
'0:21.496',1417.601
'0:21.500',1416.834
'0:21.504',1440.272
'0:21.508',1453.482
'0:21.512',1443.212
'0:21.516',1444.704
'0:21.520',1496.693
'0:21.523',1484.250
'0:21.527',1521.622
'0:21.531',1557.503
'0:21.535',1526.736
'0:21.539',1561.893
'0:21.543',1575.828
'0:21.547',1585.331
'0:21.551',1588.995
'0:21.555',1606.595
'0:21.559',1629.308
'0:21.563',1624.195
'0:21.566',1623.428
'0:21.570',1619.038
'0:21.574',1609.535
'0:21.578',1602.930
'0:21.582',1607.319
'0:21.586',1629.308
'0:21.590',1573.612
'0:21.594',1605.871
'0:21.598',1556.055
'0:21.602',1534.790
'0:21.605',1549.449
'0:21.609',1504.023
'0:21.613',1512.077
'0:21.617',1468.142
'0:21.621',1434.434
'0:21.625',1411.721
'0:21.629',1415.385
'0:21.633',1414.661
'0:21.637',1377.288
'0:21.641',1386.067
'0:21.645',1384.618
'0:21.648',1359.689
'0:21.652',1323.808
'0:21.656',1309.873
'0:21.660',1329.688
'0:21.664',1328.921
'0:21.668',1342.132
'0:21.672',1334.802
'0:21.676',1331.862
'0:21.680',1338.467
'0:21.684',1340.640
'0:21.688',1332.586
'0:21.691',1361.905
'0:21.695',1366.294
'0:21.699',1382.402
'0:21.703',1381.678
'0:21.707',1449.818
'0:21.711',1433.709
'0:21.715',1444.704
'0:21.719',1490.855
'0:21.723',1520.131
'0:21.727',1550.898
'0:21.730',1553.114
'0:21.734',1546.509
'0:21.738',1572.887
'0:21.742',1587.546
'0:21.746',1646.865
'0:21.750',1635.146
'0:21.754',1638.811
'0:21.758',1655.686
'0:21.762',1687.178
'0:21.766',1692.292
'0:21.770',1687.178
'0:21.773',1712.108
'0:21.777',1730.389
'0:21.781',1722.335
'0:21.785',1727.491
'0:21.789',1736.994
'0:21.793',1693.783
'0:21.797',1703.286
'0:21.801',1717.221
'0:21.805',1676.184
'0:21.809',1672.519
'0:21.813',1676.184
'0:21.816',1663.740
'0:21.820',1674.011
'0:21.824',1656.411
'0:21.828',1663.016
'0:21.832',1646.865
'0:21.836',1649.081
'0:21.840',1639.578
'0:21.844',1638.087
'0:21.848',1599.265
'0:21.852',1580.217
'0:21.855',1591.211
'0:21.859',1599.990
'0:21.863',1570.714
'0:21.867',1539.946
'0:21.871',1532.617
'0:21.875',1535.515
'0:21.879',1495.969
'0:21.883',1493.028
'0:21.887',1442.488
'0:21.891',1415.385
'0:21.895',1412.445
'0:21.898',1378.737
'0:21.902',1342.856
'0:21.906',1350.186
'0:21.910',1304.035
'0:21.914',1326.748
'0:21.918',1305.484
'0:21.922',1260.824
'0:21.926',1230.781
'0:21.930',1260.057
'0:21.934',1239.560
'0:21.938',1221.235
'0:21.941',1262.273
'0:21.945',1214.673
'0:21.949',1270.327
'0:21.953',1246.889
'0:21.957',1246.889
'0:21.961',1249.105
'0:21.965',1304.035
'0:21.969',1306.975
'0:21.973',1291.591
'0:21.977',1328.921
'0:21.980',1358.240
'0:21.984',1333.353
'0:21.988',1333.353
'0:21.992',1357.515
'0:21.996',1368.510
'0:22.000',1340.640
'0:22.004',1349.461
'0:22.008',1384.618
'0:22.012',1379.504
'0:22.016',1329.688
'0:22.020',1324.532
'0:22.023',1352.402
'0:22.027',1331.862
'0:22.031',1305.484
'0:22.035',1317.970
'0:22.039',1275.441
'0:22.043',1289.375
'0:22.047',1279.872
'0:22.051',1276.932
'0:22.055',1288.651
'0:22.059',1252.727
'0:22.063',1279.105
'0:22.066',1251.278
'0:22.070',1277.657
'0:22.074',1297.430
'0:22.078',1299.645
'0:22.082',1321.592
'0:22.086',1308.424
'0:22.090',1307.700
'0:22.094',1333.353
'0:22.098',1375.072
'0:22.102',1367.018
'0:22.105',1436.650
'0:22.109',1440.272
'0:22.113',1439.548
'0:22.117',1491.579
'0:22.121',1520.898
'0:22.125',1546.509
'0:22.129',1547.233
'0:22.133',1547.233
'0:22.137',1574.379
'0:22.141',1614.649
'0:22.145',1630.033
'0:22.148',1638.087
'0:22.152',1639.578
'0:22.156',1632.973
'0:22.160',1583.157
'0:22.164',1594.876
'0:22.168',1593.427
'0:22.172',1567.773
'0:22.176',1515.017
'0:22.180',1473.255
'0:22.184',1432.985
'0:22.188',1367.785
'0:22.191',1356.791
'0:22.195',1283.537
'0:22.199',1230.781
'0:22.203',1165.581
'0:22.207',1128.209
'0:22.211',1063.734
'0:22.215',991.929
'0:22.219',969.983
'0:22.223',920.891
'0:22.227',868.135
'0:22.230',786.060
'0:22.234',755.293
'0:22.238',719.412
'0:22.242',667.380
'0:22.246',605.845
'0:22.250',569.964
'0:22.254',536.981
'0:22.258',556.029
'0:22.262',531.142
'0:22.266',530.418
'0:22.270',523.813
'0:22.273',523.813
'0:22.277',525.986
'0:22.281',537.748
'0:22.285',553.856
'0:22.289',540.645
'0:22.293',607.336
'0:22.297',640.277
'0:22.301',685.704
'0:22.305',725.292
'0:22.309',743.574
'0:22.313',772.892
'0:22.316',847.637
'0:22.320',917.951
'0:22.324',958.988
'0:22.328',1002.923
'0:22.332',1074.004
'0:22.336',1107.711
'0:22.340',1210.241
'0:22.344',1224.900
'0:22.348',1281.321
'0:22.352',1346.521
'0:22.355',1367.018
'0:22.359',1404.391
'0:22.363',1454.931
'0:22.367',1512.801
'0:22.371',1498.185
'0:22.375',1566.282
'0:22.379',1537.006
'0:22.383',1558.995
'0:22.387',1606.595
'0:22.391',1598.541
'0:22.395',1580.217
'0:22.398',1586.098
'0:22.402',1616.865
'0:22.406',1569.222
'0:22.410',1564.109
'0:22.414',1597.816
'0:22.418',1548.001
'0:22.422',1577.276
'0:22.426',1523.796
'0:22.430',1543.569
'0:22.434',1507.688
'0:22.438',1510.628
'0:22.441',1499.634
'0:22.445',1483.525
'0:22.449',1465.201
'0:22.453',1446.153
'0:22.457',1421.991
'0:22.461',1369.959
'0:22.465',1382.402
'0:22.469',1345.072
'0:22.473',1327.472
'0:22.477',1334.802
'0:22.480',1356.024
'0:22.484',1324.532
'0:22.488',1317.202
'0:22.492',1348.737
'0:22.496',1311.364
'0:22.500',1347.970
'0:22.504',1359.689
'0:22.508',1339.191
'0:22.512',1350.910
'0:22.516',1368.510
'0:22.520',1411.721
'0:22.523',1443.212
'0:22.527',1479.136
'0:22.531',1486.466
'0:22.535',1504.023
'0:22.539',1529.676
'0:22.543',1580.217
'0:22.547',1572.887
'0:22.551',1588.271
'0:22.555',1612.433
'0:22.559',1628.584
'0:22.563',1650.530
'0:22.566',1654.195
'0:22.570',1674.011
'0:22.574',1683.513
'0:22.578',1714.281
'0:22.582',1713.556
'0:22.586',1703.286
'0:22.590',1676.908
'0:22.594',1663.740
'0:22.598',1652.746
'0:22.602',1641.752
'0:22.605',1627.859
'0:22.609',1621.254
'0:22.613',1599.265
'0:22.617',1581.666
'0:22.621',1585.331
'0:22.625',1545.785
'0:22.629',1536.282
'0:22.633',1506.239
'0:22.637',1493.028
'0:22.641',1504.747
'0:22.645',1505.514
'0:22.648',1482.034
'0:22.652',1448.369
'0:22.656',1443.937
'0:22.660',1466.650
'0:22.664',1476.196
'0:22.668',1474.704
'0:22.672',1472.531
'0:22.676',1453.482
'0:22.680',1444.704
'0:22.684',1448.369
'0:22.688',1450.542
'0:22.691',1445.428
'0:22.695',1467.417
'0:22.699',1487.915
'0:22.703',1478.369
'0:22.707',1476.920
'0:22.711',1522.347
'0:22.715',1495.969
'0:22.719',1528.185
'0:22.723',1510.628
'0:22.727',1558.228
'0:22.730',1523.071
'0:22.734',1574.379
'0:22.738',1539.946
'0:22.742',1579.492
'0:22.746',1591.211
'0:22.750',1578.768
'0:22.754',1568.498
'0:22.758',1572.163
'0:22.762',1573.612
'0:22.766',1587.546
'0:22.770',1560.444
'0:22.773',1566.282
'0:22.777',1546.509
'0:22.781',1523.071
'0:22.785',1544.336
'0:22.789',1475.471
'0:22.793',1495.969
'0:22.797',1436.650
'0:22.801',1402.218
'0:22.805',1369.234
'0:22.809',1336.975
'0:22.813',1312.089
'0:22.816',1318.694
'0:22.820',1266.662
'0:22.824',1208.792
'0:22.828',1223.451
'0:22.832',1161.917
'0:22.836',1125.268
'0:22.840',1126.760
'0:22.844',1139.203
'0:22.848',1130.382
'0:22.852',1131.149
'0:22.855',1117.214
'0:22.859',1096.717
'0:22.863',1112.825
'0:22.867',1144.317
'0:22.871',1165.581
'0:22.875',1195.624
'0:22.879',1191.960
'0:22.883',1227.841
'0:22.887',1227.116
'0:22.891',1265.213
'0:22.895',1245.440
'0:22.898',1284.986
'0:22.902',1284.262
'0:22.906',1290.100
'0:22.910',1309.148
'0:22.914',1357.515
'0:22.918',1348.737
'0:22.922',1361.180
'0:22.926',1394.888
'0:22.930',1426.380
'0:22.934',1427.829
'0:22.938',1500.358
'0:22.941',1490.131
'0:22.945',1498.185
'0:22.949',1526.736
'0:22.953',1589.762
'0:22.957',1613.200
'0:22.961',1619.038
'0:22.965',1654.195
'0:22.969',1657.135
'0:22.973',1643.243
'0:22.977',1695.232
'0:22.980',1670.346
'0:22.984',1712.108
'0:22.988',1690.119
'0:22.992',1687.178
'0:22.996',1729.665
'0:23.000',1705.502
'0:23.004',1693.783
'0:23.008',1689.394
'0:23.012',1677.675
'0:23.016',1665.914
'0:23.020',1606.595
'0:23.023',1576.552
'0:23.027',1558.228
'0:23.031',1553.114
'0:23.035',1508.412
'0:23.039',1494.520
'0:23.043',1505.514
'0:23.047',1478.369
'0:23.051',1456.423
'0:23.055',1446.153
'0:23.059',1429.320
'0:23.063',1416.834
'0:23.066',1403.667
'0:23.070',1419.775
'0:23.074',1416.110
'0:23.078',1427.104
'0:23.082',1433.709
'0:23.086',1422.715
'0:23.090',1427.104
'0:23.094',1441.764
'0:23.098',1479.861
'0:23.102',1486.466
'0:23.105',1515.017
'0:23.109',1520.131
'0:23.113',1560.444
'0:23.117',1568.498
'0:23.121',1625.643
'0:23.125',1606.595
'0:23.129',1625.643
'0:23.133',1659.351
'0:23.137',1704.778
'0:23.141',1717.221
'0:23.145',1702.562
'0:23.148',1702.562
'0:23.152',1733.329
'0:23.156',1742.108
'0:23.160',1728.216
'0:23.164',1725.275
'0:23.168',1753.102
'0:23.172',1750.929
'0:23.176',1734.778
'0:23.180',1727.491
'0:23.184',1712.832
'0:23.188',1733.329
'0:23.191',1713.556
'0:23.195',1738.443
'0:23.199',1695.232
'0:23.203',1689.394
'0:23.207',1699.622
'0:23.211',1665.914
'0:23.215',1674.735
'0:23.219',1679.849
'0:23.223',1652.746
'0:23.227',1634.422
'0:23.230',1631.482
'0:23.234',1643.243
'0:23.238',1639.578
'0:23.242',1651.297
'0:23.246',1605.871
'0:23.250',1612.433
'0:23.254',1615.373
'0:23.258',1605.871
'0:23.262',1613.925
'0:23.266',1603.655
'0:23.270',1621.979
'0:23.273',1603.655
'0:23.277',1621.254
'0:23.281',1628.584
'0:23.285',1631.482
'0:23.289',1594.152
'0:23.293',1622.703
'0:23.297',1593.427
'0:23.301',1576.552
'0:23.305',1556.779
'0:23.309',1540.671
'0:23.313',1512.801
'0:23.316',1487.190
'0:23.320',1439.548
'0:23.324',1412.445
'0:23.328',1390.456
'0:23.332',1364.845
'0:23.336',1317.970
'0:23.340',1323.808
'0:23.344',1285.711
'0:23.348',1224.176
'0:23.352',1194.857
'0:23.355',1179.474
'0:23.359',1168.479
'0:23.363',1191.960
'0:23.367',1210.241
'0:23.371',1221.960
'0:23.375',1209.517
'0:23.379',1211.008
'0:23.383',1281.321
'0:23.387',1262.273
'0:23.391',1303.310
'0:23.395',1346.521
'0:23.398',1391.223
'0:23.402',1394.121
'0:23.406',1405.840
'0:23.410',1473.255
'0:23.414',1505.514
'0:23.418',1478.369
'0:23.422',1506.239
'0:23.426',1553.839
'0:23.430',1512.077
'0:23.434',1522.347
'0:23.438',1556.055
'0:23.441',1528.185
'0:23.445',1494.520
'0:23.449',1517.958
'0:23.453',1467.417
'0:23.457',1427.829
'0:23.461',1390.456
'0:23.465',1354.575
'0:23.469',1331.862
'0:23.473',1300.370
'0:23.477',1245.440
'0:23.480',1183.863
'0:23.484',1169.971
'0:23.488',1156.036
'0:23.492',1109.885
'0:23.496',1052.015
'0:23.500',1063.009
'0:23.504',1016.134
'0:23.508',1005.139
'0:23.512',960.437
'0:23.516',989.756
'0:23.520',975.821
'0:23.523',961.161
'0:23.527',927.454
'0:23.531',967.767
'0:23.535',949.443
'0:23.539',978.037
'0:23.543',974.372
'0:23.547',950.934
'0:23.551',1011.702
'0:23.555',1011.702
'0:23.559',1052.015
'0:23.563',1059.344
'0:23.566',1056.404
'0:23.570',1118.663
'0:23.574',1131.874
'0:23.578',1162.641
'0:23.582',1167.755
