'Elapsed time','wrist_ppg'
'hh:mm:ss.mmm','mV'
'0:00.000',1394.888
'0:00.004',1388.283
'0:00.008',1347.245
'0:00.012',1375.839
'0:00.016',1349.461
'0:00.020',1367.785
'0:00.023',1361.905
'0:00.027',1350.186
'0:00.031',1392.672
'0:00.035',1364.121
'0:00.039',1400.002
'0:00.043',1361.905
'0:00.047',1394.888
'0:00.051',1369.959
'0:00.055',1402.942
'0:00.059',1383.894
'0:00.063',1402.218
'0:00.066',1404.391
'0:00.070',1394.888
'0:00.074',1399.277
'0:00.078',1402.942
'0:00.082',1423.439
'0:00.086',1427.829
'0:00.090',1390.456
'0:00.094',1397.786
'0:00.098',1397.061
'0:00.102',1419.050
'0:00.105',1383.894
'0:00.109',1386.834
'0:00.113',1407.331
'0:00.117',1425.655
'0:00.121',1427.104
'0:00.125',1392.672
'0:00.129',1417.601
'0:00.133',1426.380
'0:00.137',1430.769
'0:00.141',1446.877
'0:00.145',1456.423
'0:00.148',1458.596
'0:00.152',1446.877
'0:00.156',1471.806
'0:00.160',1482.801
'0:00.164',1471.806
'0:00.168',1473.255
'0:00.172',1485.699
'0:00.176',1497.418
'0:00.180',1504.023
'0:00.184',1515.742
'0:00.188',1519.406
'0:00.191',1531.850
'0:00.195',1544.336
'0:00.199',1550.898
'0:00.203',1555.330
'0:00.207',1550.898
'0:00.211',1565.558
'0:00.215',1557.503
'0:00.219',1558.995
'0:00.223',1567.773
'0:00.227',1597.816
'0:00.230',1578.001
'0:00.234',1580.941
'0:00.238',1578.001
'0:00.242',1570.714
'0:00.246',1556.055
'0:00.250',1550.898
'0:00.254',1545.785
'0:00.258',1540.671
'0:00.262',1543.569
'0:00.266',1533.341
'0:00.270',1517.233
'0:00.273',1526.012
'0:00.277',1539.179
'0:00.281',1507.688
'0:00.285',1490.855
'0:00.289',1485.699
'0:00.293',1488.639
'0:00.297',1497.418
'0:00.301',1516.466
'0:00.305',1490.131
'0:00.309',1490.855
'0:00.313',1507.688
'0:00.316',1508.412
'0:00.320',1524.563
'0:00.324',1535.515
'0:00.328',1534.066
'0:00.332',1526.012
'0:00.336',1537.006
'0:00.340',1539.946
'0:00.344',1562.617
'0:00.348',1576.552
'0:00.352',1561.893
'0:00.355',1593.427
'0:00.359',1557.503
'0:00.363',1588.995
'0:00.367',1561.168
'0:00.371',1580.941
'0:00.375',1564.109
'0:00.379',1571.438
'0:00.383',1581.666
'0:00.387',1558.995
'0:00.391',1578.001
'0:00.395',1580.941
'0:00.398',1570.714
'0:00.402',1583.882
'0:00.406',1556.779
'0:00.410',1579.492
'0:00.414',1537.006
'0:00.418',1540.671
'0:00.422',1536.282
'0:00.426',1521.622
'0:00.430',1518.682
'0:00.434',1514.293
'0:00.438',1509.904
'0:00.441',1507.688
'0:00.445',1508.412
'0:00.449',1509.136
'0:00.453',1499.634
'0:00.457',1497.418
'0:00.461',1491.579
'0:00.465',1487.915
'0:00.469',1487.190
'0:00.473',1493.753
'0:00.477',1472.531
'0:00.480',1462.261
'0:00.484',1490.855
'0:00.488',1452.034
'0:00.492',1473.980
'0:00.496',1451.266
'0:00.500',1431.494
'0:00.504',1452.034
'0:00.508',1416.834
'0:00.512',1419.050
'0:00.516',1432.985
'0:00.520',1394.888
'0:00.523',1427.829
'0:00.527',1383.894
'0:00.531',1403.667
'0:00.535',1404.391
'0:00.539',1366.294
'0:00.543',1396.337
'0:00.547',1349.461
'0:00.551',1387.558
'0:00.555',1345.072
'0:00.559',1371.408
'0:00.563',1358.240
'0:00.566',1321.592
'0:00.570',1364.845
'0:00.574',1336.251
'0:00.578',1320.867
'0:00.582',1320.867
'0:00.586',1341.407
'0:00.590',1352.402
'0:00.594',1373.624
'0:00.598',1366.294
'0:00.602',1345.797
'0:00.605',1369.959
'0:00.609',1397.061
'0:00.613',1384.618
'0:00.617',1412.445
'0:00.621',1425.655
'0:00.625',1422.715
'0:00.629',1475.471
'0:00.633',1460.812
'0:00.637',1490.131
'0:00.641',1487.190
'0:00.645',1455.698
'0:00.648',1462.985
'0:00.652',1480.585
'0:00.656',1484.974
'0:00.660',1478.369
'0:00.664',1431.494
'0:00.668',1438.823
'0:00.672',1427.104
'0:00.676',1411.721
'0:00.680',1424.164
'0:00.684',1397.061
'0:00.688',1367.785
'0:00.691',1364.845
'0:00.695',1345.072
'0:00.699',1343.581
'0:00.703',1365.569
'0:00.707',1348.737
'0:00.711',1353.851
'0:00.715',1328.197
'0:00.719',1314.305
'0:00.723',1301.819
'0:00.727',1308.424
'0:00.730',1289.375
'0:00.734',1294.489
'0:00.738',1298.921
'0:00.742',1312.813
'0:00.746',1278.381
'0:00.750',1283.537
'0:00.754',1276.208
'0:00.758',1286.435
'0:00.762',1279.872
'0:00.766',1295.981
'0:00.770',1276.932
'0:00.773',1261.548
'0:00.777',1268.878
'0:00.781',1263.722
'0:00.785',1285.711
'0:00.789',1316.478
'0:00.793',1293.040
'0:00.797',1287.927
'0:00.801',1317.202
'0:00.805',1297.430
'0:00.809',1293.040
'0:00.813',1295.256
'0:00.816',1338.467
'0:00.820',1311.364
'0:00.824',1300.370
'0:00.828',1309.873
'0:00.832',1336.975
'0:00.836',1313.538
'0:00.840',1318.694
'0:00.844',1336.975
'0:00.848',1305.484
'0:00.852',1297.430
'0:00.855',1300.370
'0:00.859',1304.759
'0:00.863',1277.657
'0:00.867',1275.441
'0:00.871',1265.213
'0:00.875',1251.278
'0:00.879',1240.284
'0:00.883',1263.722
'0:00.887',1246.889
'0:00.891',1216.122
'0:00.895',1194.857
'0:00.898',1196.349
'0:00.902',1209.517
'0:00.906',1184.630
'0:00.910',1160.425
'0:00.914',1160.425
'0:00.918',1158.252
'0:00.922',1184.630
'0:00.926',1191.960
'0:00.930',1200.738
'0:00.934',1194.857
'0:00.938',1194.133
'0:00.941',1183.863
'0:00.945',1178.025
'0:00.949',1186.079
'0:00.953',1198.522
'0:00.957',1200.014
'0:00.961',1208.792
'0:00.965',1211.008
'0:00.969',1219.062
'0:00.973',1222.727
'0:00.977',1226.392
'0:00.980',1249.830
'0:00.984',1264.489
'0:00.988',1237.344
'0:00.992',1243.224
'0:00.996',1249.105
'0:01.000',1253.494
'0:01.004',1290.824
'0:01.008',1297.430
'0:01.012',1279.872
'0:01.016',1293.040
'0:01.020',1322.359
'0:01.023',1307.700
'0:01.027',1295.256
'0:01.031',1329.688
'0:01.035',1302.543
'0:01.039',1351.635
'0:01.043',1318.694
'0:01.047',1356.791
'0:01.051',1361.180
'0:01.055',1345.072
'0:01.059',1381.678
'0:01.063',1361.905
'0:01.066',1386.067
'0:01.070',1393.397
'0:01.074',1380.229
'0:01.078',1402.218
'0:01.082',1427.829
'0:01.086',1441.764
'0:01.090',1408.056
'0:01.094',1422.715
'0:01.098',1419.775
'0:01.102',1437.374
'0:01.105',1465.926
'0:01.109',1434.434
'0:01.113',1443.937
'0:01.117',1471.082
'0:01.121',1433.709
'0:01.125',1462.261
'0:01.129',1435.883
'0:01.133',1473.255
'0:01.137',1436.650
'0:01.141',1480.585
'0:01.145',1441.764
'0:01.148',1487.915
'0:01.152',1452.758
'0:01.156',1474.704
'0:01.160',1494.520
'0:01.164',1505.514
'0:01.168',1515.017
'0:01.172',1506.963
'0:01.176',1504.747
'0:01.180',1520.898
'0:01.184',1534.066
'0:01.188',1535.515
'0:01.191',1535.515
'0:01.195',1547.233
'0:01.199',1546.509
'0:01.203',1559.719
'0:01.207',1558.228
'0:01.211',1557.503
'0:01.215',1590.487
'0:01.219',1578.768
'0:01.223',1571.438
'0:01.227',1553.839
'0:01.230',1550.174
'0:01.234',1548.725
'0:01.238',1542.120
'0:01.242',1537.731
'0:01.246',1547.233
'0:01.250',1564.833
'0:01.254',1542.844
'0:01.258',1524.563
'0:01.262',1544.336
'0:01.266',1542.844
'0:01.270',1519.406
'0:01.273',1500.358
'0:01.277',1521.622
'0:01.281',1480.585
'0:01.285',1475.471
'0:01.289',1498.909
'0:01.293',1453.482
'0:01.297',1450.542
'0:01.301',1452.758
'0:01.305',1452.034
'0:01.309',1430.045
'0:01.313',1460.812
'0:01.316',1432.985
'0:01.320',1415.385
'0:01.324',1441.764
'0:01.328',1429.320
'0:01.332',1401.451
'0:01.336',1383.894
'0:01.340',1374.348
'0:01.344',1385.342
'0:01.348',1390.456
'0:01.352',1391.223
'0:01.355',1367.018
'0:01.359',1351.635
'0:01.363',1347.970
'0:01.367',1391.223
'0:01.371',1371.408
'0:01.375',1363.354
'0:01.379',1367.785
'0:01.383',1357.515
'0:01.387',1358.964
'0:01.391',1371.408
'0:01.395',1383.169
'0:01.398',1375.839
'0:01.402',1364.121
'0:01.406',1393.397
'0:01.410',1393.397
'0:01.414',1383.169
'0:01.418',1364.121
'0:01.422',1365.569
'0:01.426',1371.408
'0:01.430',1382.402
'0:01.434',1386.067
'0:01.438',1404.391
'0:01.441',1414.661
'0:01.445',1387.558
'0:01.449',1378.737
'0:01.453',1376.564
'0:01.457',1388.283
'0:01.461',1424.164
'0:01.465',1386.834
'0:01.469',1387.558
'0:01.473',1422.715
'0:01.477',1386.067
'0:01.480',1384.618
'0:01.484',1418.326
'0:01.488',1393.397
'0:01.492',1389.732
'0:01.496',1393.397
'0:01.500',1414.661
'0:01.504',1386.067
'0:01.508',1416.834
'0:01.512',1416.110
'0:01.516',1392.672
'0:01.520',1416.834
'0:01.523',1405.115
'0:01.527',1369.959
'0:01.531',1408.056
'0:01.535',1376.564
'0:01.539',1361.180
'0:01.543',1389.732
'0:01.547',1365.569
'0:01.551',1369.234
'0:01.555',1367.018
'0:01.559',1354.575
'0:01.563',1368.510
'0:01.566',1341.407
'0:01.570',1364.845
'0:01.574',1347.245
'0:01.578',1357.515
'0:01.582',1375.839
'0:01.586',1347.245
'0:01.590',1379.504
'0:01.594',1365.569
'0:01.598',1363.354
'0:01.602',1390.456
'0:01.605',1381.678
'0:01.609',1364.121
'0:01.613',1409.505
'0:01.617',1382.402
'0:01.621',1377.288
'0:01.625',1405.840
'0:01.629',1387.558
'0:01.633',1408.056
'0:01.637',1403.667
'0:01.641',1431.494
'0:01.645',1412.445
'0:01.648',1453.482
'0:01.652',1429.320
'0:01.656',1424.164
'0:01.660',1446.153
'0:01.664',1462.261
'0:01.668',1462.985
'0:01.672',1461.536
'0:01.676',1482.801
'0:01.680',1474.704
'0:01.684',1472.531
'0:01.688',1488.639
'0:01.691',1495.244
'0:01.695',1523.796
'0:01.699',1531.125
'0:01.703',1530.401
'0:01.707',1543.569
'0:01.711',1555.330
'0:01.715',1584.606
'0:01.719',1610.260
'0:01.723',1597.049
'0:01.727',1592.660
'0:01.730',1599.265
'0:01.734',1591.211
'0:01.738',1597.049
'0:01.742',1616.865
'0:01.746',1602.930
'0:01.750',1586.822
'0:01.754',1602.930
'0:01.758',1594.876
'0:01.762',1564.833
'0:01.766',1556.779
'0:01.770',1550.174
'0:01.773',1575.103
'0:01.777',1561.893
'0:01.781',1541.395
'0:01.785',1526.012
'0:01.789',1519.406
'0:01.793',1517.233
'0:01.797',1517.233
'0:01.801',1515.017
'0:01.805',1516.466
'0:01.809',1514.293
'0:01.813',1514.293
'0:01.816',1510.628
'0:01.820',1537.006
'0:01.824',1508.412
'0:01.828',1509.904
'0:01.832',1517.958
'0:01.836',1473.980
'0:01.840',1492.304
'0:01.844',1457.147
'0:01.848',1490.131
'0:01.852',1452.758
'0:01.855',1446.153
'0:01.859',1465.201
'0:01.863',1435.158
'0:01.867',1465.926
'0:01.871',1482.034
'0:01.875',1466.650
'0:01.879',1479.136
'0:01.883',1509.136
'0:01.887',1489.364
'0:01.891',1509.136
'0:01.895',1543.569
'0:01.898',1513.568
'0:01.902',1521.622
'0:01.906',1547.233
'0:01.910',1537.006
'0:01.914',1532.617
'0:01.918',1539.179
'0:01.922',1561.168
'0:01.926',1523.796
'0:01.930',1517.233
'0:01.934',1524.563
'0:01.938',1533.341
'0:01.941',1488.639
'0:01.945',1490.855
'0:01.949',1478.369
'0:01.953',1499.634
'0:01.957',1480.585
'0:01.961',1479.861
'0:01.965',1471.082
'0:01.969',1487.915
'0:01.973',1490.855
'0:01.977',1465.926
'0:01.980',1474.704
'0:01.984',1474.704
'0:01.988',1450.542
'0:01.992',1483.525
'0:01.996',1479.861
'0:02.000',1473.255
'0:02.004',1460.088
'0:02.008',1495.244
'0:02.012',1469.591
'0:02.016',1452.758
'0:02.020',1473.980
'0:02.023',1452.758
'0:02.027',1471.082
'0:02.031',1445.428
'0:02.035',1430.769
'0:02.039',1466.650
'0:02.043',1438.823
'0:02.047',1419.050
'0:02.051',1414.661
'0:02.055',1445.428
'0:02.059',1440.272
'0:02.063',1398.553
'0:02.066',1386.067
'0:02.070',1421.266
'0:02.074',1387.558
'0:02.078',1370.683
'0:02.082',1389.732
'0:02.086',1386.067
'0:02.090',1353.126
'0:02.094',1389.732
'0:02.098',1344.305
'0:02.102',1347.245
'0:02.105',1375.839
'0:02.109',1347.245
'0:02.113',1324.532
'0:02.117',1328.197
'0:02.121',1318.694
'0:02.125',1332.586
'0:02.129',1284.986
'0:02.133',1313.538
'0:02.137',1304.759
'0:02.141',1272.543
'0:02.145',1271.051
'0:02.148',1291.591
'0:02.152',1244.673
'0:02.156',1275.441
'0:02.160',1248.338
'0:02.164',1257.159
'0:02.168',1241.008
'0:02.172',1215.397
'0:02.176',1248.338
'0:02.180',1207.343
'0:02.184',1190.468
'0:02.188',1185.354
'0:02.191',1218.295
'0:02.195',1194.133
'0:02.199',1164.090
'0:02.203',1180.965
'0:02.207',1194.857
'0:02.211',1178.749
'0:02.215',1182.414
'0:02.219',1180.241
'0:02.223',1176.576
'0:02.227',1173.635
'0:02.230',1161.917
'0:02.234',1151.647
'0:02.238',1134.814
'0:02.242',1149.431
'0:02.246',1149.431
'0:02.250',1172.144
'0:02.254',1161.917
'0:02.258',1141.377
'0:02.262',1185.354
'0:02.266',1171.420
'0:02.270',1153.863
'0:02.273',1184.630
'0:02.277',1159.701
'0:02.281',1197.798
'0:02.285',1206.576
'0:02.289',1184.630
'0:02.293',1221.960
'0:02.297',1196.349
'0:02.301',1235.170
'0:02.305',1256.392
'0:02.309',1272.543
'0:02.313',1284.262
'0:02.316',1287.927
'0:02.320',1273.267
'0:02.324',1312.813
'0:02.328',1347.245
'0:02.332',1337.742
'0:02.336',1342.132
'0:02.340',1348.737
'0:02.344',1354.575
'0:02.348',1386.834
'0:02.352',1375.072
'0:02.355',1384.618
'0:02.359',1413.169
'0:02.363',1413.169
'0:02.367',1441.764
'0:02.371',1413.937
'0:02.375',1438.099
'0:02.379',1460.812
'0:02.383',1444.704
'0:02.387',1438.823
'0:02.391',1474.704
'0:02.395',1478.369
'0:02.398',1460.088
'0:02.402',1498.185
'0:02.406',1476.196
'0:02.410',1502.574
'0:02.414',1471.082
'0:02.418',1519.406
'0:02.422',1482.801
'0:02.426',1514.293
'0:02.430',1533.341
'0:02.434',1505.514
'0:02.438',1502.574
'0:02.441',1539.946
'0:02.445',1530.401
'0:02.449',1510.628
'0:02.453',1509.136
'0:02.457',1539.946
'0:02.461',1534.790
'0:02.465',1508.412
'0:02.469',1491.579
'0:02.473',1522.347
'0:02.477',1479.136
'0:02.480',1512.801
'0:02.484',1465.926
'0:02.488',1495.244
'0:02.492',1456.423
'0:02.496',1443.212
'0:02.500',1465.926
'0:02.504',1427.829
'0:02.508',1421.266
'0:02.512',1434.434
'0:02.516',1442.488
'0:02.520',1421.991
'0:02.523',1400.002
'0:02.527',1435.158
'0:02.531',1405.840
'0:02.535',1438.099
'0:02.539',1397.061
'0:02.543',1393.397
'0:02.547',1427.829
'0:02.551',1402.218
'0:02.555',1439.548
'0:02.559',1413.937
'0:02.563',1403.667
'0:02.566',1417.601
'0:02.570',1412.445
'0:02.574',1421.266
'0:02.578',1410.996
'0:02.582',1413.937
'0:02.586',1415.385
'0:02.590',1441.039
'0:02.594',1452.034
'0:02.598',1454.931
'0:02.602',1414.661
'0:02.605',1444.704
'0:02.609',1452.034
'0:02.613',1422.715
'0:02.617',1406.607
'0:02.621',1412.445
'0:02.625',1409.505
'0:02.629',1416.834
'0:02.633',1431.494
'0:02.637',1427.104
'0:02.641',1413.169
'0:02.645',1383.894
'0:02.648',1375.839
'0:02.652',1383.169
'0:02.656',1370.683
'0:02.660',1402.942
'0:02.664',1397.061
'0:02.668',1372.899
'0:02.672',1378.737
'0:02.676',1369.959
'0:02.680',1383.894
'0:02.684',1363.354
'0:02.688',1350.186
'0:02.691',1349.461
'0:02.695',1343.581
'0:02.699',1341.407
'0:02.703',1345.072
'0:02.707',1386.067
'0:02.711',1372.899
'0:02.715',1372.175
'0:02.719',1354.575
'0:02.723',1370.683
'0:02.727',1408.780
'0:02.730',1382.402
'0:02.734',1375.839
'0:02.738',1415.385
'0:02.742',1419.050
'0:02.746',1390.456
'0:02.750',1405.840
'0:02.754',1439.548
'0:02.758',1413.937
'0:02.762',1458.596
'0:02.766',1432.218
'0:02.770',1442.488
'0:02.773',1475.471
'0:02.777',1457.147
'0:02.781',1498.909
'0:02.785',1475.471
'0:02.789',1499.634
'0:02.793',1484.974
'0:02.797',1490.855
'0:02.801',1493.753
'0:02.805',1504.023
'0:02.809',1504.023
'0:02.813',1506.239
'0:02.816',1506.239
'0:02.820',1509.136
'0:02.824',1506.963
'0:02.828',1520.131
'0:02.832',1514.293
'0:02.836',1525.287
'0:02.840',1526.012
'0:02.844',1493.753
'0:02.848',1507.688
'0:02.852',1502.574
'0:02.855',1490.855
'0:02.859',1486.466
'0:02.863',1493.028
'0:02.867',1447.602
'0:02.871',1439.548
'0:02.875',1425.655
'0:02.879',1461.536
'0:02.883',1415.385
'0:02.887',1427.104
'0:02.891',1424.164
'0:02.895',1387.558
'0:02.898',1389.732
'0:02.902',1416.834
'0:02.906',1386.834
'0:02.910',1380.953
'0:02.914',1395.612
'0:02.918',1414.661
'0:02.922',1405.840
'0:02.926',1391.223
'0:02.930',1396.337
'0:02.934',1413.937
'0:02.938',1438.099
'0:02.941',1429.320
'0:02.945',1437.374
'0:02.949',1432.218
'0:02.953',1422.715
'0:02.957',1459.321
'0:02.961',1457.872
'0:02.965',1450.542
'0:02.969',1454.931
'0:02.973',1452.034
'0:02.977',1429.320
'0:02.980',1432.985
'0:02.984',1441.039
'0:02.988',1450.542
'0:02.992',1431.494
'0:02.996',1457.147
'0:03.000',1451.266
'0:03.004',1446.877
'0:03.008',1452.758
'0:03.012',1424.164
'0:03.016',1402.218
'0:03.020',1403.667
'0:03.023',1408.056
'0:03.027',1391.948
'0:03.031',1386.834
'0:03.035',1384.618
'0:03.039',1393.397
'0:03.043',1383.894
'0:03.047',1385.342
'0:03.051',1383.169
'0:03.055',1381.678
'0:03.059',1383.894
'0:03.063',1375.072
'0:03.066',1383.894
'0:03.070',1389.732
'0:03.074',1388.283
'0:03.078',1386.067
'0:03.082',1372.175
'0:03.086',1358.240
'0:03.090',1356.024
'0:03.094',1359.689
'0:03.098',1367.018
'0:03.102',1380.953
'0:03.105',1391.223
'0:03.109',1367.018
'0:03.113',1358.240
'0:03.117',1381.678
'0:03.121',1394.888
'0:03.125',1403.667
'0:03.129',1397.786
'0:03.133',1364.845
'0:03.137',1370.683
'0:03.141',1364.845
'0:03.145',1380.953
'0:03.148',1400.726
'0:03.152',1399.277
'0:03.156',1366.294
'0:03.160',1353.851
'0:03.164',1359.689
'0:03.168',1372.899
'0:03.172',1384.618
'0:03.176',1345.797
'0:03.180',1344.305
'0:03.184',1346.521
'0:03.188',1379.504
'0:03.191',1374.348
'0:03.195',1336.975
'0:03.199',1338.467
'0:03.203',1342.132
'0:03.207',1375.839
'0:03.211',1375.839
'0:03.215',1383.169
'0:03.219',1342.132
'0:03.223',1355.299
'0:03.227',1353.851
'0:03.230',1358.240
'0:03.234',1367.018
'0:03.238',1380.229
'0:03.242',1417.601
'0:03.246',1426.380
'0:03.250',1430.045
'0:03.254',1438.099
'0:03.258',1427.104
'0:03.262',1425.655
'0:03.266',1443.212
'0:03.270',1431.494
'0:03.273',1424.164
'0:03.277',1434.434
'0:03.281',1440.272
'0:03.285',1434.434
'0:03.289',1423.439
'0:03.293',1420.499
'0:03.297',1446.153
'0:03.301',1475.471
'0:03.305',1465.201
'0:03.309',1470.315
'0:03.313',1476.920
'0:03.316',1526.012
'0:03.320',1518.682
'0:03.324',1556.779
'0:03.328',1561.893
'0:03.332',1544.336
'0:03.336',1567.049
'0:03.340',1567.049
'0:03.344',1605.871
'0:03.348',1593.427
'0:03.352',1572.887
'0:03.355',1574.379
'0:03.359',1568.498
'0:03.363',1602.206
'0:03.367',1560.444
'0:03.371',1591.936
'0:03.375',1548.725
'0:03.379',1551.665
'0:03.383',1578.768
'0:03.387',1536.282
'0:03.391',1540.671
'0:03.395',1566.282
'0:03.398',1532.617
'0:03.402',1522.347
'0:03.406',1533.341
'0:03.410',1531.850
'0:03.414',1534.066
'0:03.418',1526.736
'0:03.422',1504.747
'0:03.426',1484.974
'0:03.430',1488.639
'0:03.434',1502.574
'0:03.438',1495.969
'0:03.441',1509.904
'0:03.445',1471.806
'0:03.449',1482.034
'0:03.453',1454.931
'0:03.457',1449.093
'0:03.461',1445.428
'0:03.465',1443.937
'0:03.469',1441.764
'0:03.473',1442.488
'0:03.477',1451.266
'0:03.480',1454.207
'0:03.484',1446.877
'0:03.488',1484.250
'0:03.492',1453.482
'0:03.496',1488.639
'0:03.500',1456.423
'0:03.504',1490.855
'0:03.508',1448.369
'0:03.512',1490.855
'0:03.516',1460.088
'0:03.520',1450.542
'0:03.523',1454.931
'0:03.527',1473.255
'0:03.531',1474.704
'0:03.535',1465.201
'0:03.539',1441.039
'0:03.543',1430.769
'0:03.547',1417.601
'0:03.551',1416.110
'0:03.555',1405.840
'0:03.559',1398.553
'0:03.563',1394.121
'0:03.566',1405.840
'0:03.570',1406.607
'0:03.574',1374.348
'0:03.578',1365.569
'0:03.582',1367.785
'0:03.586',1360.456
'0:03.590',1348.737
'0:03.594',1356.791
'0:03.598',1353.851
'0:03.602',1361.905
'0:03.605',1329.688
'0:03.609',1345.072
'0:03.613',1339.191
'0:03.617',1302.543
'0:03.621',1299.645
'0:03.625',1296.705
'0:03.629',1306.975
'0:03.633',1323.083
'0:03.637',1288.651
'0:03.641',1306.208
'0:03.645',1275.441
'0:03.648',1285.711
'0:03.652',1318.694
'0:03.656',1284.986
'0:03.660',1273.992
'0:03.664',1312.813
'0:03.668',1276.208
'0:03.672',1312.089
'0:03.676',1303.310
'0:03.680',1301.094
'0:03.684',1289.375
'0:03.688',1335.527
'0:03.691',1294.489
'0:03.695',1339.191
'0:03.699',1327.472
'0:03.703',1322.359
'0:03.707',1323.808
'0:03.711',1350.910
'0:03.715',1378.013
'0:03.719',1348.737
'0:03.723',1369.959
'0:03.727',1383.169
'0:03.730',1369.234
'0:03.734',1416.834
'0:03.738',1385.342
'0:03.742',1401.451
'0:03.746',1419.775
'0:03.750',1405.115
'0:03.754',1429.320
'0:03.758',1443.937
'0:03.762',1431.494
'0:03.766',1443.937
'0:03.770',1454.207
'0:03.773',1476.920
'0:03.777',1509.136
'0:03.781',1491.579
'0:03.785',1485.699
'0:03.789',1500.358
'0:03.793',1506.963
'0:03.797',1524.563
'0:03.801',1509.904
'0:03.805',1523.796
'0:03.809',1553.839
'0:03.813',1530.401
'0:03.816',1544.336
'0:03.820',1523.796
'0:03.824',1550.898
'0:03.828',1527.461
'0:03.832',1570.714
'0:03.836',1537.731
'0:03.840',1559.719
'0:03.844',1540.671
'0:03.848',1548.001
'0:03.852',1588.995
'0:03.855',1592.660
'0:03.859',1557.503
'0:03.863',1584.606
'0:03.867',1572.887
'0:03.871',1600.714
'0:03.875',1613.200
'0:03.879',1578.768
'0:03.883',1614.649
'0:03.887',1585.331
'0:03.891',1616.865
'0:03.895',1586.098
'0:03.898',1591.936
'0:03.902',1617.589
'0:03.906',1620.530
'0:03.910',1579.492
'0:03.914',1575.828
'0:03.918',1575.828
'0:03.922',1602.930
'0:03.926',1572.887
'0:03.930',1557.503
'0:03.934',1577.276
'0:03.938',1535.515
'0:03.941',1563.384
'0:03.945',1556.055
'0:03.949',1504.747
'0:03.953',1515.017
'0:03.957',1501.082
'0:03.961',1470.315
'0:03.965',1463.752
'0:03.969',1471.082
'0:03.973',1476.920
'0:03.977',1477.645
'0:03.980',1467.417
'0:03.984',1465.201
'0:03.988',1439.548
'0:03.992',1434.434
'0:03.996',1411.721
'0:04.000',1416.110
'0:04.004',1406.607
'0:04.008',1400.002
'0:04.012',1403.667
'0:04.016',1392.672
'0:04.020',1402.942
'0:04.023',1410.996
'0:04.027',1389.007
'0:04.031',1406.607
'0:04.035',1408.780
'0:04.039',1414.661
'0:04.043',1387.558
'0:04.047',1367.018
'0:04.051',1385.342
'0:04.055',1357.515
'0:04.059',1348.737
'0:04.063',1350.910
'0:04.066',1346.521
'0:04.070',1367.018
'0:04.074',1331.862
'0:04.078',1316.478
'0:04.082',1323.808
'0:04.086',1299.645
'0:04.090',1331.137
'0:04.094',1287.927
'0:04.098',1289.375
'0:04.102',1316.478
'0:04.105',1274.716
'0:04.109',1273.267
'0:04.113',1284.986
'0:04.117',1254.943
'0:04.121',1241.775
'0:04.125',1253.494
'0:04.129',1265.213
'0:04.133',1257.159
'0:04.137',1219.062
'0:04.141',1216.846
'0:04.145',1206.576
'0:04.148',1231.505
'0:04.152',1222.727
'0:04.156',1177.300
'0:04.160',1161.192
'0:04.164',1191.193
'0:04.168',1179.474
'0:04.172',1175.809
'0:04.176',1137.712
'0:04.180',1142.144
'0:04.184',1135.538
'0:04.188',1164.814
'0:04.191',1160.425
'0:04.195',1155.311
'0:04.199',1156.760
'0:04.203',1169.971
'0:04.207',1178.749
'0:04.211',1194.857
'0:04.215',1205.852
'0:04.219',1226.392
'0:04.223',1244.673
'0:04.227',1290.100
'0:04.230',1298.921
'0:04.234',1287.927
'0:04.238',1342.856
'0:04.242',1319.418
'0:04.246',1347.970
'0:04.250',1364.845
'0:04.254',1393.397
'0:04.258',1437.374
'0:04.262',1413.169
'0:04.266',1435.158
'0:04.270',1448.369
'0:04.273',1469.591
'0:04.277',1495.244
'0:04.281',1507.688
'0:04.285',1519.406
'0:04.289',1523.796
'0:04.293',1533.341
'0:04.297',1555.330
'0:04.301',1586.098
'0:04.305',1553.114
'0:04.309',1590.487
'0:04.313',1575.828
'0:04.316',1559.719
'0:04.320',1575.103
'0:04.324',1553.114
'0:04.328',1583.882
'0:04.332',1542.120
'0:04.336',1572.887
'0:04.340',1540.671
'0:04.344',1556.779
'0:04.348',1515.017
'0:04.352',1544.336
'0:04.355',1518.682
'0:04.359',1493.753
'0:04.363',1503.298
'0:04.367',1485.699
'0:04.371',1489.364
'0:04.375',1476.920
'0:04.379',1462.985
'0:04.383',1441.764
'0:04.387',1472.531
'0:04.391',1465.926
'0:04.395',1436.650
'0:04.398',1446.877
'0:04.402',1453.482
'0:04.406',1454.207
'0:04.410',1440.272
'0:04.414',1463.752
'0:04.418',1447.602
'0:04.422',1435.158
'0:04.426',1451.266
'0:04.430',1465.201
'0:04.434',1423.439
'0:04.438',1418.326
'0:04.441',1430.045
'0:04.445',1454.207
'0:04.449',1432.985
'0:04.453',1411.721
'0:04.457',1430.769
'0:04.461',1439.548
'0:04.465',1418.326
'0:04.469',1401.451
'0:04.473',1400.726
'0:04.477',1413.937
'0:04.480',1432.985
'0:04.484',1394.888
'0:04.488',1407.331
'0:04.492',1429.320
'0:04.496',1407.331
'0:04.500',1388.283
'0:04.504',1394.121
'0:04.508',1426.380
'0:04.512',1402.942
'0:04.516',1386.834
'0:04.520',1397.061
'0:04.523',1424.164
'0:04.527',1408.780
'0:04.531',1406.607
'0:04.535',1397.061
'0:04.539',1388.283
'0:04.543',1397.061
'0:04.547',1399.277
'0:04.551',1397.786
'0:04.555',1416.834
'0:04.559',1393.397
'0:04.563',1386.067
'0:04.566',1383.894
'0:04.570',1380.953
'0:04.574',1392.672
'0:04.578',1391.948
'0:04.582',1390.456
'0:04.586',1371.408
'0:04.590',1366.294
'0:04.594',1372.175
'0:04.598',1361.180
'0:04.602',1354.575
'0:04.605',1349.461
'0:04.609',1357.515
'0:04.613',1341.407
'0:04.617',1341.407
'0:04.621',1353.126
'0:04.625',1324.532
'0:04.629',1316.478
'0:04.633',1315.029
'0:04.637',1314.305
'0:04.641',1326.748
'0:04.645',1347.970
'0:04.648',1350.910
'0:04.652',1350.910
'0:04.656',1330.413
'0:04.660',1328.197
'0:04.664',1325.257
'0:04.668',1331.137
'0:04.672',1336.975
'0:04.676',1333.353
'0:04.680',1338.467
'0:04.684',1348.737
'0:04.688',1387.558
'0:04.691',1389.007
'0:04.695',1375.839
'0:04.699',1389.732
'0:04.703',1372.175
'0:04.707',1364.121
'0:04.711',1360.456
'0:04.715',1383.894
'0:04.719',1360.456
'0:04.723',1338.467
'0:04.727',1353.851
'0:04.730',1370.683
'0:04.734',1348.737
'0:04.738',1317.970
'0:04.742',1316.478
'0:04.746',1312.813
'0:04.750',1320.867
'0:04.754',1332.586
'0:04.758',1334.078
'0:04.762',1346.521
'0:04.766',1370.683
'0:04.770',1364.121
'0:04.773',1385.342
'0:04.777',1387.558
'0:04.781',1400.002
'0:04.785',1402.218
'0:04.789',1372.899
'0:04.793',1370.683
'0:04.797',1372.175
'0:04.801',1372.899
'0:04.805',1374.348
'0:04.809',1388.283
'0:04.813',1401.451
'0:04.816',1406.607
'0:04.820',1399.277
'0:04.824',1391.223
'0:04.828',1364.845
'0:04.832',1341.407
'0:04.836',1364.121
'0:04.840',1331.862
'0:04.844',1334.802
'0:04.848',1336.975
'0:04.852',1359.689
'0:04.855',1341.407
'0:04.859',1308.424
'0:04.863',1340.640
'0:04.867',1298.921
'0:04.871',1331.137
'0:04.875',1304.035
'0:04.879',1329.688
'0:04.883',1315.754
'0:04.887',1290.100
'0:04.891',1287.927
'0:04.895',1310.640
'0:04.898',1310.640
'0:04.902',1298.154
'0:04.906',1284.986
'0:04.910',1308.424
'0:04.914',1281.321
'0:04.918',1274.716
'0:04.922',1275.441
'0:04.926',1305.484
'0:04.930',1282.770
'0:04.934',1266.662
'0:04.938',1282.046
'0:04.941',1306.208
'0:04.945',1269.602
'0:04.949',1306.975
'0:04.953',1271.051
'0:04.957',1306.208
'0:04.961',1279.872
'0:04.965',1308.424
'0:04.969',1277.657
'0:04.973',1304.035
'0:04.977',1274.716
'0:04.980',1285.711
'0:04.984',1280.597
'0:04.988',1284.986
'0:04.992',1288.651
'0:04.996',1295.981
'0:05.000',1296.705
'0:05.004',1336.975
'0:05.008',1335.527
'0:05.012',1304.035
'0:05.016',1297.430
'0:05.020',1334.078
'0:05.023',1335.527
'0:05.027',1320.143
'0:05.031',1306.975
'0:05.035',1285.711
'0:05.039',1279.105
'0:05.043',1313.538
'0:05.047',1298.154
'0:05.051',1273.992
'0:05.055',1279.872
'0:05.059',1252.727
'0:05.063',1237.344
'0:05.066',1225.625
'0:05.070',1224.900
'0:05.074',1244.673
'0:05.078',1200.014
'0:05.082',1223.451
'0:05.086',1224.176
'0:05.090',1178.749
'0:05.094',1213.906
'0:05.098',1178.749
'0:05.102',1175.084
'0:05.105',1156.036
'0:05.109',1176.576
'0:05.113',1127.484
'0:05.117',1161.917
'0:05.121',1134.814
'0:05.125',1120.879
'0:05.129',1128.209
'0:05.133',1123.820
'0:05.137',1085.723
'0:05.141',1067.398
'0:05.145',1088.663
'0:05.148',1066.674
'0:05.152',1046.901
'0:05.156',1029.301
'0:05.160',1044.685
'0:05.164',1059.344
'0:05.168',1058.620
'0:05.172',1051.290
'0:05.176',1030.750
'0:05.180',1034.415
'0:05.184',1018.307
'0:05.188',1054.231
'0:05.191',1071.788
'0:05.195',1063.734
'0:05.199',1050.566
'0:05.203',1052.015
'0:05.207',1107.711
'0:05.211',1082.058
'0:05.215',1123.095
'0:05.219',1147.257
'0:05.223',1122.328
'0:05.227',1159.701
'0:05.230',1150.198
'0:05.234',1164.814
'0:05.238',1181.690
'0:05.242',1201.463
'0:05.246',1211.733
'0:05.250',1223.451
'0:05.254',1249.830
'0:05.258',1285.711
'0:05.262',1282.046
'0:05.266',1288.651
'0:05.270',1315.754
'0:05.273',1285.711
'0:05.277',1328.921
'0:05.281',1336.251
'0:05.285',1337.742
'0:05.289',1339.191
'0:05.293',1315.029
'0:05.297',1332.586
'0:05.301',1366.294
'0:05.305',1340.640
'0:05.309',1356.791
'0:05.313',1383.169
'0:05.316',1361.905
'0:05.320',1402.218
'0:05.324',1389.732
'0:05.328',1389.732
'0:05.332',1435.158
'0:05.336',1412.445
'0:05.340',1449.093
'0:05.344',1432.985
'0:05.348',1439.548
'0:05.352',1446.153
'0:05.355',1471.806
'0:05.359',1454.931
'0:05.363',1493.753
'0:05.367',1464.477
'0:05.371',1470.315
'0:05.375',1500.358
'0:05.379',1478.369
'0:05.383',1471.806
'0:05.387',1493.753
'0:05.391',1469.591
'0:05.395',1500.358
'0:05.398',1471.082
'0:05.402',1500.358
'0:05.406',1482.034
'0:05.410',1494.520
'0:05.414',1484.250
'0:05.418',1490.855
'0:05.422',1493.753
'0:05.426',1501.082
'0:05.430',1513.568
'0:05.434',1513.568
'0:05.438',1521.622
'0:05.441',1533.341
'0:05.445',1540.671
'0:05.449',1556.055
'0:05.453',1594.152
'0:05.457',1593.427
'0:05.461',1592.660
'0:05.465',1594.152
'0:05.469',1603.655
'0:05.473',1643.968
'0:05.477',1631.482
'0:05.480',1651.297
'0:05.484',1676.184
'0:05.488',1656.411
'0:05.492',1677.675
'0:05.496',1683.513
'0:05.500',1685.729
'0:05.504',1681.298
'0:05.508',1693.059
'0:05.512',1682.065
'0:05.516',1684.238
'0:05.520',1707.676
'0:05.523',1709.892
'0:05.527',1694.508
'0:05.531',1702.562
'0:05.535',1691.568
'0:05.539',1672.519
'0:05.543',1652.746
'0:05.547',1649.081
'0:05.551',1651.297
'0:05.555',1626.368
'0:05.559',1619.038
'0:05.563',1608.811
'0:05.566',1602.206
'0:05.570',1588.995
'0:05.574',1594.152
'0:05.578',1597.049
'0:05.582',1577.276
'0:05.586',1556.779
'0:05.590',1542.120
'0:05.594',1534.066
'0:05.598',1523.796
'0:05.602',1527.461
'0:05.605',1512.801
'0:05.609',1533.341
'0:05.613',1497.418
'0:05.617',1486.466
'0:05.621',1465.201
'0:05.625',1476.920
'0:05.629',1449.818
'0:05.633',1431.494
'0:05.637',1457.872
'0:05.641',1420.499
'0:05.645',1414.661
'0:05.648',1410.996
'0:05.652',1393.397
'0:05.656',1388.283
'0:05.660',1372.899
'0:05.664',1361.905
'0:05.668',1353.851
'0:05.672',1349.461
'0:05.676',1372.175
'0:05.680',1345.072
'0:05.684',1323.808
'0:05.688',1317.202
'0:05.691',1331.862
'0:05.695',1346.521
'0:05.699',1308.424
'0:05.703',1298.154
'0:05.707',1303.310
'0:05.711',1326.024
'0:05.715',1306.975
'0:05.719',1306.975
'0:05.723',1334.078
'0:05.727',1304.759
'0:05.730',1298.154
'0:05.734',1312.089
'0:05.738',1326.024
'0:05.742',1333.353
'0:05.746',1344.305
'0:05.750',1336.251
'0:05.754',1351.635
'0:05.758',1370.683
'0:05.762',1374.348
'0:05.766',1381.678
'0:05.770',1383.894
'0:05.773',1386.834
'0:05.777',1414.661
'0:05.781',1402.218
'0:05.785',1411.721
'0:05.789',1410.996
'0:05.793',1412.445
'0:05.797',1419.775
'0:05.801',1427.104
'0:05.805',1439.548
'0:05.809',1480.585
'0:05.813',1447.602
'0:05.816',1492.304
'0:05.820',1460.812
'0:05.824',1476.920
'0:05.828',1482.034
'0:05.832',1501.082
'0:05.836',1468.866
'0:05.840',1481.309
'0:05.844',1506.239
'0:05.848',1467.417
'0:05.852',1504.747
'0:05.855',1487.915
'0:05.859',1472.531
'0:05.863',1479.861
'0:05.867',1473.255
'0:05.871',1499.634
'0:05.875',1463.752
'0:05.879',1457.872
'0:05.883',1466.650
'0:05.887',1488.639
'0:05.891',1462.261
'0:05.895',1466.650
'0:05.898',1454.931
'0:05.902',1471.082
'0:05.906',1470.315
'0:05.910',1462.985
'0:05.914',1482.801
'0:05.918',1484.250
'0:05.922',1472.531
'0:05.926',1497.418
'0:05.930',1482.801
'0:05.934',1503.298
'0:05.938',1484.250
'0:05.941',1511.352
'0:05.945',1504.747
'0:05.949',1498.909
'0:05.953',1522.347
'0:05.957',1531.850
'0:05.961',1500.358
'0:05.965',1498.185
'0:05.969',1513.568
'0:05.973',1512.801
'0:05.977',1517.958
'0:05.980',1498.909
'0:05.984',1501.082
'0:05.988',1523.071
'0:05.992',1500.358
'0:05.996',1534.066
'0:06.000',1507.688
'0:06.004',1533.341
'0:06.008',1499.634
'0:06.012',1518.682
'0:06.016',1503.298
'0:06.020',1495.244
'0:06.023',1522.347
'0:06.027',1498.909
'0:06.031',1534.066
'0:06.035',1496.693
'0:06.039',1515.017
'0:06.043',1534.790
'0:06.047',1497.418
'0:06.051',1501.082
'0:06.055',1498.185
'0:06.059',1493.753
'0:06.063',1492.304
'0:06.066',1488.639
'0:06.070',1487.190
'0:06.074',1502.574
'0:06.078',1482.801
'0:06.082',1515.742
'0:06.086',1478.369
'0:06.090',1504.747
'0:06.094',1477.645
'0:06.098',1466.650
'0:06.102',1471.082
'0:06.105',1465.926
'0:06.109',1456.423
'0:06.113',1457.872
'0:06.117',1482.801
'0:06.121',1475.471
'0:06.125',1465.926
'0:06.129',1461.536
'0:06.133',1451.266
'0:06.137',1468.866
'0:06.141',1462.985
'0:06.145',1484.250
'0:06.148',1459.321
'0:06.152',1473.980
'0:06.156',1462.985
'0:06.160',1466.650
'0:06.164',1444.704
'0:06.168',1476.196
'0:06.172',1457.872
'0:06.176',1432.218
'0:06.180',1449.093
'0:06.184',1435.883
'0:06.188',1421.991
'0:06.191',1443.212
'0:06.195',1428.553
'0:06.199',1405.840
'0:06.203',1408.056
'0:06.207',1421.266
'0:06.211',1432.218
'0:06.215',1427.829
'0:06.219',1399.277
'0:06.223',1403.667
'0:06.227',1407.331
'0:06.230',1402.942
'0:06.234',1390.456
'0:06.238',1400.726
'0:06.242',1436.650
'0:06.246',1404.391
'0:06.250',1419.050
'0:06.254',1427.104
'0:06.258',1409.505
'0:06.262',1439.548
'0:06.266',1416.834
'0:06.270',1453.482
'0:06.273',1454.207
'0:06.277',1456.423
'0:06.281',1448.369
'0:06.285',1482.034
'0:06.289',1450.542
'0:06.293',1450.542
'0:06.297',1470.315
'0:06.301',1452.758
'0:06.305',1451.266
'0:06.309',1432.985
'0:06.313',1465.201
'0:06.316',1424.888
'0:06.320',1438.823
'0:06.324',1419.775
'0:06.328',1399.277
'0:06.332',1427.829
'0:06.336',1410.996
'0:06.340',1381.678
'0:06.344',1363.354
'0:06.348',1377.288
'0:06.352',1388.283
'0:06.355',1372.899
'0:06.359',1350.186
'0:06.363',1353.851
'0:06.367',1330.413
'0:06.371',1344.305
'0:06.375',1358.964
'0:06.379',1334.078
'0:06.383',1307.700
'0:06.387',1301.819
'0:06.391',1327.472
'0:06.395',1306.208
'0:06.398',1314.305
'0:06.402',1329.688
'0:06.406',1295.256
'0:06.410',1282.770
'0:06.414',1302.543
'0:06.418',1320.867
'0:06.422',1320.867
'0:06.426',1300.370
'0:06.430',1304.759
'0:06.434',1333.353
'0:06.438',1308.424
'0:06.441',1308.424
'0:06.445',1317.970
'0:06.449',1318.694
'0:06.453',1324.532
'0:06.457',1328.921
'0:06.461',1334.802
'0:06.465',1347.970
'0:06.469',1348.737
'0:06.473',1358.964
'0:06.477',1353.851
'0:06.480',1350.910
'0:06.484',1351.635
'0:06.488',1344.305
'0:06.492',1359.689
'0:06.496',1345.072
'0:06.500',1357.515
'0:06.504',1349.461
'0:06.508',1359.689
'0:06.512',1355.299
'0:06.516',1332.586
'0:06.520',1333.353
'0:06.523',1328.197
'0:06.527',1312.813
'0:06.531',1302.543
'0:06.535',1299.645
'0:06.539',1306.975
'0:06.543',1323.083
'0:06.547',1273.992
'0:06.551',1265.938
'0:06.555',1298.921
'0:06.559',1265.938
'0:06.563',1235.170
'0:06.566',1270.327
'0:06.570',1227.116
'0:06.574',1216.846
'0:06.578',1241.008
'0:06.582',1193.408
'0:06.586',1219.787
'0:06.590',1186.079
'0:06.594',1181.690
'0:06.598',1207.343
'0:06.602',1187.528
'0:06.605',1167.755
'0:06.609',1193.408
'0:06.613',1190.468
'0:06.617',1169.246
'0:06.621',1204.403
'0:06.625',1163.365
'0:06.629',1194.133
'0:06.633',1183.138
'0:06.637',1181.690
'0:06.641',1211.733
'0:06.645',1202.187
'0:06.648',1197.073
'0:06.652',1243.949
'0:06.656',1209.517
'0:06.660',1240.284
'0:06.664',1265.938
'0:06.668',1244.673
'0:06.672',1301.094
'0:06.676',1273.992
'0:06.680',1326.748
'0:06.684',1325.257
'0:06.688',1309.873
'0:06.691',1332.586
'0:06.695',1348.737
'0:06.699',1369.234
'0:06.703',1391.223
'0:06.707',1399.277
'0:06.711',1403.667
'0:06.715',1396.337
'0:06.719',1405.115
'0:06.723',1421.991
'0:06.727',1461.536
'0:06.730',1439.548
'0:06.734',1451.266
'0:06.738',1456.423
'0:06.742',1464.477
'0:06.746',1498.909
'0:06.750',1472.531
'0:06.754',1470.315
'0:06.758',1503.298
'0:06.762',1477.645
'0:06.766',1482.801
'0:06.770',1500.358
'0:06.773',1495.969
'0:06.777',1486.466
'0:06.781',1471.806
'0:06.785',1496.693
'0:06.789',1493.028
'0:06.793',1468.866
'0:06.797',1487.915
'0:06.801',1476.196
'0:06.805',1460.088
'0:06.809',1434.434
'0:06.813',1450.542
'0:06.816',1435.158
'0:06.820',1414.661
'0:06.824',1428.553
'0:06.828',1400.002
'0:06.832',1398.553
'0:06.836',1424.164
'0:06.840',1417.601
'0:06.844',1386.067
'0:06.848',1379.504
'0:06.852',1393.397
'0:06.855',1356.791
'0:06.859',1388.283
'0:06.863',1362.629
'0:06.867',1345.072
'0:06.871',1350.186
'0:06.875',1342.132
'0:06.879',1331.137
'0:06.883',1331.137
'0:06.887',1335.527
'0:06.891',1329.688
'0:06.895',1319.418
'0:06.898',1325.257
'0:06.902',1331.137
'0:06.906',1319.418
'0:06.910',1317.202
'0:06.914',1320.143
'0:06.918',1315.754
'0:06.922',1312.813
'0:06.926',1313.538
'0:06.930',1319.418
'0:06.934',1318.694
'0:06.938',1323.808
'0:06.941',1336.975
'0:06.945',1361.180
'0:06.949',1339.916
'0:06.953',1331.862
'0:06.957',1361.905
'0:06.961',1337.742
'0:06.965',1329.688
'0:06.969',1345.072
'0:06.973',1345.072
'0:06.977',1364.845
'0:06.980',1361.180
'0:06.984',1349.461
'0:06.988',1350.910
'0:06.992',1339.191
'0:06.996',1310.640
'0:07.000',1308.424
'0:07.004',1307.700
'0:07.008',1315.029
'0:07.012',1342.132
'0:07.016',1353.851
'0:07.020',1316.478
'0:07.023',1319.418
'0:07.027',1342.856
'0:07.031',1336.251
'0:07.035',1334.078
'0:07.039',1348.737
'0:07.043',1345.072
'0:07.047',1337.742
'0:07.051',1345.072
'0:07.055',1384.618
'0:07.059',1361.180
'0:07.063',1361.180
'0:07.066',1400.726
'0:07.070',1383.169
'0:07.074',1362.629
'0:07.078',1393.397
'0:07.082',1389.007
'0:07.086',1355.299
'0:07.090',1384.618
'0:07.094',1355.299
'0:07.098',1346.521
'0:07.102',1358.240
'0:07.105',1353.126
'0:07.109',1323.083
'0:07.113',1318.694
'0:07.117',1345.797
'0:07.121',1331.862
'0:07.125',1315.029
'0:07.129',1281.321
'0:07.133',1282.046
'0:07.137',1279.872
'0:07.141',1267.387
'0:07.145',1219.062
'0:07.148',1220.511
'0:07.152',1230.057
'0:07.156',1191.193
'0:07.160',1180.241
'0:07.164',1186.803
'0:07.168',1132.598
'0:07.172',1152.371
'0:07.176',1116.490
'0:07.180',1096.717
'0:07.184',1093.052
'0:07.188',1100.382
'0:07.191',1082.782
'0:07.195',1068.123
'0:07.199',1052.015
'0:07.203',1027.086
'0:07.207',1013.918
'0:07.211',967.042
'0:07.215',955.323
'0:07.219',984.599
'0:07.223',935.550
'0:07.227',946.502
'0:07.230',953.832
'0:07.234',916.502
'0:07.238',953.832
'0:07.242',915.735
'0:07.246',945.053
'0:07.250',932.610
'0:07.254',939.940
'0:07.258',931.886
'0:07.262',961.161
'0:07.266',989.756
'0:07.270',1002.199
'0:07.273',1014.642
'0:07.277',1030.750
'0:07.281',1032.966
'0:07.285',1028.577
'0:07.289',1074.728
'0:07.293',1086.447
'0:07.297',1132.598
'0:07.301',1109.885
'0:07.305',1151.647
'0:07.309',1194.857
'0:07.313',1176.576
'0:07.316',1191.193
'0:07.320',1247.614
'0:07.324',1250.554
'0:07.328',1249.105
'0:07.332',1276.932
'0:07.336',1299.645
'0:07.340',1271.776
'0:07.344',1287.160
'0:07.348',1306.208
'0:07.352',1306.975
'0:07.355',1285.711
'0:07.359',1304.759
'0:07.363',1317.202
'0:07.367',1313.538
'0:07.371',1311.364
'0:07.375',1300.370
'0:07.379',1282.046
'0:07.383',1247.614
'0:07.387',1238.111
'0:07.391',1251.278
'0:07.395',1249.105
'0:07.398',1223.451
'0:07.402',1248.338
'0:07.406',1206.576
'0:07.410',1202.187
'0:07.414',1210.241
'0:07.418',1227.116
'0:07.422',1243.949
'0:07.426',1234.446
'0:07.430',1206.576
'0:07.434',1214.673
'0:07.438',1213.906
'0:07.441',1219.062
'0:07.445',1241.008
'0:07.449',1252.003
'0:07.453',1252.727
'0:07.457',1266.662
'0:07.461',1262.273
'0:07.465',1271.051
'0:07.469',1275.441
'0:07.473',1287.160
'0:07.477',1295.981
'0:07.480',1331.137
'0:07.484',1335.527
'0:07.488',1348.737
'0:07.492',1352.402
'0:07.496',1356.791
'0:07.500',1344.305
'0:07.504',1369.234
'0:07.508',1401.451
'0:07.512',1374.348
'0:07.516',1385.342
'0:07.520',1420.499
'0:07.523',1411.721
'0:07.527',1410.996
'0:07.531',1412.445
'0:07.535',1419.050
'0:07.539',1415.385
'0:07.543',1419.050
'0:07.547',1449.093
'0:07.551',1414.661
'0:07.555',1452.034
'0:07.559',1413.169
'0:07.563',1434.434
'0:07.566',1448.369
'0:07.570',1412.445
'0:07.574',1443.212
'0:07.578',1429.320
'0:07.582',1453.482
'0:07.586',1419.050
'0:07.590',1425.655
'0:07.594',1445.428
'0:07.598',1416.110
'0:07.602',1457.147
'0:07.605',1419.775
'0:07.609',1433.709
'0:07.613',1442.488
'0:07.617',1476.196
'0:07.621',1468.866
'0:07.625',1458.596
'0:07.629',1479.136
'0:07.633',1484.250
'0:07.637',1493.028
'0:07.641',1500.358
'0:07.645',1509.136
'0:07.648',1531.125
'0:07.652',1537.731
'0:07.656',1563.384
'0:07.660',1594.152
'0:07.664',1611.709
'0:07.668',1628.584
'0:07.672',1608.044
'0:07.676',1652.746
'0:07.680',1652.746
'0:07.684',1659.351
'0:07.688',1695.232
'0:07.691',1709.892
'0:07.695',1701.838
'0:07.699',1723.059
'0:07.703',1715.005
'0:07.707',1730.389
'0:07.711',1746.540
'0:07.715',1734.778
'0:07.719',1753.102
'0:07.723',1734.778
'0:07.727',1748.713
'0:07.730',1739.210
'0:07.734',1753.102
'0:07.738',1716.497
'0:07.742',1740.659
'0:07.746',1703.286
'0:07.750',1715.730
'0:07.754',1716.497
'0:07.758',1701.113
'0:07.762',1679.849
'0:07.766',1662.292
'0:07.770',1669.579
'0:07.773',1666.681
'0:07.777',1676.908
'0:07.781',1654.962
'0:07.785',1630.033
'0:07.789',1627.092
'0:07.793',1627.092
'0:07.797',1637.362
'0:07.801',1644.692
'0:07.805',1627.859
'0:07.809',1646.141
'0:07.813',1635.146
'0:07.816',1621.979
'0:07.820',1619.763
'0:07.824',1615.373
'0:07.828',1616.865
'0:07.832',1626.368
'0:07.836',1636.638
'0:07.840',1613.200
'0:07.844',1596.325
'0:07.848',1595.601
'0:07.852',1569.947
'0:07.855',1561.168
'0:07.859',1528.185
'0:07.863',1520.898
'0:07.867',1520.131
'0:07.871',1501.849
'0:07.875',1506.239
'0:07.879',1446.877
'0:07.883',1473.255
'0:07.887',1449.093
'0:07.891',1426.380
'0:07.895',1391.223
'0:07.898',1420.499
'0:07.902',1392.672
'0:07.906',1390.456
'0:07.910',1396.337
'0:07.914',1383.894
'0:07.918',1355.299
'0:07.922',1335.527
'0:07.926',1331.862
'0:07.930',1325.257
'0:07.934',1320.143
'0:07.938',1315.754
'0:07.941',1324.532
'0:07.945',1311.364
'0:07.949',1311.364
'0:07.953',1340.640
'0:07.957',1350.186
'0:07.961',1328.921
'0:07.965',1320.143
'0:07.969',1359.689
'0:07.973',1358.240
'0:07.977',1343.581
'0:07.980',1356.024
'0:07.984',1351.635
'0:07.988',1382.402
'0:07.992',1409.505
'0:07.996',1402.942
'0:08.000',1390.456
'0:08.004',1430.045
'0:08.008',1423.439
'0:08.012',1415.385
'0:08.016',1449.093
'0:08.020',1434.434
'0:08.023',1449.818
'0:08.027',1449.093
'0:08.031',1428.553
'0:08.035',1471.806
'0:08.039',1449.818
'0:08.043',1430.045
'0:08.047',1443.937
'0:08.051',1435.883
'0:08.055',1438.823
'0:08.059',1415.385
'0:08.063',1449.093
'0:08.066',1410.996
'0:08.070',1410.996
'0:08.074',1425.655
'0:08.078',1426.380
'0:08.082',1412.445
'0:08.086',1386.067
'0:08.090',1418.326
'0:08.094',1416.110
'0:08.098',1385.342
'0:08.102',1358.240
'0:08.105',1354.575
'0:08.109',1353.851
'0:08.113',1361.180
'0:08.117',1342.132
'0:08.121',1320.143
'0:08.125',1313.538
'0:08.129',1305.484
'0:08.133',1310.640
'0:08.137',1328.197
'0:08.141',1317.202
'0:08.145',1321.592
'0:08.148',1287.927
'0:08.152',1272.543
'0:08.156',1282.770
'0:08.160',1306.975
'0:08.164',1321.592
'0:08.168',1324.532
'0:08.172',1334.078
'0:08.176',1336.975
'0:08.180',1347.970
'0:08.184',1331.137
'0:08.188',1332.586
'0:08.191',1363.354
'0:08.195',1377.288
'0:08.199',1349.461
'0:08.203',1374.348
'0:08.207',1372.899
'0:08.211',1409.505
'0:08.215',1391.223
'0:08.219',1386.067
'0:08.223',1424.888
'0:08.227',1394.121
'0:08.230',1430.045
'0:08.234',1425.655
'0:08.238',1407.331
'0:08.242',1428.553
'0:08.246',1413.937
'0:08.250',1435.883
'0:08.254',1446.877
'0:08.258',1435.883
'0:08.262',1458.596
'0:08.266',1441.764
'0:08.270',1450.542
'0:08.273',1483.525
'0:08.277',1460.812
'0:08.281',1488.639
'0:08.285',1493.028
'0:08.289',1476.920
'0:08.293',1493.753
'0:08.297',1517.958
'0:08.301',1495.969
'0:08.305',1506.963
'0:08.309',1534.790
'0:08.313',1503.298
'0:08.316',1515.742
'0:08.320',1524.563
'0:08.324',1501.082
'0:08.328',1535.515
'0:08.332',1500.358
'0:08.336',1506.239
'0:08.340',1503.298
'0:08.344',1493.753
'0:08.348',1516.466
'0:08.352',1476.196
'0:08.355',1506.239
'0:08.359',1479.136
'0:08.363',1478.369
'0:08.367',1473.255
'0:08.371',1462.985
'0:08.375',1495.969
'0:08.379',1460.812
'0:08.383',1472.531
'0:08.387',1492.304
'0:08.391',1457.147
'0:08.395',1457.872
'0:08.398',1463.752
'0:08.402',1504.023
'0:08.406',1471.082
'0:08.410',1514.293
'0:08.414',1499.634
'0:08.418',1517.958
'0:08.422',1540.671
'0:08.426',1535.515
'0:08.430',1516.466
'0:08.434',1531.125
'0:08.438',1541.395
'0:08.441',1553.839
'0:08.445',1558.995
'0:08.449',1572.887
'0:08.453',1579.492
'0:08.457',1583.157
'0:08.461',1597.816
'0:08.465',1613.200
'0:08.469',1600.714
'0:08.473',1600.714
'0:08.477',1597.049
'0:08.480',1616.865
'0:08.484',1612.433
'0:08.488',1597.049
'0:08.492',1599.990
'0:08.496',1580.217
'0:08.500',1589.762
'0:08.504',1583.157
'0:08.508',1597.049
'0:08.512',1561.168
'0:08.516',1564.109
'0:08.520',1539.179
'0:08.523',1557.503
'0:08.527',1517.233
'0:08.531',1545.785
'0:08.535',1507.688
'0:08.539',1512.077
'0:08.543',1501.849
'0:08.547',1495.969
'0:08.551',1472.531
'0:08.555',1490.855
'0:08.559',1457.872
'0:08.563',1454.931
'0:08.566',1471.806
'0:08.570',1469.591
'0:08.574',1461.536
'0:08.578',1452.758
'0:08.582',1436.650
'0:08.586',1431.494
'0:08.590',1381.678
'0:08.594',1407.331
'0:08.598',1376.564
'0:08.602',1368.510
'0:08.605',1347.245
'0:08.609',1341.407
'0:08.613',1361.905
'0:08.617',1362.629
'0:08.621',1360.456
'0:08.625',1353.126
'0:08.629',1329.688
'0:08.633',1300.370
'0:08.637',1297.430
'0:08.641',1294.489
'0:08.645',1297.430
'0:08.648',1294.489
'0:08.652',1325.257
'0:08.656',1328.197
'0:08.660',1287.927
'0:08.664',1306.975
'0:08.668',1325.257
'0:08.672',1316.478
'0:08.676',1317.970
'0:08.680',1287.160
'0:08.684',1277.657
'0:08.688',1271.051
'0:08.691',1268.878
'0:08.695',1276.208
'0:08.699',1285.711
'0:08.703',1294.489
'0:08.707',1263.722
'0:08.711',1264.489
'0:08.715',1273.267
'0:08.719',1260.057
'0:08.723',1265.938
'0:08.727',1270.327
'0:08.730',1238.111
'0:08.734',1247.614
'0:08.738',1279.105
'0:08.742',1241.775
'0:08.746',1241.008
'0:08.750',1241.775
'0:08.754',1243.224
'0:08.758',1251.278
'0:08.762',1247.614
'0:08.766',1249.830
'0:08.770',1287.927
'0:08.773',1296.705
'0:08.777',1304.759
'0:08.781',1295.981
'0:08.785',1317.202
'0:08.789',1282.770
'0:08.793',1293.040
'0:08.797',1303.310
'0:08.801',1317.202
'0:08.805',1328.921
'0:08.809',1361.905
'0:08.813',1386.834
'0:08.816',1378.013
'0:08.820',1419.050
'0:08.824',1402.942
'0:08.828',1430.769
'0:08.832',1422.715
'0:08.836',1464.477
'0:08.840',1436.650
'0:08.844',1481.309
'0:08.848',1449.093
'0:08.852',1490.131
'0:08.855',1490.131
'0:08.859',1476.196
'0:08.863',1481.309
'0:08.867',1451.266
'0:08.871',1449.093
'0:08.875',1464.477
'0:08.879',1460.088
'0:08.883',1471.806
'0:08.887',1432.218
'0:08.891',1434.434
'0:08.895',1454.207
'0:08.898',1408.780
'0:08.902',1443.212
'0:08.906',1405.840
'0:08.910',1397.786
'0:08.914',1420.499
'0:08.918',1380.953
'0:08.922',1405.840
'0:08.926',1380.229
'0:08.930',1388.283
'0:08.934',1371.408
'0:08.938',1391.948
'0:08.941',1386.067
'0:08.945',1374.348
'0:08.949',1353.851
'0:08.953',1392.672
'0:08.957',1363.354
'0:08.961',1356.024
'0:08.965',1358.964
'0:08.969',1355.299
'0:08.973',1360.456
'0:08.977',1359.689
'0:08.980',1396.337
'0:08.984',1398.553
'0:08.988',1389.007
'0:08.992',1375.839
'0:08.996',1365.569
'0:09.000',1405.115
'0:09.004',1412.445
'0:09.008',1414.661
'0:09.012',1386.067
'0:09.016',1390.456
'0:09.020',1410.996
'0:09.023',1398.553
'0:09.027',1421.991
'0:09.031',1413.169
'0:09.035',1399.277
'0:09.039',1416.110
'0:09.043',1404.391
'0:09.047',1446.153
'0:09.051',1416.834
'0:09.055',1408.780
'0:09.059',1431.494
'0:09.063',1431.494
'0:09.066',1432.218
'0:09.070',1417.601
'0:09.074',1413.169
'0:09.078',1424.888
'0:09.082',1426.380
'0:09.086',1450.542
'0:09.090',1426.380
'0:09.094',1417.601
'0:09.098',1448.369
'0:09.102',1421.266
'0:09.105',1419.775
'0:09.109',1454.207
'0:09.113',1438.823
'0:09.117',1419.775
'0:09.121',1437.374
'0:09.125',1429.320
'0:09.129',1473.255
'0:09.133',1454.931
'0:09.137',1466.650
'0:09.141',1489.364
'0:09.145',1456.423
'0:09.148',1500.358
'0:09.152',1472.531
'0:09.156',1509.136
'0:09.160',1472.531
'0:09.164',1512.077
'0:09.168',1483.525
'0:09.172',1507.688
'0:09.176',1481.309
'0:09.180',1488.639
'0:09.184',1465.201
'0:09.188',1500.358
'0:09.191',1463.752
'0:09.195',1469.591
'0:09.199',1464.477
'0:09.203',1493.753
'0:09.207',1471.806
'0:09.211',1492.304
'0:09.215',1487.190
'0:09.219',1484.250
'0:09.223',1484.974
'0:09.227',1480.585
'0:09.230',1480.585
'0:09.234',1487.190
'0:09.238',1504.023
'0:09.242',1468.142
'0:09.246',1476.196
'0:09.250',1482.034
'0:09.254',1502.574
'0:09.258',1468.142
'0:09.262',1449.818
'0:09.266',1452.034
'0:09.270',1441.039
'0:09.273',1424.888
'0:09.277',1416.110
'0:09.281',1413.169
'0:09.285',1431.494
'0:09.289',1430.769
'0:09.293',1413.937
'0:09.297',1389.007
'0:09.301',1378.013
'0:09.305',1368.510
'0:09.309',1371.408
'0:09.313',1373.624
'0:09.316',1378.013
'0:09.320',1380.229
'0:09.324',1386.067
'0:09.328',1405.115
'0:09.332',1411.721
'0:09.336',1413.169
'0:09.340',1405.840
'0:09.344',1433.709
'0:09.348',1430.045
'0:09.352',1458.596
'0:09.355',1443.212
'0:09.359',1438.823
'0:09.363',1478.369
'0:09.367',1449.093
'0:09.371',1484.250
'0:09.375',1452.034
'0:09.379',1448.369
'0:09.383',1476.920
'0:09.387',1457.872
'0:09.391',1428.553
'0:09.395',1463.752
'0:09.398',1433.709
'0:09.402',1420.499
'0:09.406',1443.937
'0:09.410',1408.056
'0:09.414',1416.110
'0:09.418',1414.661
'0:09.422',1396.337
'0:09.426',1395.612
'0:09.430',1394.888
'0:09.434',1391.223
'0:09.438',1415.385
'0:09.441',1400.726
'0:09.445',1380.953
'0:09.449',1415.385
'0:09.453',1391.948
'0:09.457',1385.342
'0:09.461',1427.829
'0:09.465',1399.277
'0:09.469',1394.888
'0:09.473',1428.553
'0:09.477',1398.553
'0:09.480',1441.764
'0:09.484',1416.834
'0:09.488',1408.780
'0:09.492',1411.721
'0:09.496',1446.153
'0:09.500',1441.764
'0:09.504',1423.439
'0:09.508',1421.266
'0:09.512',1417.601
'0:09.516',1426.380
'0:09.520',1426.380
'0:09.523',1430.045
'0:09.527',1424.164
'0:09.531',1463.752
'0:09.535',1442.488
'0:09.539',1432.218
'0:09.543',1465.926
'0:09.547',1434.434
'0:09.551',1430.769
'0:09.555',1418.326
'0:09.559',1450.542
'0:09.563',1446.877
'0:09.566',1415.385
'0:09.570',1416.110
'0:09.574',1446.877
'0:09.578',1419.775
'0:09.582',1413.937
'0:09.586',1400.002
'0:09.590',1382.402
'0:09.594',1405.840
'0:09.598',1400.002
'0:09.602',1364.845
'0:09.605',1391.948
'0:09.609',1360.456
'0:09.613',1352.402
'0:09.617',1340.640
'0:09.621',1325.257
'0:09.625',1328.921
'0:09.629',1333.353
'0:09.633',1283.537
'0:09.637',1306.975
'0:09.641',1258.608
'0:09.645',1277.657
'0:09.648',1231.505
'0:09.652',1246.889
'0:09.656',1205.127
'0:09.660',1234.446
'0:09.664',1221.235
'0:09.668',1201.463
'0:09.672',1170.695
'0:09.676',1152.371
'0:09.680',1145.041
'0:09.684',1126.760
'0:09.688',1123.820
'0:09.691',1136.987
'0:09.695',1124.544
'0:09.699',1095.226
'0:09.703',1087.896
'0:09.707',1123.820
'0:09.711',1134.047
'0:09.715',1113.550
'0:09.719',1104.047
'0:09.723',1104.771
'0:09.727',1136.987
'0:09.730',1155.311
'0:09.734',1138.479
'0:09.738',1191.960
'0:09.742',1176.576
'0:09.746',1221.235
'0:09.750',1190.468
'0:09.754',1205.127
'0:09.758',1238.111
'0:09.762',1265.938
'0:09.766',1278.381
'0:09.770',1288.651
'0:09.773',1308.424
'0:09.777',1317.970
'0:09.781',1325.257
'0:09.785',1334.802
'0:09.789',1306.208
'0:09.793',1311.364
'0:09.797',1315.754
'0:09.801',1364.121
'0:09.805',1372.899
'0:09.809',1378.737
'0:09.813',1367.018
'0:09.816',1352.402
'0:09.820',1375.839
'0:09.824',1381.678
'0:09.828',1408.056
'0:09.832',1411.721
'0:09.836',1402.942
'0:09.840',1390.456
'0:09.844',1403.667
'0:09.848',1411.721
'0:09.852',1410.272
'0:09.855',1425.655
'0:09.859',1430.769
'0:09.863',1443.212
'0:09.867',1457.872
'0:09.871',1454.207
'0:09.875',1460.812
'0:09.879',1495.969
'0:09.883',1496.693
'0:09.887',1493.753
'0:09.891',1475.471
'0:09.895',1490.131
'0:09.898',1508.412
'0:09.902',1482.801
'0:09.906',1506.239
'0:09.910',1523.796
'0:09.914',1520.131
'0:09.918',1506.963
'0:09.922',1537.006
'0:09.926',1502.574
'0:09.930',1539.179
'0:09.934',1509.904
'0:09.938',1540.671
'0:09.941',1510.628
'0:09.945',1539.946
'0:09.949',1523.796
'0:09.953',1539.179
'0:09.957',1508.412
'0:09.961',1512.077
'0:09.965',1532.617
'0:09.969',1505.514
'0:09.973',1502.574
'0:09.977',1480.585
'0:09.980',1482.801
'0:09.984',1495.244
'0:09.988',1484.974
'0:09.992',1442.488
'0:09.996',1444.704
'0:10.000',1457.872
'0:10.004',1424.164
'0:10.008',1412.445
'0:10.012',1398.553
'0:10.016',1393.397
'0:10.020',1397.061
'0:10.023',1376.564
'0:10.027',1409.505
'0:10.031',1413.937
'0:10.035',1395.612
'0:10.039',1380.953
'0:10.043',1386.834
'0:10.047',1413.937
'0:10.051',1410.996
'0:10.055',1397.061
'0:10.059',1403.667
'0:10.063',1399.277
'0:10.066',1402.218
'0:10.070',1406.607
'0:10.074',1410.272
'0:10.078',1421.991
'0:10.082',1438.099
'0:10.086',1413.169
'0:10.090',1426.380
'0:10.094',1419.775
'0:10.098',1443.937
'0:10.102',1454.207
'0:10.105',1439.548
'0:10.109',1420.499
'0:10.113',1408.780
'0:10.117',1407.331
'0:10.121',1405.115
'0:10.125',1432.218
'0:10.129',1394.888
'0:10.133',1394.121
'0:10.137',1369.959
'0:10.141',1365.569
'0:10.145',1375.839
'0:10.148',1347.970
'0:10.152',1368.510
'0:10.156',1345.072
'0:10.160',1321.592
'0:10.164',1326.748
'0:10.168',1330.413
'0:10.172',1281.321
'0:10.176',1314.305
'0:10.180',1268.111
'0:10.184',1289.375
'0:10.188',1248.338
'0:10.191',1230.781
'0:10.195',1260.057
'0:10.199',1236.619
'0:10.203',1214.673
'0:10.207',1202.187
'0:10.211',1232.230
'0:10.215',1203.678
'0:10.219',1216.122
'0:10.223',1236.619
'0:10.227',1213.906
'0:10.230',1205.127
'0:10.234',1240.284
'0:10.238',1224.176
'0:10.242',1227.116
'0:10.246',1271.051
'0:10.250',1263.722
'0:10.254',1266.662
'0:10.258',1273.992
'0:10.262',1301.819
'0:10.266',1320.143
'0:10.270',1332.586
'0:10.273',1349.461
'0:10.277',1364.845
'0:10.281',1398.553
'0:10.285',1409.505
'0:10.289',1472.531
'0:10.293',1458.596
'0:10.297',1509.904
'0:10.301',1509.904
'0:10.305',1524.563
'0:10.309',1569.222
'0:10.313',1561.168
'0:10.316',1591.211
'0:10.320',1626.368
'0:10.324',1643.243
'0:10.328',1619.038
'0:10.332',1648.357
'0:10.336',1642.476
'0:10.340',1652.746
'0:10.344',1659.351
'0:10.348',1655.686
'0:10.352',1639.578
'0:10.355',1646.141
'0:10.359',1632.249
'0:10.363',1627.859
'0:10.367',1627.092
'0:10.371',1621.979
'0:10.375',1593.427
'0:10.379',1577.276
'0:10.383',1592.660
'0:10.387',1545.060
'0:10.391',1561.168
'0:10.395',1524.563
'0:10.398',1516.466
'0:10.402',1498.185
'0:10.406',1474.704
'0:10.410',1464.477
'0:10.414',1464.477
'0:10.418',1446.877
'0:10.422',1434.434
'0:10.426',1432.218
'0:10.430',1437.374
'0:10.434',1451.266
'0:10.438',1429.320
'0:10.441',1408.780
'0:10.445',1401.451
'0:10.449',1416.834
'0:10.453',1423.439
'0:10.457',1396.337
'0:10.461',1393.397
'0:10.465',1393.397
'0:10.469',1420.499
'0:10.473',1397.061
'0:10.477',1392.672
'0:10.480',1416.834
'0:10.484',1410.272
'0:10.488',1416.110
'0:10.492',1442.488
'0:10.496',1410.996
'0:10.500',1427.829
'0:10.504',1438.823
'0:10.508',1458.596
'0:10.512',1423.439
'0:10.516',1441.764
'0:10.520',1425.655
'0:10.523',1438.823
'0:10.527',1438.823
'0:10.531',1413.169
'0:10.535',1446.153
'0:10.539',1402.218
'0:10.543',1415.385
'0:10.547',1394.121
'0:10.551',1422.715
'0:10.555',1391.948
'0:10.559',1380.953
'0:10.563',1378.013
'0:10.566',1386.067
'0:10.570',1389.732
'0:10.574',1369.234
'0:10.578',1359.689
'0:10.582',1359.689
'0:10.586',1378.737
'0:10.590',1363.354
'0:10.594',1357.515
'0:10.598',1344.305
'0:10.602',1370.683
'0:10.605',1362.629
'0:10.609',1321.592
'0:10.613',1322.359
'0:10.617',1317.970
'0:10.621',1336.975
'0:10.625',1350.910
'0:10.629',1335.527
'0:10.633',1326.024
'0:10.637',1318.694
'0:10.641',1322.359
'0:10.645',1326.024
'0:10.648',1353.126
'0:10.652',1356.024
'0:10.656',1375.072
'0:10.660',1384.618
'0:10.664',1369.959
'0:10.668',1366.294
'0:10.672',1395.612
'0:10.676',1379.504
'0:10.680',1362.629
'0:10.684',1384.618
'0:10.688',1373.624
'0:10.691',1387.558
'0:10.695',1374.348
'0:10.699',1363.354
'0:10.703',1357.515
'0:10.707',1353.851
'0:10.711',1352.402
'0:10.715',1350.910
'0:10.719',1363.354
'0:10.723',1366.294
'0:10.727',1358.964
'0:10.730',1353.851
'0:10.734',1375.839
'0:10.738',1331.862
'0:10.742',1349.461
'0:10.746',1363.354
'0:10.750',1333.353
'0:10.754',1331.137
'0:10.758',1350.910
'0:10.762',1372.175
'0:10.766',1341.407
'0:10.770',1345.797
'0:10.773',1385.342
'0:10.777',1393.397
'0:10.781',1364.121
'0:10.785',1378.013
'0:10.789',1406.607
'0:10.793',1394.888
'0:10.797',1416.110
'0:10.801',1378.737
'0:10.805',1398.553
'0:10.809',1408.780
'0:10.813',1386.067
'0:10.816',1379.504
'0:10.820',1378.737
'0:10.824',1376.564
'0:10.828',1378.737
'0:10.832',1382.402
'0:10.836',1416.110
'0:10.840',1415.385
'0:10.844',1378.737
'0:10.848',1369.959
'0:10.852',1403.667
'0:10.855',1405.840
'0:10.859',1408.780
'0:10.863',1378.737
'0:10.867',1394.888
'0:10.871',1414.661
'0:10.875',1372.899
'0:10.879',1416.834
'0:10.883',1405.115
'0:10.887',1375.839
'0:10.891',1409.505
'0:10.895',1375.839
'0:10.898',1383.169
'0:10.902',1394.888
'0:10.906',1354.575
'0:10.910',1391.223
'0:10.914',1378.737
'0:10.918',1355.299
'0:10.922',1380.953
'0:10.926',1369.234
'0:10.930',1336.975
'0:10.934',1378.013
'0:10.938',1344.305
'0:10.941',1357.515
'0:10.945',1347.245
'0:10.949',1363.354
'0:10.953',1351.635
'0:10.957',1387.558
'0:10.961',1350.910
'0:10.965',1364.845
'0:10.969',1405.840
'0:10.973',1373.624
'0:10.977',1385.342
'0:10.980',1399.277
'0:10.984',1402.942
'0:10.988',1408.056
'0:10.992',1386.067
'0:10.996',1414.661
'0:11.000',1413.937
'0:11.004',1386.067
'0:11.008',1405.115
'0:11.012',1386.067
'0:11.016',1413.937
'0:11.020',1390.456
'0:11.023',1385.342
'0:11.027',1424.164
'0:11.031',1405.115
'0:11.035',1391.948
'0:11.039',1399.277
'0:11.043',1415.385
'0:11.047',1408.780
'0:11.051',1378.013
'0:11.055',1372.899
'0:11.059',1388.283
'0:11.063',1413.169
'0:11.066',1409.505
'0:11.070',1367.018
'0:11.074',1372.899
'0:11.078',1389.007
'0:11.082',1361.180
'0:11.086',1368.510
'0:11.090',1358.964
'0:11.094',1323.808
'0:11.098',1345.797
'0:11.102',1306.975
'0:11.105',1312.089
'0:11.109',1311.364
'0:11.113',1288.651
'0:11.117',1271.051
'0:11.121',1286.435
'0:11.125',1252.727
'0:11.129',1284.262
'0:11.133',1237.344
'0:11.137',1267.387
'0:11.141',1243.949
'0:11.145',1237.344
'0:11.148',1220.511
'0:11.152',1199.247
'0:11.156',1189.019
'0:11.160',1193.408
'0:11.164',1178.749
'0:11.168',1181.690
'0:11.172',1195.624
'0:11.176',1211.733
'0:11.180',1191.960
'0:11.184',1175.084
'0:11.188',1220.511
'0:11.191',1186.079
'0:11.195',1205.852
'0:11.199',1232.230
'0:11.203',1225.625
'0:11.207',1217.571
'0:11.211',1213.181
'0:11.215',1219.787
'0:11.219',1229.290
'0:11.223',1258.608
'0:11.227',1286.435
'0:11.230',1257.159
'0:11.234',1303.310
'0:11.238',1288.651
'0:11.242',1325.257
'0:11.246',1301.819
'0:11.250',1333.353
'0:11.254',1344.305
'0:11.258',1328.197
'0:11.262',1336.251
'0:11.266',1347.245
'0:11.270',1350.910
'0:11.273',1372.175
'0:11.277',1385.342
'0:11.281',1390.456
'0:11.285',1381.678
'0:11.289',1388.283
'0:11.293',1394.888
'0:11.297',1403.667
'0:11.301',1408.056
'0:11.305',1410.996
'0:11.309',1412.445
'0:11.313',1425.655
'0:11.316',1463.752
'0:11.320',1465.926
'0:11.324',1442.488
'0:11.328',1433.709
'0:11.332',1441.039
'0:11.336',1473.980
'0:11.340',1476.196
'0:11.344',1445.428
'0:11.348',1476.920
'0:11.352',1451.266
'0:11.355',1490.855
'0:11.359',1495.244
'0:11.363',1504.023
'0:11.367',1509.136
'0:11.371',1487.915
'0:11.375',1479.861
'0:11.379',1526.012
'0:11.383',1489.364
'0:11.387',1527.461
'0:11.391',1530.401
'0:11.395',1503.298
'0:11.398',1525.287
'0:11.402',1540.671
'0:11.406',1531.125
'0:11.410',1514.293
'0:11.414',1528.952
'0:11.418',1533.341
'0:11.422',1509.136
'0:11.426',1530.401
'0:11.430',1517.233
'0:11.434',1526.736
'0:11.438',1543.569
'0:11.441',1535.515
'0:11.445',1507.688
'0:11.449',1537.731
'0:11.453',1507.688
'0:11.457',1509.904
'0:11.461',1534.066
'0:11.465',1506.239
'0:11.469',1484.974
'0:11.473',1518.682
'0:11.477',1509.136
'0:11.480',1490.855
'0:11.484',1471.082
'0:11.488',1505.514
'0:11.492',1501.082
'0:11.496',1499.634
'0:11.500',1478.369
'0:11.504',1468.866
'0:11.508',1447.602
'0:11.512',1445.428
'0:11.516',1436.650
'0:11.520',1438.099
'0:11.523',1432.985
'0:11.527',1429.320
'0:11.531',1419.775
'0:11.535',1413.937
'0:11.539',1419.775
'0:11.543',1416.110
'0:11.547',1404.391
'0:11.551',1405.840
'0:11.555',1409.505
'0:11.559',1399.277
'0:11.563',1430.045
'0:11.566',1434.434
'0:11.570',1421.266
'0:11.574',1403.667
'0:11.578',1408.056
'0:11.582',1390.456
'0:11.586',1390.456
'0:11.590',1375.839
'0:11.594',1378.737
'0:11.598',1369.959
'0:11.602',1367.785
'0:11.605',1362.629
'0:11.609',1379.504
'0:11.613',1357.515
'0:11.617',1374.348
'0:11.621',1384.618
'0:11.625',1328.921
'0:11.629',1320.143
'0:11.633',1316.478
'0:11.637',1323.083
'0:11.641',1285.711
'0:11.645',1257.884
'0:11.648',1280.597
'0:11.652',1232.954
'0:11.656',1226.392
'0:11.660',1213.181
'0:11.664',1207.343
'0:11.668',1174.360
'0:11.672',1191.193
'0:11.676',1194.857
'0:11.680',1173.635
'0:11.684',1145.808
'0:11.688',1147.257
'0:11.691',1180.965
'0:11.695',1161.192
'0:11.699',1146.533
'0:11.703',1189.744
'0:11.707',1178.025
'0:11.711',1168.479
'0:11.715',1167.030
'0:11.719',1215.397
'0:11.723',1205.127
'0:11.727',1220.511
'0:11.730',1211.733
'0:11.734',1248.338
'0:11.738',1265.938
'0:11.742',1247.614
'0:11.746',1291.591
'0:11.750',1323.808
'0:11.754',1328.197
'0:11.758',1318.694
'0:11.762',1350.186
'0:11.766',1380.229
'0:11.770',1383.169
'0:11.773',1394.121
'0:11.777',1422.715
'0:11.781',1421.991
'0:11.785',1439.548
'0:11.789',1479.861
'0:11.793',1477.645
'0:11.797',1475.471
'0:11.801',1489.364
'0:11.805',1476.196
'0:11.809',1500.358
'0:11.813',1485.699
'0:11.816',1520.898
'0:11.820',1495.244
'0:11.824',1498.185
'0:11.828',1490.855
'0:11.832',1508.412
'0:11.836',1466.650
'0:11.840',1476.920
'0:11.844',1454.931
'0:11.848',1457.872
'0:11.852',1452.758
'0:11.855',1424.888
'0:11.859',1397.786
'0:11.863',1381.678
'0:11.867',1391.948
'0:11.871',1366.294
'0:11.875',1341.407
'0:11.879',1347.970
'0:11.883',1324.532
'0:11.887',1323.808
'0:11.891',1342.856
'0:11.895',1312.089
'0:11.898',1326.748
'0:11.902',1338.467
'0:11.906',1306.975
'0:11.910',1336.975
'0:11.914',1350.186
'0:11.918',1350.910
'0:11.922',1324.532
'0:11.926',1339.191
'0:11.930',1360.456
'0:11.934',1370.683
'0:11.938',1419.775
'0:11.941',1431.494
'0:11.945',1422.715
'0:11.949',1429.320
'0:11.953',1476.920
'0:11.957',1457.872
'0:11.961',1502.574
'0:11.965',1477.645
'0:11.969',1490.131
'0:11.973',1497.418
'0:11.977',1515.742
'0:11.980',1542.120
'0:11.984',1534.066
'0:11.988',1524.563
'0:11.992',1528.952
'0:11.996',1521.622
'0:12.000',1522.347
'0:12.004',1526.012
'0:12.008',1529.676
'0:12.012',1531.125
'0:12.016',1540.671
'0:12.020',1522.347
'0:12.023',1520.131
'0:12.027',1546.509
'0:12.031',1520.898
'0:12.035',1515.742
'0:12.039',1539.179
'0:12.043',1544.336
'0:12.047',1520.898
'0:12.051',1503.298
'0:12.055',1504.023
'0:12.059',1520.131
'0:12.063',1490.131
'0:12.066',1479.136
'0:12.070',1484.974
'0:12.074',1478.369
'0:12.078',1493.753
'0:12.082',1468.866
'0:12.086',1453.482
'0:12.090',1441.039
'0:12.094',1455.698
'0:12.098',1423.439
'0:12.102',1446.877
'0:12.105',1428.553
'0:12.109',1413.937
'0:12.113',1411.721
'0:12.117',1406.607
'0:12.121',1398.553
'0:12.125',1412.445
'0:12.129',1417.601
'0:12.133',1393.397
'0:12.137',1400.002
'0:12.141',1421.266
'0:12.145',1433.709
'0:12.148',1416.834
'0:12.152',1398.553
'0:12.156',1436.650
'0:12.160',1443.937
'0:12.164',1446.877
'0:12.168',1447.602
'0:12.172',1421.266
'0:12.176',1423.439
'0:12.180',1457.872
'0:12.184',1421.266
'0:12.188',1452.034
'0:12.191',1441.039
'0:12.195',1439.548
'0:12.199',1470.315
'0:12.203',1462.261
'0:12.207',1438.823
'0:12.211',1471.806
'0:12.215',1444.704
'0:12.219',1457.147
'0:12.223',1473.980
'0:12.227',1457.872
'0:12.230',1473.255
'0:12.234',1493.028
'0:12.238',1471.806
'0:12.242',1501.082
'0:12.246',1486.466
'0:12.250',1501.082
'0:12.254',1539.946
'0:12.258',1518.682
'0:12.262',1523.071
'0:12.266',1560.444
'0:12.270',1532.617
'0:12.273',1561.893
'0:12.277',1570.714
'0:12.281',1546.509
'0:12.285',1562.617
'0:12.289',1565.558
'0:12.293',1580.941
'0:12.297',1560.444
'0:12.301',1545.785
'0:12.305',1561.893
'0:12.309',1567.049
'0:12.313',1527.461
'0:12.316',1550.174
'0:12.320',1507.688
'0:12.324',1526.012
'0:12.328',1484.250
'0:12.332',1466.650
'0:12.336',1471.806
'0:12.340',1476.920
'0:12.344',1440.272
'0:12.348',1432.218
'0:12.352',1425.655
'0:12.355',1418.326
'0:12.359',1381.678
'0:12.363',1376.564
'0:12.367',1364.845
'0:12.371',1352.402
'0:12.375',1349.461
'0:12.379',1356.791
'0:12.383',1378.737
'0:12.387',1348.737
'0:12.391',1331.862
'0:12.395',1328.921
'0:12.398',1321.592
'0:12.402',1353.126
'0:12.406',1366.294
'0:12.410',1357.515
'0:12.414',1346.521
'0:12.418',1333.353
'0:12.422',1356.024
'0:12.426',1345.072
'0:12.430',1364.121
'0:12.434',1380.229
'0:12.438',1385.342
'0:12.441',1367.785
'0:12.445',1357.515
'0:12.449',1400.726
'0:12.453',1400.726
'0:12.457',1393.397
'0:12.461',1401.451
'0:12.465',1394.888
'0:12.469',1401.451
'0:12.473',1406.607
'0:12.477',1408.056
'0:12.480',1409.505
'0:12.484',1410.996
'0:12.488',1394.888
'0:12.492',1381.678
'0:12.496',1396.337
'0:12.500',1386.067
'0:12.504',1393.397
'0:12.508',1390.456
'0:12.512',1397.061
'0:12.516',1428.553
'0:12.520',1419.775
'0:12.523',1419.050
'0:12.527',1416.110
'0:12.531',1415.385
'0:12.535',1414.661
'0:12.539',1421.266
'0:12.543',1419.775
'0:12.547',1413.937
'0:12.551',1427.829
'0:12.555',1409.505
'0:12.559',1413.169
'0:12.563',1411.721
'0:12.566',1454.207
'0:12.570',1454.207
'0:12.574',1450.542
'0:12.578',1427.104
'0:12.582',1425.655
'0:12.586',1400.002
'0:12.590',1389.007
'0:12.594',1380.953
'0:12.598',1380.229
'0:12.602',1361.905
'0:12.605',1357.515
'0:12.609',1347.245
'0:12.613',1360.456
'0:12.617',1318.694
'0:12.621',1323.083
'0:12.625',1283.537
'0:12.629',1290.824
'0:12.633',1274.716
'0:12.637',1235.895
'0:12.641',1266.662
'0:12.645',1227.116
'0:12.648',1252.003
'0:12.652',1221.235
'0:12.656',1206.576
'0:12.660',1223.451
'0:12.664',1243.949
'0:12.668',1200.014
'0:12.672',1243.949
'0:12.676',1221.960
'0:12.680',1219.787
'0:12.684',1238.111
'0:12.688',1241.775
'0:12.691',1227.116
'0:12.695',1262.997
'0:12.699',1276.208
'0:12.703',1259.332
'0:12.707',1293.765
'0:12.711',1326.024
'0:12.715',1339.191
'0:12.719',1324.532
'0:12.723',1331.862
'0:12.727',1350.910
'0:12.730',1401.451
'0:12.734',1386.834
'0:12.738',1408.056
'0:12.742',1435.158
'0:12.746',1428.553
'0:12.750',1452.034
'0:12.754',1451.266
'0:12.758',1460.812
'0:12.762',1496.693
'0:12.766',1479.136
'0:12.770',1497.418
'0:12.773',1519.406
'0:12.777',1500.358
'0:12.781',1509.136
'0:12.785',1528.185
'0:12.789',1518.682
'0:12.793',1507.688
'0:12.797',1513.568
'0:12.801',1532.617
'0:12.805',1501.849
'0:12.809',1519.406
'0:12.813',1523.796
'0:12.816',1495.244
'0:12.820',1504.023
'0:12.824',1521.622
'0:12.828',1491.579
'0:12.832',1512.801
'0:12.836',1484.974
'0:12.840',1523.071
'0:12.844',1495.244
'0:12.848',1512.801
'0:12.852',1484.250
'0:12.855',1517.233
'0:12.859',1484.250
'0:12.863',1506.239
'0:12.867',1506.239
'0:12.871',1472.531
'0:12.875',1501.082
'0:12.879',1468.142
'0:12.883',1512.801
'0:12.887',1499.634
'0:12.891',1482.801
'0:12.895',1500.358
'0:12.898',1464.477
'0:12.902',1453.482
'0:12.906',1468.142
'0:12.910',1458.596
'0:12.914',1427.829
'0:12.918',1435.883
'0:12.922',1443.937
'0:12.926',1414.661
'0:12.930',1421.266
'0:12.934',1413.937
'0:12.938',1413.937
'0:12.941',1411.721
'0:12.945',1388.283
'0:12.949',1358.964
'0:12.953',1351.635
'0:12.957',1359.689
'0:12.961',1374.348
'0:12.965',1365.569
'0:12.969',1369.234
'0:12.973',1328.921
'0:12.977',1325.257
'0:12.980',1318.694
'0:12.984',1328.921
'0:12.988',1353.851
'0:12.992',1314.305
'0:12.996',1312.813
'0:13.000',1342.132
'0:13.004',1342.856
'0:13.008',1324.532
'0:13.012',1356.791
'0:13.016',1319.418
'0:13.020',1342.132
'0:13.023',1357.515
'0:13.027',1327.472
'0:13.031',1337.742
'0:13.035',1358.964
'0:13.039',1371.408
'0:13.043',1361.905
'0:13.047',1369.959
'0:13.051',1367.785
'0:13.055',1329.688
'0:13.059',1328.197
'0:13.063',1327.472
'0:13.066',1329.688
'0:13.070',1326.024
'0:13.074',1350.910
'0:13.078',1323.808
'0:13.082',1350.910
'0:13.086',1343.581
'0:13.090',1325.257
'0:13.094',1318.694
'0:13.098',1345.072
'0:13.102',1324.532
'0:13.105',1302.543
'0:13.109',1312.089
'0:13.113',1325.257
'0:13.117',1281.321
'0:13.121',1288.651
'0:13.125',1304.759
'0:13.129',1267.387
'0:13.133',1257.884
'0:13.137',1287.927
'0:13.141',1260.824
'0:13.145',1230.057
'0:13.148',1265.938
'0:13.152',1227.841
'0:13.156',1218.295
'0:13.160',1205.127
'0:13.164',1221.235
'0:13.168',1202.187
'0:13.172',1200.738
'0:13.176',1200.738
'0:13.180',1211.733
'0:13.184',1223.451
'0:13.188',1213.906
'0:13.191',1221.235
'0:13.195',1247.614
'0:13.199',1243.949
'0:13.203',1214.673
'0:13.207',1255.668
'0:13.211',1247.614
'0:13.215',1237.344
'0:13.219',1247.614
'0:13.223',1282.770
'0:13.227',1297.430
'0:13.230',1309.873
'0:13.234',1296.705
'0:13.238',1290.100
'0:13.242',1337.742
'0:13.246',1312.089
'0:13.250',1334.802
'0:13.254',1347.245
'0:13.258',1369.959
'0:13.262',1395.612
'0:13.266',1406.607
'0:13.270',1411.721
'0:13.273',1421.266
'0:13.277',1419.775
'0:13.281',1433.709
'0:13.285',1410.996
'0:13.289',1416.834
'0:13.293',1435.158
'0:13.297',1456.423
'0:13.301',1430.769
'0:13.305',1464.477
'0:13.309',1470.315
'0:13.313',1453.482
'0:13.316',1468.866
'0:13.320',1443.937
'0:13.324',1438.823
'0:13.328',1452.758
'0:13.332',1428.553
'0:13.336',1409.505
'0:13.340',1403.667
'0:13.344',1400.002
'0:13.348',1393.397
'0:13.352',1388.283
'0:13.355',1401.451
'0:13.359',1415.385
'0:13.363',1396.337
'0:13.367',1367.018
'0:13.371',1383.894
'0:13.375',1387.558
'0:13.379',1391.948
'0:13.383',1397.786
'0:13.387',1407.331
'0:13.391',1388.283
'0:13.395',1375.072
'0:13.398',1416.834
'0:13.402',1424.164
'0:13.406',1413.169
'0:13.410',1416.110
'0:13.414',1395.612
'0:13.418',1402.218
'0:13.422',1414.661
'0:13.426',1414.661
'0:13.430',1427.104
'0:13.434',1436.650
'0:13.438',1438.099
'0:13.441',1455.698
'0:13.445',1443.937
'0:13.449',1475.471
'0:13.453',1449.093
'0:13.457',1490.131
'0:13.461',1472.531
'0:13.465',1465.926
'0:13.469',1471.082
'0:13.473',1487.915
'0:13.477',1468.142
'0:13.480',1497.418
'0:13.484',1465.201
'0:13.488',1501.082
'0:13.492',1457.872
'0:13.496',1479.861
'0:13.500',1490.855
'0:13.504',1450.542
'0:13.508',1477.645
'0:13.512',1446.153
'0:13.516',1444.704
'0:13.520',1450.542
'0:13.523',1435.883
'0:13.527',1459.321
'0:13.531',1435.158
'0:13.535',1411.721
'0:13.539',1432.985
'0:13.543',1416.834
'0:13.547',1397.786
'0:13.551',1398.553
'0:13.555',1432.218
'0:13.559',1421.266
'0:13.563',1392.672
'0:13.566',1389.732
'0:13.570',1427.104
'0:13.574',1410.996
'0:13.578',1391.223
'0:13.582',1386.067
'0:13.586',1391.223
'0:13.590',1386.834
'0:13.594',1392.672
'0:13.598',1389.732
'0:13.602',1398.553
'0:13.605',1410.272
'0:13.609',1405.840
'0:13.613',1426.380
'0:13.617',1417.601
'0:13.621',1410.272
'0:13.625',1406.607
'0:13.629',1405.115
'0:13.633',1408.056
'0:13.637',1417.601
'0:13.641',1407.331
'0:13.645',1399.277
'0:13.648',1389.007
'0:13.652',1386.067
'0:13.656',1383.169
'0:13.660',1394.121
'0:13.664',1393.397
'0:13.668',1361.180
'0:13.672',1364.121
'0:13.676',1373.624
'0:13.680',1321.592
'0:13.684',1320.143
'0:13.688',1334.802
'0:13.691',1325.257
'0:13.695',1298.921
'0:13.699',1333.353
'0:13.703',1294.489
'0:13.707',1326.024
'0:13.711',1313.538
'0:13.715',1326.748
'0:13.719',1333.353
'0:13.723',1339.191
'0:13.727',1351.635
'0:13.730',1361.180
'0:13.734',1380.229
'0:13.738',1400.002
'0:13.742',1432.985
'0:13.746',1445.428
'0:13.750',1462.261
'0:13.754',1489.364
'0:13.758',1525.287
'0:13.762',1544.336
'0:13.766',1544.336
'0:13.770',1567.773
'0:13.773',1593.427
'0:13.777',1615.373
'0:13.781',1586.822
'0:13.785',1612.433
'0:13.789',1609.535
'0:13.793',1608.044
'0:13.797',1630.033
'0:13.801',1602.206
'0:13.805',1590.487
'0:13.809',1624.919
'0:13.813',1586.822
'0:13.816',1575.103
'0:13.820',1566.282
'0:13.824',1563.384
'0:13.828',1569.947
'0:13.832',1562.617
'0:13.836',1518.682
'0:13.840',1517.958
'0:13.844',1515.742
'0:13.848',1488.639
'0:13.852',1485.699
'0:13.855',1462.261
'0:13.859',1444.704
'0:13.863',1434.434
'0:13.867',1434.434
'0:13.871',1427.104
'0:13.875',1410.996
'0:13.879',1413.937
'0:13.883',1401.451
'0:13.887',1360.456
'0:13.891',1364.845
'0:13.895',1392.672
'0:13.898',1352.402
'0:13.902',1360.456
'0:13.906',1363.354
'0:13.910',1349.461
'0:13.914',1375.839
'0:13.918',1363.354
'0:13.922',1350.186
'0:13.926',1389.732
'0:13.930',1364.845
'0:13.934',1375.072
'0:13.938',1392.672
'0:13.941',1350.186
'0:13.945',1351.635
'0:13.949',1368.510
'0:13.953',1397.786
'0:13.957',1381.678
'0:13.961',1374.348
'0:13.965',1365.569
'0:13.969',1383.894
'0:13.973',1373.624
'0:13.977',1364.121
'0:13.980',1374.348
'0:13.984',1374.348
'0:13.988',1384.618
'0:13.992',1389.732
'0:13.996',1372.899
'0:14.000',1385.342
'0:14.004',1380.229
'0:14.008',1380.229
'0:14.012',1415.385
'0:14.016',1390.456
'0:14.020',1378.737
'0:14.023',1369.959
'0:14.027',1397.061
'0:14.031',1407.331
'0:14.035',1372.175
'0:14.039',1382.402
'0:14.043',1382.402
'0:14.047',1350.910
'0:14.051',1353.851
'0:14.055',1367.018
'0:14.059',1366.294
'0:14.063',1356.024
'0:14.066',1342.856
'0:14.070',1329.688
'0:14.074',1304.759
'0:14.078',1269.602
'0:14.082',1242.500
'0:14.086',1245.440
'0:14.090',1237.344
'0:14.094',1201.463
'0:14.098',1190.468
'0:14.102',1221.235
'0:14.105',1163.365
'0:14.109',1175.084
'0:14.113',1191.193
'0:14.117',1174.360
'0:14.121',1136.987
'0:14.125',1142.868
'0:14.129',1170.695
'0:14.133',1128.209
'0:14.137',1162.641
'0:14.141',1159.701
'0:14.145',1142.144
'0:14.148',1135.538
'0:14.152',1175.084
'0:14.156',1161.192
'0:14.160',1145.808
'0:14.164',1190.468
'0:14.168',1191.193
'0:14.172',1176.576
'0:14.176',1230.781
'0:14.180',1213.906
'0:14.184',1253.494
'0:14.188',1225.625
'0:14.191',1255.668
'0:14.195',1268.878
'0:14.199',1262.273
'0:14.203',1283.537
'0:14.207',1295.256
'0:14.211',1320.143
'0:14.215',1326.748
'0:14.219',1330.413
'0:14.223',1354.575
'0:14.227',1356.024
'0:14.230',1358.240
'0:14.234',1386.067
'0:14.238',1383.169
'0:14.242',1402.942
'0:14.246',1426.380
'0:14.250',1413.937
'0:14.254',1412.445
'0:14.258',1429.320
'0:14.262',1439.548
'0:14.266',1429.320
'0:14.270',1438.823
'0:14.273',1461.536
'0:14.277',1462.261
'0:14.281',1449.093
'0:14.285',1438.099
'0:14.289',1474.704
'0:14.293',1441.039
'0:14.297',1439.548
'0:14.301',1465.926
'0:14.305',1444.704
'0:14.309',1462.985
'0:14.313',1456.423
'0:14.316',1454.931
'0:14.320',1460.088
'0:14.324',1459.321
'0:14.328',1459.321
'0:14.332',1465.926
'0:14.336',1491.579
'0:14.340',1461.536
'0:14.344',1494.520
'0:14.348',1463.752
'0:14.352',1498.185
'0:14.355',1493.028
'0:14.359',1473.255
'0:14.363',1487.190
'0:14.367',1511.352
'0:14.371',1480.585
'0:14.375',1491.579
'0:14.379',1508.412
'0:14.383',1479.136
'0:14.387',1506.239
'0:14.391',1496.693
'0:14.395',1495.244
'0:14.398',1469.591
'0:14.402',1490.131
'0:14.406',1491.579
'0:14.410',1454.207
'0:14.414',1491.579
'0:14.418',1449.818
'0:14.422',1481.309
'0:14.426',1443.937
'0:14.430',1441.764
'0:14.434',1449.093
'0:14.438',1448.369
'0:14.441',1433.709
'0:14.445',1469.591
'0:14.449',1467.417
'0:14.453',1462.985
'0:14.457',1445.428
'0:14.461',1463.752
'0:14.465',1469.591
'0:14.469',1468.866
'0:14.473',1499.634
'0:14.477',1466.650
'0:14.480',1491.579
'0:14.484',1482.801
'0:14.488',1474.704
'0:14.492',1488.639
'0:14.496',1484.250
'0:14.500',1458.596
'0:14.504',1447.602
'0:14.508',1468.866
'0:14.512',1444.704
'0:14.516',1415.385
'0:14.520',1441.764
'0:14.523',1402.942
'0:14.527',1419.775
'0:14.531',1418.326
'0:14.535',1408.780
'0:14.539',1396.337
'0:14.543',1373.624
'0:14.547',1358.964
'0:14.551',1343.581
'0:14.555',1336.251
'0:14.559',1319.418
'0:14.563',1309.873
'0:14.566',1304.759
'0:14.570',1298.154
'0:14.574',1285.711
'0:14.578',1284.986
'0:14.582',1278.381
'0:14.586',1276.208
'0:14.590',1279.872
'0:14.594',1287.160
'0:14.598',1298.921
'0:14.602',1298.154
'0:14.605',1292.316
'0:14.609',1286.435
'0:14.613',1291.591
'0:14.617',1294.489
'0:14.621',1284.986
'0:14.625',1281.321
'0:14.629',1288.651
'0:14.633',1314.305
'0:14.637',1286.435
'0:14.641',1282.046
'0:14.645',1307.700
'0:14.648',1291.591
'0:14.652',1329.688
'0:14.656',1331.137
'0:14.660',1309.148
'0:14.664',1308.424
'0:14.668',1325.257
'0:14.672',1350.186
'0:14.676',1330.413
'0:14.680',1358.240
'0:14.684',1356.791
'0:14.688',1398.553
'0:14.691',1377.288
'0:14.695',1391.223
'0:14.699',1413.169
'0:14.703',1413.937
'0:14.707',1456.423
'0:14.711',1427.829
'0:14.715',1441.039
'0:14.719',1462.261
'0:14.723',1498.185
'0:14.727',1477.645
'0:14.730',1483.525
'0:14.734',1490.131
'0:14.738',1496.693
'0:14.742',1507.688
'0:14.746',1509.904
'0:14.750',1513.568
'0:14.754',1522.347
'0:14.758',1542.120
'0:14.762',1514.293
'0:14.766',1522.347
'0:14.770',1539.946
'0:14.773',1515.742
'0:14.777',1504.747
'0:14.781',1503.298
'0:14.785',1502.574
'0:14.789',1487.190
'0:14.793',1505.514
'0:14.797',1495.969
'0:14.801',1464.477
'0:14.805',1455.698
'0:14.809',1451.266
'0:14.813',1447.602
'0:14.816',1438.099
'0:14.820',1441.764
'0:14.824',1456.423
'0:14.828',1464.477
'0:14.832',1432.218
'0:14.836',1422.715
'0:14.840',1421.266
'0:14.844',1422.715
'0:14.848',1434.434
'0:14.852',1427.104
'0:14.855',1430.045
'0:14.859',1441.764
'0:14.863',1444.704
'0:14.867',1460.812
'0:14.871',1476.920
'0:14.875',1462.985
'0:14.879',1451.266
'0:14.883',1451.266
'0:14.887',1452.758
'0:14.891',1456.423
'0:14.895',1454.931
'0:14.898',1452.758
'0:14.902',1450.542
'0:14.906',1469.591
'0:14.910',1483.525
'0:14.914',1448.369
'0:14.918',1437.374
'0:14.922',1435.883
'0:14.926',1468.142
'0:14.930',1424.888
'0:14.934',1425.655
'0:14.938',1446.153
'0:14.941',1427.829
'0:14.945',1422.715
'0:14.949',1408.780
'0:14.953',1388.283
'0:14.957',1394.121
'0:14.961',1417.601
'0:14.965',1375.839
'0:14.969',1407.331
'0:14.973',1387.558
'0:14.977',1368.510
'0:14.980',1385.342
'0:14.984',1367.785
'0:14.988',1360.456
'0:14.992',1370.683
'0:14.996',1366.294
'0:15.000',1375.839
'0:15.004',1380.229
'0:15.008',1351.635
'0:15.012',1367.018
'0:15.016',1361.180
'0:15.020',1365.569
'0:15.023',1331.137
'0:15.027',1334.078
'0:15.031',1361.180
'0:15.035',1320.143
'0:15.039',1305.484
'0:15.043',1328.197
'0:15.047',1294.489
'0:15.051',1334.078
'0:15.055',1334.078
'0:15.059',1323.083
'0:15.063',1312.813
'0:15.066',1307.700
'0:15.070',1336.975
'0:15.074',1322.359
'0:15.078',1339.916
'0:15.082',1364.121
'0:15.086',1386.834
'0:15.090',1358.240
'0:15.094',1375.839
'0:15.098',1389.732
'0:15.102',1364.121
'0:15.105',1381.678
'0:15.109',1377.288
'0:15.113',1387.558
'0:15.117',1383.169
'0:15.121',1408.056
'0:15.125',1395.612
'0:15.129',1369.234
'0:15.133',1369.959
'0:15.137',1393.397
'0:15.141',1386.067
'0:15.145',1369.959
'0:15.148',1383.169
'0:15.152',1361.905
'0:15.156',1401.451
'0:15.160',1396.337
'0:15.164',1374.348
'0:15.168',1423.439
'0:15.172',1416.110
'0:15.176',1408.780
'0:15.180',1409.505
'0:15.184',1421.266
'0:15.188',1453.482
'0:15.191',1449.818
'0:15.195',1461.536
'0:15.199',1473.255
'0:15.203',1511.352
'0:15.207',1483.525
'0:15.211',1498.909
'0:15.215',1530.401
'0:15.219',1496.693
'0:15.223',1503.298
'0:15.227',1511.352
'0:15.230',1532.617
'0:15.234',1494.520
'0:15.238',1489.364
'0:15.242',1495.244
'0:15.246',1475.471
'0:15.250',1496.693
'0:15.254',1471.806
'0:15.258',1479.861
'0:15.262',1443.212
'0:15.266',1449.093
'0:15.270',1420.499
'0:15.273',1396.337
'0:15.277',1394.888
'0:15.281',1379.504
'0:15.285',1410.272
'0:15.289',1394.888
'0:15.293',1377.288
'0:15.297',1382.402
'0:15.301',1358.964
'0:15.305',1342.132
'0:15.309',1330.413
'0:15.313',1359.689
'0:15.316',1355.299
'0:15.320',1352.402
'0:15.324',1350.186
'0:15.328',1320.143
'0:15.332',1306.975
'0:15.336',1304.759
'0:15.340',1349.461
'0:15.344',1329.688
'0:15.348',1312.089
'0:15.352',1345.797
'0:15.355',1329.688
'0:15.359',1371.408
'0:15.363',1378.013
'0:15.367',1383.169
'0:15.371',1385.342
'0:15.375',1393.397
'0:15.379',1380.229
'0:15.383',1389.007
'0:15.387',1429.320
'0:15.391',1445.428
'0:15.395',1451.266
'0:15.398',1447.602
'0:15.402',1475.471
'0:15.406',1480.585
'0:15.410',1504.747
'0:15.414',1487.190
'0:15.418',1501.849
'0:15.422',1492.304
'0:15.426',1520.898
'0:15.430',1498.909
'0:15.434',1541.395
'0:15.438',1501.082
'0:15.441',1516.466
'0:15.445',1515.742
'0:15.449',1522.347
'0:15.453',1520.131
'0:15.457',1491.579
'0:15.461',1503.298
'0:15.465',1482.034
'0:15.469',1484.250
'0:15.473',1490.131
'0:15.477',1472.531
'0:15.480',1487.915
'0:15.484',1487.915
'0:15.488',1443.212
'0:15.492',1468.866
'0:15.496',1416.834
'0:15.500',1443.212
'0:15.504',1394.121
'0:15.508',1395.612
'0:15.512',1413.937
'0:15.516',1397.061
'0:15.520',1354.575
'0:15.523',1342.132
'0:15.527',1346.521
'0:15.531',1353.126
'0:15.535',1345.797
'0:15.539',1342.856
'0:15.543',1334.802
'0:15.547',1320.143
'0:15.551',1301.819
'0:15.555',1271.776
'0:15.559',1268.878
'0:15.563',1268.878
'0:15.566',1258.608
'0:15.570',1238.111
'0:15.574',1225.625
'0:15.578',1224.176
'0:15.582',1223.451
'0:15.586',1238.111
'0:15.590',1224.176
'0:15.594',1233.679
'0:15.598',1241.775
'0:15.602',1244.673
'0:15.605',1251.278
'0:15.609',1284.986
'0:15.613',1312.089
'0:15.617',1302.543
'0:15.621',1295.981
'0:15.625',1306.975
'0:15.629',1361.180
'0:15.633',1336.975
'0:15.637',1370.683
'0:15.641',1386.067
'0:15.645',1367.785
'0:15.648',1408.780
'0:15.652',1410.272
'0:15.656',1410.272
'0:15.660',1410.996
'0:15.664',1457.147
'0:15.668',1430.769
'0:15.672',1441.039
'0:15.676',1478.369
'0:15.680',1452.758
'0:15.684',1490.855
'0:15.688',1461.536
'0:15.691',1496.693
'0:15.695',1493.753
'0:15.699',1511.352
'0:15.703',1500.358
'0:15.707',1513.568
'0:15.711',1516.466
'0:15.715',1505.514
'0:15.719',1515.742
'0:15.723',1519.406
'0:15.727',1532.617
'0:15.730',1506.963
'0:15.734',1531.850
'0:15.738',1500.358
'0:15.742',1495.969
'0:15.746',1517.958
'0:15.750',1489.364
'0:15.754',1504.747
'0:15.758',1460.088
'0:15.762',1471.082
'0:15.766',1446.877
'0:15.770',1465.926
'0:15.773',1473.255
'0:15.777',1449.818
'0:15.781',1439.548
'0:15.785',1461.536
'0:15.789',1466.650
'0:15.793',1451.266
'0:15.797',1431.494
'0:15.801',1453.482
'0:15.805',1421.991
'0:15.809',1422.715
'0:15.813',1435.158
'0:15.816',1443.937
'0:15.820',1447.602
'0:15.824',1400.002
'0:15.828',1424.888
'0:15.832',1391.948
'0:15.836',1389.732
'0:15.840',1372.175
'0:15.844',1382.402
'0:15.848',1361.180
'0:15.852',1350.186
'0:15.855',1375.839
'0:15.859',1355.299
'0:15.863',1325.257
'0:15.867',1312.813
'0:15.871',1301.819
'0:15.875',1305.484
'0:15.879',1301.819
'0:15.883',1281.321
'0:15.887',1300.370
'0:15.891',1293.765
'0:15.895',1301.819
'0:15.898',1281.321
'0:15.902',1277.657
'0:15.906',1286.435
'0:15.910',1283.537
'0:15.914',1295.256
'0:15.918',1298.921
'0:15.922',1331.862
'0:15.926',1342.856
'0:15.930',1330.413
'0:15.934',1345.797
'0:15.938',1340.640
'0:15.941',1337.742
'0:15.945',1336.251
'0:15.949',1344.305
'0:15.953',1344.305
'0:15.957',1353.126
'0:15.961',1370.683
'0:15.965',1366.294
'0:15.969',1359.689
'0:15.973',1333.353
'0:15.977',1328.197
'0:15.980',1326.748
'0:15.984',1341.407
'0:15.988',1324.532
'0:15.992',1326.024
'0:15.996',1299.645
'0:16.000',1290.100
'0:16.004',1301.819
'0:16.008',1275.441
'0:16.012',1249.830
'0:16.016',1280.597
'0:16.020',1227.116
'0:16.023',1221.235
'0:16.027',1205.852
'0:16.031',1210.241
'0:16.035',1228.565
'0:16.039',1219.062
'0:16.043',1180.965
'0:16.047',1189.744
'0:16.051',1169.246
'0:16.055',1134.814
'0:16.059',1167.755
'0:16.063',1144.317
'0:16.066',1124.544
'0:16.070',1151.647
'0:16.074',1133.323
'0:16.078',1123.095
'0:16.082',1147.982
'0:16.086',1173.635
'0:16.090',1157.527
'0:16.094',1195.624
'0:16.098',1181.690
'0:16.102',1174.360
'0:16.105',1187.528
'0:16.109',1220.511
'0:16.113',1252.727
'0:16.117',1235.170
'0:16.121',1289.375
'0:16.125',1311.364
'0:16.129',1303.310
'0:16.133',1306.208
'0:16.137',1364.845
'0:16.141',1342.856
'0:16.145',1404.391
'0:16.148',1392.672
'0:16.152',1414.661
'0:16.156',1457.872
'0:16.160',1460.812
'0:16.164',1461.536
'0:16.168',1495.969
'0:16.172',1525.287
'0:16.176',1528.185
'0:16.180',1525.287
'0:16.184',1552.390
'0:16.188',1582.433
'0:16.191',1598.541
'0:16.195',1602.930
'0:16.199',1586.822
'0:16.203',1584.606
'0:16.207',1587.546
'0:16.211',1587.546
'0:16.215',1588.995
'0:16.219',1624.195
'0:16.223',1613.200
'0:16.227',1608.811
'0:16.230',1589.762
'0:16.234',1556.779
'0:16.238',1581.666
'0:16.242',1569.222
'0:16.246',1532.617
'0:16.250',1546.509
'0:16.254',1511.352
'0:16.258',1493.753
'0:16.262',1495.969
'0:16.266',1475.471
'0:16.270',1463.752
'0:16.273',1452.034
'0:16.277',1443.212
'0:16.281',1438.099
'0:16.285',1435.158
'0:16.289',1430.045
'0:16.293',1435.883
'0:16.297',1442.488
'0:16.301',1448.369
'0:16.305',1429.320
'0:16.309',1438.823
'0:16.313',1430.769
'0:16.316',1413.169
'0:16.320',1409.505
'0:16.324',1408.780
'0:16.328',1411.721
'0:16.332',1419.050
'0:16.336',1421.266
'0:16.340',1457.872
'0:16.344',1437.374
'0:16.348',1419.775
'0:16.352',1444.704
'0:16.355',1460.088
'0:16.359',1457.147
'0:16.363',1449.818
'0:16.367',1452.034
'0:16.371',1438.823
'0:16.375',1443.937
'0:16.379',1451.266
'0:16.383',1465.926
'0:16.387',1446.153
'0:16.391',1432.985
'0:16.395',1454.931
'0:16.398',1431.494
'0:16.402',1453.482
'0:16.406',1435.158
'0:16.410',1431.494
'0:16.414',1444.704
'0:16.418',1470.315
'0:16.422',1446.877
'0:16.426',1436.650
'0:16.430',1452.034
'0:16.434',1470.315
'0:16.438',1449.818
'0:16.441',1441.039
'0:16.445',1456.423
'0:16.449',1471.082
'0:16.453',1449.093
'0:16.457',1470.315
'0:16.461',1476.920
'0:16.465',1455.698
'0:16.469',1483.525
'0:16.473',1490.131
'0:16.477',1465.201
'0:16.480',1468.142
'0:16.484',1501.849
'0:16.488',1464.477
'0:16.492',1472.531
'0:16.496',1481.309
'0:16.500',1479.136
'0:16.504',1484.250
'0:16.508',1464.477
'0:16.512',1481.309
'0:16.516',1446.153
'0:16.520',1455.698
'0:16.523',1437.374
'0:16.527',1451.266
'0:16.531',1455.698
'0:16.535',1423.439
'0:16.539',1443.937
'0:16.543',1442.488
'0:16.547',1412.445
'0:16.551',1403.667
'0:16.555',1413.169
'0:16.559',1408.056
'0:16.563',1400.002
'0:16.566',1385.342
'0:16.570',1389.007
'0:16.574',1375.839
'0:16.578',1393.397
'0:16.582',1362.629
'0:16.586',1385.342
'0:16.590',1397.786
'0:16.594',1358.964
'0:16.598',1357.515
'0:16.602',1375.839
'0:16.605',1372.899
'0:16.609',1392.672
'0:16.613',1368.510
'0:16.617',1360.456
'0:16.621',1389.007
'0:16.625',1369.959
'0:16.629',1370.683
'0:16.633',1376.564
'0:16.637',1418.326
'0:16.641',1420.499
'0:16.645',1390.456
'0:16.648',1435.158
'0:16.652',1432.985
'0:16.656',1419.775
'0:16.660',1464.477
'0:16.664',1439.548
'0:16.668',1483.525
'0:16.672',1469.591
'0:16.676',1469.591
'0:16.680',1497.418
'0:16.684',1507.688
'0:16.688',1480.585
'0:16.691',1495.969
'0:16.695',1488.639
'0:16.699',1471.806
'0:16.703',1482.801
'0:16.707',1462.985
'0:16.711',1468.142
'0:16.715',1479.136
'0:16.719',1478.369
'0:16.723',1431.494
'0:16.727',1422.715
'0:16.730',1443.212
'0:16.734',1407.331
'0:16.738',1399.277
'0:16.742',1397.061
'0:16.746',1374.348
'0:16.750',1396.337
'0:16.754',1378.013
'0:16.758',1366.294
'0:16.762',1325.257
'0:16.766',1311.364
'0:16.770',1340.640
'0:16.773',1314.305
'0:16.777',1294.489
'0:16.781',1290.100
'0:16.785',1321.592
'0:16.789',1312.089
'0:16.793',1295.256
'0:16.797',1300.370
'0:16.801',1305.484
'0:16.805',1312.089
'0:16.809',1334.802
'0:16.813',1341.407
'0:16.816',1331.862
'0:16.820',1321.592
'0:16.824',1326.748
'0:16.828',1375.839
'0:16.832',1344.305
'0:16.836',1379.504
'0:16.840',1364.121
'0:16.844',1378.013
'0:16.848',1390.456
'0:16.852',1419.775
'0:16.855',1384.618
'0:16.859',1406.607
'0:16.863',1436.650
'0:16.867',1426.380
'0:16.871',1405.115
'0:16.875',1410.272
'0:16.879',1430.045
'0:16.883',1410.996
'0:16.887',1395.612
'0:16.891',1404.391
'0:16.895',1402.218
'0:16.898',1406.607
'0:16.902',1399.277
'0:16.906',1385.342
'0:16.910',1385.342
'0:16.914',1341.407
'0:16.918',1372.175
'0:16.922',1323.808
'0:16.926',1352.402
'0:16.930',1324.532
'0:16.934',1297.430
'0:16.938',1283.537
'0:16.941',1266.662
'0:16.945',1258.608
'0:16.949',1230.057
'0:16.953',1218.295
'0:16.957',1200.738
'0:16.961',1199.247
'0:16.965',1191.193
'0:16.969',1182.414
'0:16.973',1153.095
'0:16.977',1144.317
'0:16.980',1128.209
'0:16.984',1095.226
'0:16.988',1122.328
'0:16.992',1086.447
'0:16.996',1063.734
'0:17.000',1052.015
'0:17.004',1077.668
'0:17.008',1044.685
'0:17.012',1040.296
'0:17.016',1037.356
'0:17.020',1032.242
'0:17.023',1032.242
'0:17.027',1027.086
'0:17.031',1020.523
'0:17.035',1046.134
'0:17.039',1061.518
'0:17.043',1065.950
'0:17.047',1059.344
'0:17.051',1062.285
'0:17.055',1089.387
'0:17.059',1068.847
'0:17.063',1082.782
'0:17.066',1081.333
'0:17.070',1136.987
'0:17.074',1109.885
'0:17.078',1167.030
'0:17.082',1138.479
'0:17.086',1160.425
'0:17.090',1180.965
'0:17.094',1222.727
'0:17.098',1251.278
'0:17.102',1259.332
'0:17.105',1268.878
'0:17.109',1272.543
'0:17.113',1271.051
'0:17.117',1301.819
'0:17.121',1336.251
'0:17.125',1323.083
'0:17.129',1324.532
'0:17.133',1378.737
'0:17.137',1343.581
'0:17.141',1390.456
'0:17.145',1381.678
'0:17.148',1378.737
'0:17.152',1386.834
'0:17.156',1408.056
'0:17.160',1396.337
'0:17.164',1393.397
'0:17.168',1430.045
'0:17.172',1398.553
'0:17.176',1438.823
'0:17.180',1407.331
'0:17.184',1408.056
'0:17.188',1445.428
'0:17.191',1406.607
'0:17.195',1415.385
'0:17.199',1438.099
'0:17.203',1393.397
'0:17.207',1413.937
'0:17.211',1427.104
'0:17.215',1386.834
'0:17.219',1427.829
'0:17.223',1404.391
'0:17.227',1397.061
'0:17.230',1401.451
'0:17.234',1372.899
'0:17.238',1394.888
'0:17.242',1364.845
'0:17.246',1385.342
'0:17.250',1361.905
'0:17.254',1393.397
'0:17.258',1366.294
'0:17.262',1378.013
'0:17.266',1382.402
'0:17.270',1350.910
'0:17.273',1350.910
'0:17.277',1374.348
'0:17.281',1370.683
'0:17.285',1346.521
'0:17.289',1340.640
'0:17.293',1360.456
'0:17.297',1345.072
'0:17.301',1349.461
'0:17.305',1353.126
'0:17.309',1331.862
'0:17.313',1317.202
'0:17.316',1310.640
'0:17.320',1347.970
'0:17.324',1344.305
'0:17.328',1338.467
'0:17.332',1315.029
'0:17.336',1294.489
'0:17.340',1289.375
'0:17.344',1320.867
'0:17.348',1317.970
'0:17.352',1284.986
'0:17.355',1296.705
'0:17.359',1317.202
'0:17.363',1290.100
'0:17.367',1315.754
'0:17.371',1301.819
'0:17.375',1295.256
'0:17.379',1287.927
'0:17.383',1309.873
'0:17.387',1329.688
'0:17.391',1334.078
'0:17.395',1317.202
'0:17.398',1321.592
'0:17.402',1298.921
'0:17.406',1328.197
'0:17.410',1301.819
'0:17.414',1345.797
'0:17.418',1302.543
'0:17.422',1326.024
'0:17.426',1333.353
'0:17.430',1304.759
'0:17.434',1333.353
'0:17.438',1306.208
'0:17.441',1349.461
'0:17.445',1327.472
'0:17.449',1331.137
'0:17.453',1314.305
'0:17.457',1346.521
'0:17.461',1330.413
'0:17.465',1344.305
'0:17.469',1354.575
'0:17.473',1323.808
'0:17.477',1328.197
'0:17.480',1351.635
'0:17.484',1373.624
'0:17.488',1338.467
'0:17.492',1350.910
'0:17.496',1335.527
'0:17.500',1375.072
'0:17.504',1339.916
'0:17.508',1339.191
'0:17.512',1354.575
'0:17.516',1322.359
'0:17.520',1353.851
'0:17.523',1314.305
'0:17.527',1353.126
'0:17.531',1308.424
'0:17.535',1348.737
'0:17.539',1309.873
'0:17.543',1314.305
'0:17.547',1319.418
'0:17.551',1351.635
'0:17.555',1350.186
'0:17.559',1369.234
'0:17.563',1362.629
'0:17.566',1358.240
'0:17.570',1405.840
'0:17.574',1387.558
'0:17.578',1397.061
'0:17.582',1404.391
'0:17.586',1422.715
'0:17.590',1460.088
'0:17.594',1458.596
'0:17.598',1451.266
'0:17.602',1454.931
'0:17.605',1456.423
'0:17.609',1462.985
'0:17.613',1499.634
'0:17.617',1496.693
'0:17.621',1506.239
'0:17.625',1508.412
'0:17.629',1513.568
'0:17.633',1509.136
'0:17.637',1545.785
'0:17.641',1545.060
'0:17.645',1530.401
'0:17.648',1534.066
'0:17.652',1539.179
'0:17.656',1552.390
'0:17.660',1558.228
'0:17.664',1593.427
'0:17.668',1591.211
'0:17.672',1594.876
'0:17.676',1568.498
'0:17.680',1566.282
'0:17.684',1589.762
'0:17.688',1572.163
'0:17.691',1566.282
'0:17.695',1568.498
'0:17.699',1560.444
'0:17.703',1556.779
'0:17.707',1561.168
'0:17.711',1547.233
'0:17.715',1545.060
'0:17.719',1560.444
'0:17.723',1564.109
'0:17.727',1550.174
'0:17.730',1526.736
'0:17.734',1546.509
'0:17.738',1529.676
'0:17.742',1511.352
'0:17.746',1506.963
'0:17.750',1526.012
'0:17.754',1526.736
'0:17.758',1513.568
'0:17.762',1505.514
'0:17.766',1513.568
'0:17.770',1545.060
'0:17.773',1506.963
'0:17.777',1540.671
'0:17.781',1527.461
'0:17.785',1524.563
'0:17.789',1542.120
'0:17.793',1561.893
'0:17.797',1528.952
'0:17.801',1568.498
'0:17.805',1567.773
'0:17.809',1555.330
'0:17.813',1567.049
'0:17.816',1560.444
'0:17.820',1581.666
'0:17.824',1582.433
'0:17.828',1577.276
'0:17.832',1584.606
'0:17.836',1591.936
'0:17.840',1605.146
'0:17.844',1618.314
'0:17.848',1637.362
'0:17.852',1642.476
'0:17.855',1619.038
'0:17.859',1614.649
'0:17.863',1621.979
'0:17.867',1632.973
'0:17.871',1635.146
'0:17.875',1621.254
'0:17.879',1627.859
'0:17.883',1637.362
'0:17.887',1634.422
'0:17.891',1638.811
'0:17.895',1669.579
'0:17.898',1663.016
'0:17.902',1641.752
'0:17.906',1659.351
'0:17.910',1671.795
'0:17.914',1663.016
'0:17.918',1655.686
'0:17.922',1648.357
'0:17.926',1664.465
'0:17.930',1657.135
'0:17.934',1645.416
'0:17.938',1645.416
'0:17.941',1652.746
'0:17.945',1610.984
'0:17.949',1637.362
'0:17.953',1596.325
'0:17.957',1618.314
'0:17.961',1586.822
'0:17.965',1573.612
'0:17.969',1550.174
'0:17.973',1537.731
'0:17.977',1532.617
'0:17.980',1542.844
'0:17.984',1507.688
'0:17.988',1499.634
'0:17.992',1505.514
'0:17.996',1519.406
'0:18.000',1479.136
'0:18.004',1498.185
'0:18.008',1476.920
'0:18.012',1501.082
'0:18.016',1464.477
'0:18.020',1479.136
'0:18.023',1455.698
'0:18.027',1478.369
'0:18.031',1440.272
'0:18.035',1471.082
'0:18.039',1422.715
'0:18.043',1460.088
'0:18.047',1411.721
'0:18.051',1444.704
'0:18.055',1402.942
'0:18.059',1441.039
'0:18.063',1398.553
'0:18.066',1430.045
'0:18.070',1408.780
'0:18.074',1392.672
'0:18.078',1409.505
'0:18.082',1406.607
'0:18.086',1377.288
'0:18.090',1368.510
'0:18.094',1393.397
'0:18.098',1363.354
'0:18.102',1364.121
'0:18.105',1402.218
'0:18.109',1384.618
'0:18.113',1363.354
'0:18.117',1405.840
'0:18.121',1402.218
'0:18.125',1376.564
'0:18.129',1413.937
'0:18.133',1403.667
'0:18.137',1383.894
'0:18.141',1405.115
'0:18.145',1421.991
'0:18.148',1405.840
'0:18.152',1404.391
'0:18.156',1378.013
'0:18.160',1354.575
'0:18.164',1358.964
'0:18.168',1374.348
'0:18.172',1334.078
'0:18.176',1327.472
'0:18.180',1364.121
'0:18.184',1350.910
'0:18.188',1350.910
'0:18.191',1351.635
'0:18.195',1324.532
'0:18.199',1326.748
'0:18.203',1320.867
'0:18.207',1333.353
'0:18.211',1339.916
'0:18.215',1385.342
'0:18.219',1367.785
'0:18.223',1369.234
'0:18.227',1369.959
'0:18.230',1418.326
'0:18.234',1383.894
'0:18.238',1427.104
'0:18.242',1396.337
'0:18.246',1446.153
'0:18.250',1411.721
'0:18.254',1453.482
'0:18.258',1424.888
'0:18.262',1465.926
'0:18.266',1431.494
'0:18.270',1465.201
'0:18.273',1466.650
'0:18.277',1441.039
'0:18.281',1452.034
'0:18.285',1485.699
'0:18.289',1447.602
'0:18.293',1457.147
'0:18.297',1483.525
'0:18.301',1448.369
'0:18.305',1437.374
'0:18.309',1443.937
'0:18.313',1476.196
'0:18.316',1430.769
'0:18.320',1459.321
'0:18.324',1449.818
'0:18.328',1438.099
'0:18.332',1454.207
'0:18.336',1416.834
'0:18.340',1452.758
'0:18.344',1411.721
'0:18.348',1442.488
'0:18.352',1410.996
'0:18.355',1420.499
'0:18.359',1435.158
'0:18.363',1427.104
'0:18.367',1389.732
'0:18.371',1397.786
'0:18.375',1404.391
'0:18.379',1372.899
'0:18.383',1403.667
'0:18.387',1378.737
'0:18.391',1352.402
'0:18.395',1361.180
'0:18.398',1358.240
'0:18.402',1312.813
'0:18.406',1335.527
'0:18.410',1317.202
'0:18.414',1284.262
'0:18.418',1281.321
'0:18.422',1271.776
'0:18.426',1274.716
'0:18.430',1216.122
'0:18.434',1221.960
'0:18.438',1189.744
'0:18.441',1178.749
'0:18.445',1183.863
'0:18.449',1183.138
'0:18.453',1151.647
'0:18.457',1131.149
'0:18.461',1154.587
'0:18.465',1112.101
'0:18.469',1131.874
'0:18.473',1122.328
'0:18.477',1095.226
'0:18.480',1093.777
'0:18.484',1125.268
'0:18.488',1094.501
'0:18.492',1106.220
'0:18.496',1090.112
'0:18.500',1139.203
'0:18.504',1123.095
'0:18.508',1112.825
'0:18.512',1162.641
'0:18.516',1131.149
'0:18.520',1161.192
'0:18.523',1201.463
'0:18.527',1177.300
'0:18.531',1207.343
'0:18.535',1238.835
'0:18.539',1257.884
'0:18.543',1269.602
'0:18.547',1295.981
'0:18.551',1319.418
'0:18.555',1333.353
'0:18.559',1306.208
'0:18.563',1350.910
'0:18.566',1327.472
'0:18.570',1375.839
'0:18.574',1350.186
'0:18.578',1350.186
'0:18.582',1383.894
'0:18.586',1356.024
'0:18.590',1380.953
'0:18.594',1366.294
'0:18.598',1391.948
'0:18.602',1371.408
'0:18.605',1413.169
'0:18.609',1409.505
'0:18.613',1373.624
'0:18.617',1378.737
'0:18.621',1408.056
'0:18.625',1383.169
'0:18.629',1384.618
'0:18.633',1383.169
'0:18.637',1383.894
'0:18.641',1385.342
'0:18.645',1382.402
'0:18.648',1397.786
'0:18.652',1397.786
'0:18.656',1375.839
'0:18.660',1373.624
'0:18.664',1345.072
'0:18.668',1387.558
'0:18.672',1369.959
'0:18.676',1357.515
'0:18.680',1351.635
'0:18.684',1355.299
'0:18.688',1377.288
'0:18.691',1378.013
'0:18.695',1356.791
'0:18.699',1350.186
'0:18.703',1361.180
'0:18.707',1386.067
'0:18.711',1366.294
'0:18.715',1353.126
'0:18.719',1373.624
'0:18.723',1350.910
'0:18.727',1391.948
'0:18.730',1365.569
'0:18.734',1362.629
'0:18.738',1381.678
'0:18.742',1367.018
'0:18.746',1376.564
'0:18.750',1363.354
'0:18.754',1387.558
'0:18.758',1350.186
'0:18.762',1373.624
'0:18.766',1362.629
'0:18.770',1367.018
'0:18.773',1398.553
'0:18.777',1369.959
'0:18.781',1378.737
'0:18.785',1394.888
'0:18.789',1402.218
'0:18.793',1376.564
'0:18.797',1385.342
'0:18.801',1424.164
'0:18.805',1423.439
'0:18.809',1387.558
'0:18.813',1402.942
'0:18.816',1405.115
'0:18.820',1433.709
'0:18.824',1402.218
'0:18.828',1408.780
'0:18.832',1413.937
'0:18.836',1423.439
'0:18.840',1430.769
'0:18.844',1447.602
'0:18.848',1457.147
'0:18.852',1488.639
'0:18.855',1509.904
'0:18.859',1483.525
'0:18.863',1494.520
'0:18.867',1500.358
'0:18.871',1529.676
'0:18.875',1508.412
'0:18.879',1537.731
'0:18.883',1540.671
'0:18.887',1542.120
'0:18.891',1540.671
'0:18.895',1537.731
'0:18.898',1529.676
'0:18.902',1529.676
'0:18.906',1523.071
'0:18.910',1484.974
'0:18.914',1515.017
'0:18.918',1506.963
'0:18.922',1466.650
'0:18.926',1452.758
'0:18.930',1473.980
'0:18.934',1435.158
'0:18.938',1405.840
'0:18.941',1433.709
'0:18.945',1379.504
'0:18.949',1367.785
'0:18.953',1396.337
'0:18.957',1360.456
'0:18.961',1328.197
'0:18.965',1352.402
'0:18.969',1330.413
'0:18.973',1296.705
'0:18.977',1286.435
'0:18.980',1282.046
'0:18.984',1284.262
'0:18.988',1279.872
'0:18.992',1294.489
'0:18.996',1248.338
'0:19.000',1252.003
'0:19.004',1260.824
'0:19.008',1268.878
'0:19.012',1248.338
'0:19.016',1278.381
'0:19.020',1301.094
'0:19.023',1268.878
'0:19.027',1290.100
'0:19.031',1304.035
'0:19.035',1319.418
'0:19.039',1345.072
'0:19.043',1342.856
'0:19.047',1349.461
'0:19.051',1355.299
'0:19.055',1378.737
'0:19.059',1430.769
'0:19.063',1404.391
'0:19.066',1428.553
'0:19.070',1441.039
'0:19.074',1453.482
'0:19.078',1465.201
'0:19.082',1487.915
'0:19.086',1520.131
'0:19.090',1539.946
'0:19.094',1528.185
'0:19.098',1517.958
'0:19.102',1526.012
'0:19.105',1552.390
'0:19.109',1566.282
'0:19.113',1573.612
'0:19.117',1572.163
'0:19.121',1546.509
'0:19.125',1558.995
'0:19.129',1525.287
'0:19.133',1520.131
'0:19.137',1517.233
'0:19.141',1517.958
'0:19.145',1540.671
'0:19.148',1491.579
'0:19.152',1493.753
'0:19.156',1484.250
'0:19.160',1478.369
'0:19.164',1465.926
'0:19.168',1481.309
'0:19.172',1447.602
'0:19.176',1427.829
'0:19.180',1457.872
'0:19.184',1411.721
'0:19.188',1445.428
'0:19.191',1396.337
'0:19.195',1426.380
'0:19.199',1392.672
'0:19.203',1422.715
'0:19.207',1398.553
'0:19.211',1378.737
'0:19.215',1421.991
'0:19.219',1408.780
'0:19.223',1379.504
'0:19.227',1391.948
'0:19.230',1409.505
'0:19.234',1388.283
'0:19.238',1431.494
'0:19.242',1408.780
'0:19.246',1396.337
'0:19.250',1427.104
'0:19.254',1415.385
'0:19.258',1439.548
'0:19.262',1413.169
'0:19.266',1424.164
'0:19.270',1431.494
'0:19.273',1450.542
'0:19.277',1421.266
'0:19.281',1417.601
'0:19.285',1421.266
'0:19.289',1437.374
'0:19.293',1466.650
'0:19.297',1449.093
'0:19.301',1446.877
'0:19.305',1471.806
'0:19.309',1498.909
'0:19.313',1479.861
'0:19.316',1475.471
'0:19.320',1511.352
'0:19.324',1514.293
'0:19.328',1489.364
'0:19.332',1492.304
'0:19.336',1494.520
'0:19.340',1504.023
'0:19.344',1524.563
'0:19.348',1500.358
'0:19.352',1502.574
'0:19.355',1522.347
'0:19.359',1478.369
'0:19.363',1476.196
'0:19.367',1487.190
'0:19.371',1463.752
'0:19.375',1468.142
'0:19.379',1454.207
'0:19.383',1449.818
'0:19.387',1446.877
'0:19.391',1441.039
'0:19.395',1439.548
'0:19.398',1455.698
'0:19.402',1441.039
'0:19.406',1428.553
'0:19.410',1445.428
'0:19.414',1423.439
'0:19.418',1413.937
'0:19.422',1427.829
'0:19.426',1428.553
'0:19.430',1405.840
'0:19.434',1405.115
'0:19.438',1424.164
'0:19.441',1438.099
'0:19.445',1404.391
'0:19.449',1441.039
'0:19.453',1400.726
'0:19.457',1416.110
'0:19.461',1443.212
'0:19.465',1416.834
'0:19.469',1410.272
'0:19.473',1402.942
'0:19.477',1445.428
'0:19.480',1418.326
'0:19.484',1400.726
'0:19.488',1435.883
'0:19.492',1414.661
'0:19.496',1396.337
'0:19.500',1431.494
'0:19.504',1398.553
'0:19.508',1424.164
'0:19.512',1385.342
'0:19.516',1410.272
'0:19.520',1379.504
'0:19.523',1422.715
'0:19.527',1391.223
'0:19.531',1396.337
'0:19.535',1405.840
'0:19.539',1386.834
'0:19.543',1395.612
'0:19.547',1436.650
'0:19.551',1400.002
'0:19.555',1438.823
'0:19.559',1431.494
'0:19.563',1461.536
'0:19.566',1441.764
'0:19.570',1453.482
'0:19.574',1450.542
'0:19.578',1486.466
'0:19.582',1464.477
'0:19.586',1449.093
'0:19.590',1484.974
'0:19.594',1445.428
'0:19.598',1467.417
'0:19.602',1459.321
'0:19.605',1459.321
'0:19.609',1440.272
'0:19.613',1465.201
'0:19.617',1465.201
'0:19.621',1441.764
'0:19.625',1417.601
'0:19.629',1452.758
'0:19.633',1435.883
'0:19.637',1403.667
'0:19.641',1433.709
'0:19.645',1424.164
'0:19.648',1386.834
'0:19.652',1386.067
'0:19.656',1411.721
'0:19.660',1403.667
'0:19.664',1376.564
'0:19.668',1350.910
'0:19.672',1364.121
'0:19.676',1380.953
'0:19.680',1368.510
'0:19.684',1361.180
'0:19.688',1347.245
'0:19.691',1336.975
'0:19.695',1332.586
'0:19.699',1292.316
'0:19.703',1298.921
'0:19.707',1293.040
'0:19.711',1287.927
'0:19.715',1277.657
'0:19.719',1272.543
'0:19.723',1313.538
'0:19.727',1316.478
'0:19.730',1302.543
'0:19.734',1291.591
'0:19.738',1286.435
'0:19.742',1324.532
'0:19.746',1334.078
'0:19.750',1323.808
'0:19.754',1308.424
'0:19.758',1309.873
'0:19.762',1315.029
'0:19.766',1325.257
'0:19.770',1339.916
'0:19.773',1331.137
'0:19.777',1378.737
'0:19.781',1363.354
'0:19.785',1344.305
'0:19.789',1389.007
'0:19.793',1384.618
'0:19.797',1390.456
'0:19.801',1385.342
'0:19.805',1391.948
'0:19.809',1389.732
'0:19.813',1371.408
'0:19.816',1358.964
'0:19.820',1356.791
'0:19.824',1350.910
'0:19.828',1358.964
'0:19.832',1359.689
'0:19.836',1363.354
'0:19.840',1350.910
'0:19.844',1321.592
'0:19.848',1315.754
'0:19.852',1291.591
'0:19.855',1282.770
'0:19.859',1269.602
'0:19.863',1292.316
'0:19.867',1249.830
'0:19.871',1221.960
'0:19.875',1228.565
'0:19.879',1211.733
'0:19.883',1176.576
'0:19.887',1186.803
'0:19.891',1189.019
'0:19.895',1174.360
'0:19.898',1148.706
'0:19.902',1120.879
'0:19.906',1122.328
'0:19.910',1117.214
'0:19.914',1113.550
'0:19.918',1109.160
'0:19.922',1057.128
'0:19.926',1050.566
'0:19.930',1081.333
'0:19.934',1079.117
'0:19.938',1041.020
'0:19.941',1052.015
'0:19.945',1070.339
'0:19.949',1071.788
'0:19.953',1072.512
'0:19.957',1055.680
'0:19.961',1065.183
'0:19.965',1056.404
'0:19.969',1070.339
'0:19.973',1054.231
'0:19.977',1065.183
'0:19.980',1079.842
'0:19.984',1091.561
'0:19.988',1145.041
'0:19.992',1129.658
'0:19.996',1146.533
'0:20.000',1142.144
'0:20.004',1178.749
'0:20.008',1211.733
'0:20.012',1204.403
'0:20.016',1193.408
'0:20.020',1204.403
'0:20.023',1228.565
'0:20.027',1233.679
'0:20.031',1286.435
'0:20.035',1295.981
'0:20.039',1306.208
'0:20.043',1310.640
'0:20.047',1293.040
'0:20.051',1305.484
'0:20.055',1332.586
'0:20.059',1334.802
'0:20.063',1312.089
'0:20.066',1325.257
'0:20.070',1340.640
'0:20.074',1364.845
'0:20.078',1327.472
'0:20.082',1324.532
'0:20.086',1326.024
'0:20.090',1349.461
'0:20.094',1342.132
'0:20.098',1334.802
'0:20.102',1324.532
'0:20.105',1345.797
'0:20.109',1339.916
'0:20.113',1364.845
'0:20.117',1332.586
'0:20.121',1332.586
'0:20.125',1342.132
'0:20.129',1350.910
'0:20.133',1330.413
'0:20.137',1365.569
'0:20.141',1329.688
'0:20.145',1355.299
'0:20.148',1335.527
'0:20.152',1376.564
'0:20.156',1370.683
'0:20.160',1368.510
'0:20.164',1344.305
'0:20.168',1365.569
'0:20.172',1370.683
'0:20.176',1393.397
'0:20.180',1373.624
'0:20.184',1384.618
'0:20.188',1413.937
'0:20.191',1376.564
'0:20.195',1402.942
'0:20.199',1410.996
'0:20.203',1431.494
'0:20.207',1400.726
'0:20.211',1398.553
'0:20.215',1427.829
'0:20.219',1408.780
'0:20.223',1413.937
'0:20.227',1435.158
'0:20.230',1436.650
'0:20.234',1410.996
'0:20.238',1441.764
'0:20.242',1411.721
'0:20.246',1420.499
'0:20.250',1441.039
'0:20.254',1426.380
'0:20.258',1449.818
'0:20.262',1452.034
'0:20.266',1416.834
'0:20.270',1449.818
'0:20.273',1415.385
'0:20.277',1433.709
'0:20.281',1427.104
'0:20.285',1421.991
'0:20.289',1432.218
'0:20.293',1402.942
'0:20.297',1413.169
'0:20.301',1422.715
'0:20.305',1437.374
'0:20.309',1435.158
'0:20.313',1401.451
'0:20.316',1398.553
'0:20.320',1406.607
'0:20.324',1402.942
'0:20.328',1371.408
'0:20.332',1367.018
'0:20.336',1360.456
'0:20.340',1380.953
'0:20.344',1386.067
'0:20.348',1362.629
'0:20.352',1342.856
'0:20.355',1362.629
'0:20.359',1356.791
'0:20.363',1343.581
'0:20.367',1364.121
'0:20.371',1380.229
'0:20.375',1341.407
'0:20.379',1377.288
'0:20.383',1349.461
'0:20.387',1360.456
'0:20.391',1369.959
'0:20.395',1357.515
'0:20.398',1347.970
'0:20.402',1386.834
'0:20.406',1358.964
'0:20.410',1345.797
'0:20.414',1384.618
'0:20.418',1364.845
'0:20.422',1341.407
'0:20.426',1364.845
'0:20.430',1338.467
'0:20.434',1367.785
'0:20.438',1336.975
'0:20.441',1336.975
'0:20.445',1358.964
'0:20.449',1335.527
'0:20.453',1328.921
'0:20.457',1372.899
'0:20.461',1331.137
'0:20.465',1377.288
'0:20.469',1356.791
'0:20.473',1349.461
'0:20.477',1371.408
'0:20.480',1354.575
'0:20.484',1401.451
'0:20.488',1369.959
'0:20.492',1419.775
'0:20.496',1394.121
'0:20.500',1424.164
'0:20.504',1432.218
'0:20.508',1412.445
'0:20.512',1422.715
'0:20.516',1457.872
'0:20.520',1454.207
'0:20.523',1472.531
'0:20.527',1482.034
'0:20.531',1508.412
'0:20.535',1532.617
'0:20.539',1521.622
'0:20.543',1554.563
'0:20.547',1545.785
'0:20.551',1569.947
'0:20.555',1575.103
'0:20.559',1567.049
'0:20.563',1610.984
'0:20.566',1574.379
'0:20.570',1580.941
'0:20.574',1592.660
'0:20.578',1579.492
'0:20.582',1575.828
'0:20.586',1568.498
'0:20.590',1562.617
'0:20.594',1553.114
'0:20.598',1537.006
'0:20.602',1531.850
'0:20.605',1523.796
'0:20.609',1509.136
'0:20.613',1501.082
'0:20.617',1516.466
'0:20.621',1495.969
'0:20.625',1477.645
'0:20.629',1488.639
'0:20.633',1490.855
'0:20.637',1471.806
'0:20.641',1446.877
'0:20.645',1431.494
'0:20.648',1457.147
'0:20.652',1417.601
'0:20.656',1415.385
'0:20.660',1424.888
'0:20.664',1452.034
'0:20.668',1416.110
'0:20.672',1445.428
'0:20.676',1426.380
'0:20.680',1428.553
'0:20.684',1445.428
'0:20.688',1424.164
'0:20.691',1456.423
'0:20.695',1422.715
'0:20.699',1459.321
'0:20.703',1473.255
'0:20.707',1435.883
'0:20.711',1469.591
'0:20.715',1452.758
'0:20.719',1452.034
'0:20.723',1479.861
'0:20.727',1457.147
'0:20.730',1483.525
'0:20.734',1484.974
'0:20.738',1449.093
'0:20.742',1474.704
'0:20.746',1461.536
'0:20.750',1488.639
'0:20.754',1450.542
'0:20.758',1485.699
'0:20.762',1446.153
'0:20.766',1448.369
'0:20.770',1480.585
'0:20.773',1441.039
'0:20.777',1456.423
'0:20.781',1475.471
'0:20.785',1470.315
'0:20.789',1463.752
'0:20.793',1435.158
'0:20.797',1461.536
'0:20.801',1441.764
'0:20.805',1465.201
'0:20.809',1448.369
'0:20.813',1460.088
'0:20.816',1478.369
'0:20.820',1449.818
'0:20.824',1465.926
'0:20.828',1484.250
'0:20.832',1468.142
'0:20.836',1486.466
'0:20.840',1458.596
'0:20.844',1454.931
'0:20.848',1458.596
'0:20.852',1454.207
'0:20.855',1457.872
'0:20.859',1464.477
'0:20.863',1462.985
'0:20.867',1481.309
'0:20.871',1450.542
'0:20.875',1446.877
'0:20.879',1473.255
'0:20.883',1471.806
'0:20.887',1434.434
'0:20.891',1426.380
'0:20.895',1436.650
'0:20.898',1452.034
'0:20.902',1416.110
'0:20.906',1429.320
'0:20.910',1400.726
'0:20.914',1391.223
'0:20.918',1422.715
'0:20.922',1383.894
'0:20.926',1402.218
'0:20.930',1360.456
'0:20.934',1354.575
'0:20.938',1342.856
'0:20.941',1335.527
'0:20.945',1337.742
'0:20.949',1323.083
'0:20.953',1327.472
'0:20.957',1364.121
'0:20.961',1361.905
'0:20.965',1360.456
'0:20.969',1367.785
'0:20.973',1350.186
'0:20.977',1349.461
'0:20.980',1350.186
'0:20.984',1391.223
'0:20.988',1383.894
'0:20.992',1427.104
'0:20.996',1405.840
'0:21.000',1430.045
'0:21.004',1472.531
'0:21.008',1440.272
'0:21.012',1464.477
'0:21.016',1493.753
'0:21.020',1483.525
'0:21.023',1462.261
'0:21.027',1485.699
'0:21.031',1484.974
'0:21.035',1490.855
'0:21.039',1466.650
'0:21.043',1486.466
'0:21.047',1443.937
'0:21.051',1455.698
'0:21.055',1442.488
'0:21.059',1435.158
'0:21.063',1456.423
'0:21.066',1457.147
'0:21.070',1414.661
'0:21.074',1428.553
'0:21.078',1452.758
'0:21.082',1422.715
'0:21.086',1417.601
'0:21.090',1452.034
'0:21.094',1414.661
'0:21.098',1422.715
'0:21.102',1424.888
'0:21.105',1406.607
'0:21.109',1406.607
'0:21.113',1415.385
'0:21.117',1397.061
'0:21.121',1432.218
'0:21.125',1405.115
'0:21.129',1383.894
'0:21.133',1422.715
'0:21.137',1378.737
'0:21.141',1389.732
'0:21.145',1406.607
'0:21.148',1386.834
'0:21.152',1372.899
'0:21.156',1384.618
'0:21.160',1410.272
'0:21.164',1385.342
'0:21.168',1365.569
'0:21.172',1365.569
'0:21.176',1372.899
'0:21.180',1389.732
'0:21.184',1367.018
'0:21.188',1369.234
'0:21.191',1396.337
'0:21.195',1400.726
'0:21.199',1372.899
'0:21.203',1391.223
'0:21.207',1394.888
'0:21.211',1380.229
'0:21.215',1366.294
'0:21.219',1375.839
'0:21.223',1369.959
'0:21.227',1375.839
'0:21.230',1372.899
'0:21.234',1409.505
'0:21.238',1387.558
'0:21.242',1370.683
'0:21.246',1388.283
'0:21.250',1411.721
'0:21.254',1384.618
'0:21.258',1367.785
'0:21.262',1398.553
'0:21.266',1403.667
'0:21.270',1395.612
'0:21.273',1370.683
'0:21.277',1365.569
'0:21.281',1384.618
'0:21.285',1379.504
'0:21.289',1379.504
'0:21.293',1360.456
'0:21.297',1365.569
'0:21.301',1353.851
'0:21.305',1332.586
'0:21.309',1327.472
'0:21.313',1339.916
'0:21.316',1356.024
'0:21.320',1347.245
'0:21.324',1335.527
'0:21.328',1326.024
'0:21.332',1302.543
'0:21.336',1290.824
'0:21.340',1290.824
'0:21.344',1257.159
'0:21.348',1249.105
'0:21.352',1235.170
'0:21.355',1230.781
'0:21.359',1235.895
'0:21.363',1245.440
'0:21.367',1210.241
'0:21.371',1205.852
'0:21.375',1202.911
'0:21.379',1192.684
'0:21.383',1227.841
'0:21.387',1186.079
'0:21.391',1205.852
'0:21.395',1186.079
'0:21.398',1194.133
'0:21.402',1169.971
'0:21.406',1211.733
'0:21.410',1171.420
'0:21.414',1209.517
'0:21.418',1180.241
'0:21.422',1213.181
'0:21.426',1195.624
'0:21.430',1217.571
'0:21.434',1243.224
'0:21.438',1232.230
'0:21.441',1227.116
'0:21.445',1237.344
'0:21.449',1269.602
'0:21.453',1297.430
'0:21.457',1306.975
'0:21.461',1297.430
'0:21.465',1299.645
'0:21.469',1307.700
'0:21.473',1312.089
'0:21.477',1338.467
'0:21.480',1359.689
'0:21.484',1391.223
'0:21.488',1372.899
'0:21.492',1380.229
'0:21.496',1391.948
'0:21.500',1421.266
'0:21.504',1394.888
'0:21.508',1437.374
'0:21.512',1411.721
'0:21.516',1448.369
'0:21.520',1412.445
'0:21.523',1443.937
'0:21.527',1441.039
'0:21.531',1429.320
'0:21.535',1450.542
'0:21.539',1439.548
'0:21.543',1437.374
'0:21.547',1460.088
'0:21.551',1457.147
'0:21.555',1439.548
'0:21.559',1476.920
'0:21.563',1438.099
'0:21.566',1435.883
'0:21.570',1452.758
'0:21.574',1456.423
'0:21.578',1465.926
'0:21.582',1468.142
'0:21.586',1452.758
'0:21.590',1434.434
'0:21.594',1454.931
'0:21.598',1476.920
'0:21.602',1444.704
'0:21.605',1480.585
'0:21.609',1454.931
'0:21.613',1480.585
'0:21.617',1474.704
'0:21.621',1458.596
'0:21.625',1495.244
'0:21.629',1473.980
'0:21.633',1488.639
'0:21.637',1467.417
'0:21.641',1503.298
'0:21.645',1461.536
'0:21.648',1502.574
'0:21.652',1467.417
'0:21.656',1501.082
'0:21.660',1456.423
'0:21.664',1482.801
'0:21.668',1445.428
'0:21.672',1459.321
'0:21.676',1431.494
'0:21.680',1453.482
'0:21.684',1425.655
'0:21.688',1424.888
'0:21.691',1441.039
'0:21.695',1405.115
'0:21.699',1397.061
'0:21.703',1425.655
'0:21.707',1418.326
'0:21.711',1386.067
'0:21.715',1395.612
'0:21.719',1393.397
'0:21.723',1368.510
'0:21.727',1361.905
'0:21.730',1351.635
'0:21.734',1392.672
'0:21.738',1374.348
'0:21.742',1355.299
'0:21.746',1397.061
'0:21.750',1372.899
'0:21.754',1366.294
'0:21.758',1394.121
'0:21.762',1378.737
'0:21.766',1375.072
'0:21.770',1387.558
'0:21.773',1378.737
'0:21.777',1405.115
'0:21.781',1370.683
'0:21.785',1391.223
'0:21.789',1369.234
'0:21.793',1363.354
'0:21.797',1358.964
'0:21.801',1358.964
'0:21.805',1377.288
'0:21.809',1357.515
'0:21.813',1358.964
'0:21.816',1336.975
'0:21.820',1333.353
'0:21.824',1322.359
'0:21.828',1335.527
'0:21.832',1326.024
'0:21.836',1298.154
'0:21.840',1323.083
'0:21.844',1297.430
'0:21.848',1279.872
'0:21.852',1299.645
'0:21.855',1282.770
'0:21.859',1309.148
'0:21.863',1307.700
'0:21.867',1279.105
'0:21.871',1282.046
'0:21.875',1305.484
'0:21.879',1272.543
'0:21.883',1306.975
'0:21.887',1273.267
'0:21.891',1293.040
'0:21.895',1300.370
'0:21.898',1287.927
'0:21.902',1303.310
'0:21.906',1328.921
'0:21.910',1336.251
'0:21.914',1333.353
'0:21.918',1334.078
'0:21.922',1363.354
'0:21.926',1400.002
'0:21.930',1405.840
'0:21.934',1392.672
'0:21.938',1436.650
'0:21.941',1423.439
'0:21.945',1472.531
'0:21.949',1454.207
'0:21.953',1492.304
'0:21.957',1480.585
'0:21.961',1520.131
'0:21.965',1550.898
'0:21.969',1520.898
'0:21.973',1556.779
'0:21.977',1581.666
'0:21.980',1572.887
'0:21.984',1557.503
'0:21.988',1564.833
'0:21.992',1567.773
'0:21.996',1563.384
'0:22.000',1567.049
'0:22.004',1573.612
'0:22.008',1564.833
'0:22.012',1573.612
'0:22.016',1579.492
'0:22.020',1577.276
'0:22.023',1549.449
'0:22.027',1556.055
'0:22.031',1552.390
'0:22.035',1512.077
'0:22.039',1501.849
'0:22.043',1509.136
'0:22.047',1517.958
'0:22.051',1494.520
'0:22.055',1465.926
'0:22.059',1450.542
'0:22.063',1470.315
'0:22.066',1460.088
'0:22.070',1431.494
'0:22.074',1426.380
'0:22.078',1437.374
'0:22.082',1430.769
'0:22.086',1390.456
'0:22.090',1398.553
'0:22.094',1402.942
'0:22.098',1373.624
'0:22.102',1389.732
'0:22.105',1409.505
'0:22.109',1392.672
'0:22.113',1374.348
'0:22.117',1375.072
'0:22.121',1403.667
'0:22.125',1373.624
'0:22.129',1419.050
'0:22.133',1414.661
'0:22.137',1401.451
'0:22.141',1427.829
'0:22.145',1401.451
'0:22.148',1409.505
'0:22.152',1427.829
'0:22.156',1457.872
'0:22.160',1423.439
'0:22.164',1428.553
'0:22.168',1441.764
'0:22.172',1443.212
'0:22.176',1465.201
'0:22.180',1482.034
'0:22.184',1499.634
'0:22.188',1498.185
'0:22.191',1478.369
'0:22.195',1517.958
'0:22.199',1517.958
'0:22.203',1493.753
'0:22.207',1497.418
'0:22.211',1522.347
'0:22.215',1516.466
'0:22.219',1496.693
'0:22.223',1490.131
'0:22.227',1496.693
'0:22.230',1501.082
'0:22.234',1478.369
'0:22.238',1485.699
'0:22.242',1471.082
'0:22.246',1466.650
'0:22.250',1443.212
'0:22.254',1436.650
'0:22.258',1459.321
'0:22.262',1432.985
'0:22.266',1428.553
'0:22.270',1438.099
'0:22.273',1440.272
'0:22.277',1424.888
'0:22.281',1405.840
'0:22.285',1401.451
'0:22.289',1414.661
'0:22.293',1433.709
'0:22.297',1403.667
'0:22.301',1403.667
'0:22.305',1403.667
'0:22.309',1421.991
'0:22.313',1387.558
'0:22.316',1414.661
'0:22.320',1414.661
'0:22.324',1383.894
'0:22.328',1382.402
'0:22.332',1372.175
'0:22.336',1368.510
'0:22.340',1370.683
'0:22.344',1373.624
'0:22.348',1369.234
'0:22.352',1394.121
'0:22.355',1407.331
'0:22.359',1367.785
'0:22.363',1411.721
'0:22.367',1373.624
'0:22.371',1394.888
'0:22.375',1421.991
'0:22.379',1417.601
'0:22.383',1386.067
'0:22.387',1410.996
'0:22.391',1394.888
'0:22.395',1422.715
'0:22.398',1397.786
'0:22.402',1427.829
'0:22.406',1400.002
'0:22.410',1417.601
'0:22.414',1404.391
'0:22.418',1437.374
'0:22.422',1401.451
'0:22.426',1440.272
'0:22.430',1398.553
'0:22.434',1441.764
'0:22.438',1418.326
'0:22.441',1402.942
'0:22.445',1407.331
'0:22.449',1426.380
'0:22.453',1436.650
'0:22.457',1449.818
'0:22.461',1443.937
'0:22.465',1413.169
'0:22.469',1421.266
'0:22.473',1441.764
'0:22.477',1438.099
'0:22.480',1405.840
'0:22.484',1431.494
'0:22.488',1424.164
'0:22.492',1403.667
'0:22.496',1433.709
'0:22.500',1421.991
'0:22.504',1412.445
'0:22.508',1395.612
'0:22.512',1406.607
'0:22.516',1406.607
'0:22.520',1394.888
'0:22.523',1387.558
'0:22.527',1375.839
'0:22.531',1353.851
'0:22.535',1347.245
'0:22.539',1367.018
'0:22.543',1372.899
'0:22.547',1367.018
'0:22.551',1358.240
'0:22.555',1326.748
'0:22.559',1302.543
'0:22.563',1311.364
'0:22.566',1295.981
'0:22.570',1288.651
'0:22.574',1293.040
'0:22.578',1290.100
'0:22.582',1289.375
'0:22.586',1306.975
'0:22.590',1331.862
'0:22.594',1334.802
'0:22.598',1299.645
'0:22.602',1318.694
'0:22.605',1338.467
'0:22.609',1352.402
'0:22.613',1365.569
'0:22.617',1331.862
'0:22.621',1342.856
'0:22.625',1355.299
'0:22.629',1347.970
'0:22.633',1358.964
'0:22.637',1380.229
'0:22.641',1371.408
'0:22.645',1376.564
'0:22.648',1382.402
'0:22.652',1394.888
'0:22.656',1421.266
'0:22.660',1427.104
'0:22.664',1402.942
'0:22.668',1405.115
'0:22.672',1445.428
'0:22.676',1408.780
'0:22.680',1454.931
'0:22.684',1414.661
'0:22.688',1457.147
'0:22.691',1419.775
'0:22.695',1454.207
'0:22.699',1424.164
'0:22.703',1466.650
'0:22.707',1424.888
'0:22.711',1453.482
'0:22.715',1462.985
'0:22.719',1423.439
'0:22.723',1435.158
'0:22.727',1448.369
'0:22.730',1421.991
'0:22.734',1407.331
'0:22.738',1432.218
'0:22.742',1424.164
'0:22.746',1408.056
'0:22.750',1396.337
'0:22.754',1343.581
'0:22.758',1328.197
'0:22.762',1328.921
'0:22.766',1331.862
'0:22.770',1282.770
'0:22.773',1299.645
'0:22.777',1249.105
'0:22.781',1274.716
'0:22.785',1243.224
'0:22.789',1197.798
'0:22.793',1182.414
'0:22.797',1192.684
'0:22.801',1198.522
'0:22.805',1167.755
'0:22.809',1169.246
'0:22.813',1125.993
'0:22.816',1116.490
'0:22.820',1117.214
'0:22.824',1119.430
'0:22.828',1106.220
'0:22.832',1114.998
'0:22.836',1135.538
'0:22.840',1145.041
'0:22.844',1158.252
'0:22.848',1147.257
'0:22.852',1145.041
'0:22.855',1147.257
'0:22.859',1184.630
'0:22.863',1191.193
'0:22.867',1169.971
'0:22.871',1226.392
'0:22.875',1196.349
'0:22.879',1241.008
'0:22.883',1216.846
'0:22.887',1269.602
'0:22.891',1232.954
'0:22.895',1268.111
'0:22.898',1285.711
'0:22.902',1299.645
'0:22.906',1307.700
'0:22.910',1320.867
'0:22.914',1313.538
'0:22.918',1296.705
'0:22.922',1300.370
'0:22.926',1311.364
'0:22.930',1326.024
'0:22.934',1336.975
'0:22.938',1328.921
'0:22.941',1335.527
'0:22.945',1341.407
'0:22.949',1338.467
'0:22.953',1347.245
'0:22.957',1344.305
'0:22.961',1344.305
'0:22.965',1353.851
'0:22.969',1375.839
'0:22.973',1380.953
'0:22.977',1378.013
'0:22.980',1386.067
'0:22.984',1391.223
'0:22.988',1392.672
'0:22.992',1364.845
'0:22.996',1391.948
'0:23.000',1392.672
'0:23.004',1369.234
'0:23.008',1370.683
'0:23.012',1371.408
'0:23.016',1389.732
'0:23.020',1395.612
'0:23.023',1386.067
'0:23.027',1371.408
'0:23.031',1378.013
'0:23.035',1363.354
'0:23.039',1369.959
'0:23.043',1371.408
'0:23.047',1376.564
'0:23.051',1395.612
'0:23.055',1380.229
'0:23.059',1416.834
'0:23.063',1377.288
'0:23.066',1383.894
'0:23.070',1386.834
'0:23.074',1386.067
'0:23.078',1388.283
'0:23.082',1383.894
'0:23.086',1399.277
'0:23.090',1392.672
'0:23.094',1395.612
'0:23.098',1401.451
'0:23.102',1398.553
'0:23.105',1382.402
'0:23.109',1377.288
'0:23.113',1381.678
'0:23.117',1379.504
'0:23.121',1425.655
'0:23.125',1394.888
'0:23.129',1435.158
'0:23.133',1412.445
'0:23.137',1445.428
'0:23.141',1429.320
'0:23.145',1471.806
'0:23.148',1484.250
'0:23.152',1479.136
'0:23.156',1471.082
'0:23.160',1487.190
'0:23.164',1494.520
'0:23.168',1515.017
'0:23.172',1523.796
'0:23.176',1535.515
'0:23.180',1542.120
'0:23.184',1551.665
'0:23.188',1588.271
'0:23.191',1570.714
'0:23.195',1570.714
'0:23.199',1580.941
'0:23.203',1594.876
'0:23.207',1605.871
'0:23.211',1609.535
'0:23.215',1580.941
'0:23.219',1599.265
'0:23.223',1599.990
'0:23.227',1573.612
'0:23.230',1599.265
'0:23.234',1564.833
'0:23.238',1578.001
'0:23.242',1574.379
'0:23.246',1553.839
'0:23.250',1563.384
'0:23.254',1526.012
'0:23.258',1549.449
'0:23.262',1546.509
'0:23.266',1506.963
'0:23.270',1529.676
'0:23.273',1493.028
'0:23.277',1490.855
'0:23.281',1503.298
'0:23.285',1472.531
'0:23.289',1453.482
'0:23.293',1429.320
'0:23.297',1414.661
'0:23.301',1401.451
'0:23.305',1389.732
'0:23.309',1379.504
'0:23.313',1369.959
'0:23.316',1383.169
'0:23.320',1388.283
'0:23.324',1336.251
'0:23.328',1368.510
'0:23.332',1324.532
'0:23.336',1350.186
'0:23.340',1312.089
'0:23.344',1346.521
'0:23.348',1299.645
'0:23.352',1313.538
'0:23.355',1325.257
'0:23.359',1297.430
'0:23.363',1318.694
'0:23.367',1317.970
'0:23.371',1342.132
'0:23.375',1312.089
'0:23.379',1333.353
'0:23.383',1347.970
'0:23.387',1342.856
'0:23.391',1353.851
'0:23.395',1360.456
'0:23.398',1368.510
'0:23.402',1419.050
'0:23.406',1396.337
'0:23.410',1443.937
'0:23.414',1416.834
'0:23.418',1457.872
'0:23.422',1445.428
'0:23.426',1475.471
