'Elapsed time','wrist_ppg'
'hh:mm:ss.mmm','mV'
'0:00.000',1631.497
'0:00.004',1652.750
'0:00.008',1663.731
'0:00.012',1633.686
'0:00.016',1643.218
'0:00.020',1659.352
'0:00.023',1662.990
'0:00.027',1664.472
'0:00.031',1682.795
'0:00.035',1697.447
'0:00.039',1690.845
'0:00.043',1653.491
'0:00.047',1657.870
'0:00.051',1657.870
'0:00.055',1659.352
'0:00.059',1652.009
'0:00.063',1657.870
'0:00.066',1647.631
'0:00.070',1635.909
'0:00.074',1601.452
'0:00.078',1573.631
'0:00.082',1561.169
'0:00.086',1553.859
'0:00.090',1569.960
'0:00.094',1550.929
'0:00.098',1542.138
'0:00.102',1536.277
'0:00.105',1519.403
'0:00.109',1534.054
'0:00.113',1510.612
'0:00.117',1549.447
'0:00.121',1540.656
'0:00.125',1552.377
'0:00.129',1591.213
'0:00.133',1610.243
'0:00.137',1653.491
'0:00.141',1726.009
'0:00.145',1736.989
'0:00.148',1813.919
'0:00.152',1823.452
'0:00.156',1891.591
'0:00.160',1939.183
'0:00.164',1980.949
'0:00.168',2023.456
'0:00.172',2057.138
'0:00.176',2084.994
'0:00.180',2140.670
'0:00.184',2145.049
'0:00.188',2139.188
'0:00.191',2142.860
'0:00.195',2150.910
'0:00.199',2139.929
'0:00.203',2117.935
'0:00.207',2071.790
'0:00.211',2043.969
'0:00.215',1972.158
'0:00.219',1938.476
'0:00.223',1879.869
'0:00.227',1819.039
'0:00.230',1749.452
'0:00.234',1699.636
'0:00.238',1588.283
'0:00.242',1559.720
'0:00.246',1456.417
'0:00.250',1391.208
'0:00.254',1339.944
'0:00.258',1261.532
'0:00.262',1194.875
'0:00.266',1145.059
'0:00.270',1086.452
'0:00.273',1009.522
'0:00.277',978.770
'0:00.281',931.144
'0:00.285',893.790
'0:00.289',856.403
'0:00.293',819.790
'0:00.297',789.005
'0:00.301',739.930
'0:00.305',745.791
'0:00.309',701.094
'0:00.313',737.000
'0:00.316',717.228
'0:00.320',714.298
'0:00.324',695.975
'0:00.328',747.980
'0:00.332',719.417
'0:00.336',773.612
'0:00.340',758.960
'0:00.344',778.024
'0:00.348',834.442
'0:00.352',857.144
'0:00.355',879.105
'0:00.359',909.149
'0:00.363',915.010
'0:00.367',916.492
'0:00.371',961.895
'0:00.375',993.422
'0:00.379',1012.452
'0:00.383',1046.168
'0:00.387',1104.034
'0:00.391',1115.015
'0:00.395',1125.288
'0:00.398',1185.343
'0:00.402',1189.014
'0:00.406',1212.457
'0:00.410',1274.735
'0:00.414',1278.373
'0:00.418',1286.457
'0:00.422',1309.900
'0:00.426',1350.924
'0:00.430',1337.721
'0:00.434',1353.114
'0:00.438',1386.830
'0:00.441',1421.994
'0:00.445',1412.462
'0:00.449',1413.203
'0:00.453',1404.412
'0:00.457',1434.423
'0:00.461',1418.322
'0:00.465',1455.676
'0:00.469',1425.631
'0:00.473',1431.492
'0:00.477',1435.164
'0:00.480',1452.005
'0:00.484',1434.423
'0:00.488',1416.133
'0:00.492',1462.278
'0:00.496',1424.183
'0:00.500',1461.537
'0:00.504',1438.835
'0:00.508',1464.467
'0:00.512',1473.258
'0:00.516',1468.879
'0:00.520',1504.044
'0:00.523',1482.790
'0:00.527',1482.790
'0:00.531',1490.099
'0:00.535',1500.372
'0:00.539',1516.472
'0:00.543',1520.144
'0:00.547',1479.119
'0:00.551',1494.511
'0:00.555',1471.069
'0:00.559',1468.879
'0:00.563',1500.372
'0:00.566',1475.447
'0:00.570',1463.019
'0:00.574',1465.208
'0:00.578',1485.720
'0:00.582',1472.517
'0:00.586',1454.228
'0:00.590',1455.676
'0:00.594',1466.656
'0:00.598',1445.437
'0:00.602',1487.910
'0:00.605',1493.770
'0:00.609',1468.138
'0:00.613',1491.581
'0:00.617',1525.263
'0:00.621',1519.403
'0:00.625',1547.258
'0:00.629',1567.029
'0:00.633',1596.333
'0:00.637',1646.149
'0:00.641',1689.363
'0:00.645',1709.875
'0:00.648',1723.820
'0:00.652',1740.661
'0:00.656',1777.307
'0:00.660',1810.248
'0:00.664',1824.900
'0:00.668',1852.755
'0:00.672',1862.287
'0:00.676',1871.785
'0:00.680',1905.501
'0:00.684',1878.387
'0:00.688',1877.646
'0:00.691',1868.148
'0:00.695',1868.855
'0:00.699',1876.939
'0:00.703',1851.273
'0:00.707',1837.362
'0:00.711',1805.869
'0:00.715',1783.168
'0:00.719',1746.521
'0:00.723',1750.900
'0:00.727',1697.447
'0:00.730',1702.566
'0:00.734',1663.731
'0:00.738',1621.965
'0:00.742',1576.561
'0:00.746',1550.929
'0:00.750',1539.208
'0:00.754',1490.099
'0:00.758',1477.670
'0:00.762',1472.517
'0:00.766',1419.063
'0:00.770',1418.322
'0:00.773',1375.108
'0:00.777',1333.342
'0:00.781',1303.298
'0:00.785',1312.830
'0:00.789',1284.234
'0:00.793',1208.786
'0:00.797',1186.084
'0:00.801',1129.666
'0:00.805',1120.134
'0:00.809',1080.591
'0:00.813',1016.865
'0:00.816',967.756
'0:00.820',895.238
'0:00.824',887.188
'0:00.828',836.631
'0:00.832',767.751
'0:00.836',752.392
'0:00.840',687.184
'0:00.844',669.602
'0:00.848',628.577
'0:00.852',572.159
'0:00.855',554.577
'0:00.859',483.508
'0:00.863',498.900
'0:00.867',468.856
'0:00.871',410.249
'0:00.875',379.497
'0:00.879',392.667
'0:00.883',388.288
'0:00.887',372.154
'0:00.891',367.035
'0:00.895',361.174
'0:00.898',361.174
'0:00.902',358.244
'0:00.906',370.706
'0:00.910',386.065
'0:00.914',373.636
'0:00.918',424.160
'0:00.922',435.174
'0:00.926',471.079
'0:00.930',529.686
'0:00.934',538.477
'0:00.938',597.084
'0:00.941',685.702
'0:00.945',734.810
'0:00.949',802.916
'0:00.953',883.517
'0:00.957',927.472
'0:00.961',1018.313
'0:00.965',1085.711
'0:00.969',1140.647
'0:00.973',1182.413
'0:00.977',1272.512
'0:00.980',1340.651
'0:00.984',1394.139
'0:00.988',1435.905
'0:00.992',1455.676
'0:00.996',1530.417
'0:01.000',1519.403
'0:01.004',1577.302
'0:01.008',1550.188
'0:01.012',1578.010
'0:01.016',1569.219
'0:01.020',1563.358
'0:01.023',1574.372
'0:01.027',1531.865
'0:01.031',1490.840
'0:01.035',1498.890
'0:01.039',1449.074
'0:01.043',1425.631
'0:01.047',1382.417
'0:01.051',1333.342
'0:01.055',1274.735
'0:01.059',1213.905
'0:01.063',1165.571
'0:01.066',1141.388
'0:01.070',1090.831
'0:01.074',1055.667
'0:01.078',983.890
'0:01.082',987.561
'0:01.086',945.795
'0:01.090',926.731
'0:01.094',902.581
'0:01.098',889.378
'0:01.102',887.188
'0:01.105',861.523
'0:01.109',890.860
'0:01.113',888.637
'0:01.117',907.701
'0:01.121',897.428
'0:01.125',964.118
'0:01.129',979.477
'0:01.133',1024.915
'0:01.137',1057.149
'0:01.141',1084.970
'0:01.145',1095.243
'0:01.148',1179.482
'0:01.152',1207.337
'0:01.156',1265.203
'0:01.160',1307.677
'0:01.164',1348.735
'0:01.168',1374.367
'0:01.172',1400.740
'0:01.176',1422.701
'0:01.180',1493.029
'0:01.184',1514.283
'0:01.188',1522.333
'0:01.191',1575.079
'0:01.195',1602.193
'0:01.199',1609.536
'0:01.203',1632.979
'0:01.207',1661.541
'0:01.211',1671.073
'0:01.215',1684.243
'0:01.219',1708.427
'0:01.223',1741.402
'0:01.227',1705.497
'0:01.230',1715.029
'0:01.234',1725.268
'0:01.238',1713.547
'0:01.242',1678.382
'0:01.246',1646.890
'0:01.250',1630.049
'0:01.254',1605.865
'0:01.258',1596.333
'0:01.262',1563.358
'0:01.266',1555.308
'0:01.270',1500.372
'0:01.273',1507.681
'0:01.277',1455.676
'0:01.281',1420.512
'0:01.285',1410.272
'0:01.289',1391.949
'0:01.293',1368.506
'0:01.297',1355.303
'0:01.301',1298.885
'0:01.305',1282.044
'0:01.309',1287.164
'0:01.313',1295.248
'0:01.316',1242.502
'0:01.320',1264.462
'0:01.324',1235.159
'0:01.328',1268.134
'0:01.332',1259.343
'0:01.336',1252.741
'0:01.340',1279.855
'0:01.344',1249.070
'0:01.348',1259.343
'0:01.352',1306.228
'0:01.355',1273.253
'0:01.359',1294.507
'0:01.363',1311.348
'0:01.367',1320.880
'0:01.371',1336.273
'0:01.375',1361.905
'0:01.379',1369.248
'0:01.383',1350.183
'0:01.387',1357.526
'0:01.391',1394.880
'0:01.395',1425.631
'0:01.398',1408.049
'0:01.402',1410.272
'0:01.406',1450.556
'0:01.410',1432.233
'0:01.414',1444.696
'0:01.418',1481.308
'0:01.422',1453.487
'0:01.426',1503.303
'0:01.430',1482.790
'0:01.434',1512.094
'0:01.438',1522.333
'0:01.441',1512.094
'0:01.445',1533.347
'0:01.449',1542.845
'0:01.453',1521.626
'0:01.457',1553.859
'0:01.461',1565.581
'0:01.465',1547.999
'0:01.469',1547.999
'0:01.473',1551.636
'0:01.477',1557.497
'0:01.480',1571.442
'0:01.484',1567.029
'0:01.488',1568.511
'0:01.492',1556.049
'0:01.496',1549.447
'0:01.500',1556.790
'0:01.504',1551.636
'0:01.508',1553.118
'0:01.512',1547.258
'0:01.516',1496.701
'0:01.520',1513.542
'0:01.523',1460.796
'0:01.527',1444.696
'0:01.531',1444.696
'0:01.535',1416.840
'0:01.539',1349.442
'0:01.543',1341.392
'0:01.547',1333.342
'0:01.551',1278.373
'0:01.555',1238.089
'0:01.559',1233.710
'0:01.563',1218.318
'0:01.566',1172.880
'0:01.570',1147.248
'0:01.574',1167.761
'0:01.578',1158.970
'0:01.582',1147.989
'0:01.586',1135.527
'0:01.590',1143.577
'0:01.594',1149.438
'0:01.598',1155.298
'0:01.602',1168.502
'0:01.605',1161.900
'0:01.609',1233.710
'0:01.613',1231.487
'0:01.617',1257.153
'0:01.621',1315.760
'0:01.625',1385.348
'0:01.629',1425.631
'0:01.633',1435.164
'0:01.637',1479.119
'0:01.641',1558.238
'0:01.645',1564.840
'0:01.648',1608.054
'0:01.652',1646.890
'0:01.656',1695.965
'0:01.660',1717.959
'0:01.664',1734.800
'0:01.668',1790.477
'0:01.672',1777.307
'0:01.676',1790.477
'0:01.680',1801.457
'0:01.684',1780.945
'0:01.688',1758.243
'0:01.691',1778.755
'0:01.695',1758.243
'0:01.699',1730.388
'0:01.703',1705.497
'0:01.707',1638.099
'0:01.711',1616.845
'0:01.715',1578.751
'0:01.719',1577.302
'0:01.723',1508.422
'0:01.727',1460.088
'0:01.730',1430.785
'0:01.734',1386.830
'0:01.738',1358.974
'0:01.742',1341.392
'0:01.746',1293.025
'0:01.750',1253.482
'0:01.754',1263.721
'0:01.758',1226.368
'0:01.762',1189.755
'0:01.766',1167.020
'0:01.770',1147.248
'0:01.773',1139.198
'0:01.777',1157.521
'0:01.781',1147.248
'0:01.785',1134.786
'0:01.789',1142.870
'0:01.793',1144.318
'0:01.797',1145.800
'0:01.801',1149.438
'0:01.805',1137.009
'0:01.809',1137.009
'0:01.813',1133.338
'0:01.816',1189.755
'0:01.820',1187.532
'0:01.824',1180.223
'0:01.828',1223.437
'0:01.832',1230.780
'0:01.836',1273.994
'0:01.840',1260.791
'0:01.844',1299.626
'0:01.848',1309.159
'0:01.852',1320.880
'0:01.855',1343.582
'0:01.859',1391.949
'0:01.863',1419.063
'0:01.867',1432.974
'0:01.871',1429.303
'0:01.875',1446.885
'0:01.879',1490.840
'0:01.883',1482.049
'0:01.887',1531.124
'0:01.891',1549.447
'0:01.895',1556.049
'0:01.898',1535.536
'0:01.902',1550.929
'0:01.906',1558.238
'0:01.910',1580.940
'0:01.914',1583.163
'0:01.918',1580.233
'0:01.922',1580.233
'0:01.926',1584.611
'0:01.930',1578.010
'0:01.934',1591.213
'0:01.938',1607.313
'0:01.941',1610.984
'0:01.945',1565.581
'0:01.949',1565.581
'0:01.953',1583.870
'0:01.957',1577.302
'0:01.961',1533.347
'0:01.965',1554.567
'0:01.969',1515.765
'0:01.973',1542.138
'0:01.977',1495.960
'0:01.980',1531.124
'0:01.984',1494.511
'0:01.988',1477.670
'0:01.992',1488.651
'0:01.996',1458.606
'0:02.000',1480.601
'0:02.004',1481.308
'0:02.008',1456.417
'0:02.012',1447.626
'0:02.016',1424.183
'0:02.020',1457.865
'0:02.023',1425.631
'0:02.027',1429.303
'0:02.031',1410.272
'0:02.035',1452.746
'0:02.039',1423.442
'0:02.043',1418.322
'0:02.047',1406.601
'0:02.051',1409.531
'0:02.055',1408.049
'0:02.059',1451.297
'0:02.063',1445.437
'0:02.066',1442.506
'0:02.070',1429.303
'0:02.074',1445.437
'0:02.078',1461.537
'0:02.082',1505.492
'0:02.086',1487.910
'0:02.090',1531.124
'0:02.094',1503.303
'0:02.098',1546.517
'0:02.102',1539.915
'0:02.105',1597.074
'0:02.109',1577.302
'0:02.113',1608.054
'0:02.117',1641.029
'0:02.121',1645.408
'0:02.125',1637.358
'0:02.129',1653.491
'0:02.133',1662.990
'0:02.137',1712.098
'0:02.141',1711.357
'0:02.145',1733.318
'0:02.148',1741.402
'0:02.152',1733.318
'0:02.156',1729.680
'0:02.160',1760.432
'0:02.164',1761.173
'0:02.168',1753.831
'0:02.172',1729.680
'0:02.176',1726.750
'0:02.180',1725.268
'0:02.184',1722.338
'0:02.188',1758.243
'0:02.191',1720.889
'0:02.195',1720.889
'0:02.199',1749.452
'0:02.203',1739.179
'0:02.207',1715.029
'0:02.211',1739.179
'0:02.215',1733.318
'0:02.219',1701.084
'0:02.223',1694.516
'0:02.227',1692.293
'0:02.230',1676.934
'0:02.234',1704.756
'0:02.238',1701.825
'0:02.242',1676.193
'0:02.246',1652.009
'0:02.250',1676.934
'0:02.254',1668.850
'0:02.258',1642.477
'0:02.262',1613.915
'0:02.266',1601.452
'0:02.270',1589.024
'0:02.273',1580.940
'0:02.277',1575.820
'0:02.281',1581.681
'0:02.285',1553.859
'0:02.289',1544.327
'0:02.293',1526.004
'0:02.297',1528.935
'0:02.301',1519.403
'0:02.305',1498.183
'0:02.309',1476.188
'0:02.313',1440.283
'0:02.316',1424.183
'0:02.320',1406.601
'0:02.324',1415.392
'0:02.328',1398.551
'0:02.332',1386.830
'0:02.336',1390.467
'0:02.340',1357.526
'0:02.344',1361.164
'0:02.348',1345.805
'0:02.352',1308.418
'0:02.355',1298.885
'0:02.359',1319.398
'0:02.363',1334.083
'0:02.367',1331.860
'0:02.371',1315.760
'0:02.375',1304.746
'0:02.379',1326.741
'0:02.383',1342.133
'0:02.387',1358.974
'0:02.391',1367.765
'0:02.395',1372.178
'0:02.398',1379.487
'0:02.402',1378.746
'0:02.406',1406.601
'0:02.410',1391.949
'0:02.414',1397.069
'0:02.418',1419.771
'0:02.422',1461.537
'0:02.426',1460.088
'0:02.430',1452.746
'0:02.434',1503.303
'0:02.438',1497.442
'0:02.441',1522.333
'0:02.445',1542.845
'0:02.449',1539.915
'0:02.453',1580.940
'0:02.457',1583.163
'0:02.461',1578.751
'0:02.465',1602.193
'0:02.469',1590.472
'0:02.473',1613.915
'0:02.477',1575.079
'0:02.480',1567.770
'0:02.484',1560.427
'0:02.488',1509.163
'0:02.492',1521.626
'0:02.496',1469.587
'0:02.500',1416.133
'0:02.504',1380.969
'0:02.508',1361.164
'0:02.512',1290.094
'0:02.516',1254.930
'0:02.520',1183.895
'0:02.523',1134.786
'0:02.527',1105.482
'0:02.531',1024.915
'0:02.535',986.820
'0:02.539',917.940
'0:02.543',900.358
'0:02.547',830.771
'0:02.551',821.980
'0:02.555',772.905
'0:02.559',748.721
'0:02.563',727.467
'0:02.566',692.303
'0:02.570',710.626
'0:02.574',689.373
'0:02.578',694.493
'0:02.582',692.303
'0:02.586',711.367
'0:02.590',731.139
'0:02.594',717.935
'0:02.598',757.512
'0:02.602',797.055
'0:02.605',821.980
'0:02.609',843.233
'0:02.613',860.074
'0:02.617',866.676
'0:02.621',923.801
'0:02.625',970.686
'0:02.629',973.617
'0:02.633',989.010
'0:02.637',1020.502
'0:02.641',1087.193
'0:02.645',1093.054
'0:02.648',1131.148
'0:02.652',1155.298
'0:02.656',1213.905
'0:02.660',1227.850
'0:02.664',1264.462
'0:02.668',1286.457
'0:02.672',1340.651
'0:02.676',1361.164
'0:02.680',1383.158
'0:02.684',1400.740
'0:02.688',1422.701
'0:02.691',1491.581
'0:02.695',1487.169
'0:02.699',1528.935
'0:02.703',1526.004
'0:02.707',1582.422
'0:02.711',1564.840
'0:02.715',1597.074
'0:02.719',1616.104
'0:02.723',1613.174
'0:02.727',1636.617
'0:02.730',1634.427
'0:02.734',1638.099
'0:02.738',1672.522
'0:02.742',1670.332
'0:02.746',1662.990
'0:02.750',1639.547
'0:02.754',1629.308
'0:02.758',1614.656
'0:02.762',1610.984
'0:02.766',1608.054
'0:02.770',1624.895
'0:02.773',1584.611
'0:02.777',1567.029
'0:02.781',1584.611
'0:02.785',1569.219
'0:02.789',1523.815
'0:02.793',1535.536
'0:02.797',1492.322
'0:02.801',1509.904
'0:02.805',1465.949
'0:02.809',1489.392
'0:02.813',1435.905
'0:02.816',1465.949
'0:02.820',1416.840
'0:02.824',1412.462
'0:02.828',1442.506
'0:02.832',1431.492
'0:02.836',1403.671
'0:02.840',1391.208
'0:02.844',1408.049
'0:02.848',1434.423
'0:02.852',1399.258
'0:02.855',1409.531
'0:02.859',1402.930
'0:02.863',1408.049
'0:02.867',1414.651
'0:02.871',1429.303
'0:02.875',1432.974
'0:02.879',1437.353
'0:02.883',1433.715
'0:02.887',1452.746
'0:02.891',1476.188
'0:02.895',1441.765
'0:02.898',1463.019
'0:02.902',1464.467
'0:02.906',1485.720
'0:02.910',1452.005
'0:02.914',1469.587
'0:02.918',1487.910
'0:02.922',1463.726
'0:02.926',1453.487
'0:02.930',1489.392
'0:02.934',1463.726
'0:02.938',1446.144
'0:02.941',1484.979
'0:02.945',1460.088
'0:02.949',1459.347
'0:02.953',1459.347
'0:02.957',1443.955
'0:02.961',1481.308
'0:02.965',1459.347
'0:02.969',1461.537
'0:02.973',1452.005
'0:02.977',1480.601
'0:02.980',1461.537
'0:02.984',1465.208
'0:02.988',1486.461
'0:02.992',1464.467
'0:02.996',1499.631
'0:03.000',1484.238
'0:03.004',1475.447
'0:03.008',1505.492
'0:03.012',1480.601
'0:03.016',1517.213
'0:03.020',1499.631
'0:03.023',1509.163
'0:03.027',1508.422
'0:03.031',1523.815
'0:03.035',1509.904
'0:03.039',1520.144
'0:03.043',1556.049
'0:03.047',1518.695
'0:03.051',1552.377
'0:03.055',1533.347
'0:03.059',1555.308
'0:03.063',1520.144
'0:03.066',1526.004
'0:03.070',1553.118
'0:03.074',1528.194
'0:03.078',1518.695
'0:03.082',1546.517
'0:03.086',1532.606
'0:03.090',1526.004
'0:03.094',1537.726
'0:03.098',1572.890
'0:03.102',1562.651
'0:03.105',1576.561
'0:03.109',1612.466
'0:03.113',1643.959
'0:03.117',1670.332
'0:03.121',1698.895
'0:03.125',1750.193
'0:03.129',1804.387
'0:03.133',1821.970
'0:03.137',1890.109
'0:03.141',1918.671
'0:03.145',1937.735
'0:03.148',2001.462
'0:03.152',2020.526
'0:03.156',2046.899
'0:03.160',2063.740
'0:03.164',2099.645
'0:03.168',2109.885
'0:03.172',2125.277
'0:03.176',2105.506
'0:03.180',2131.138
'0:03.184',2107.695
'0:03.188',2093.044
'0:03.191',2076.910
'0:03.195',2029.317
'0:03.199',1988.999
'0:03.203',1950.905
'0:03.207',1901.089
'0:03.211',1861.546
'0:03.215',1835.914
'0:03.219',1745.039
'0:03.223',1698.154
'0:03.227',1645.408
'0:03.230',1580.940
'0:03.234',1536.985
'0:03.238',1479.119
'0:03.242',1444.696
'0:03.246',1386.089
'0:03.250',1327.482
'0:03.254',1306.228
'0:03.258',1290.835
'0:03.262',1216.836
'0:03.266',1231.487
'0:03.270',1197.064
'0:03.273',1171.432
'0:03.277',1151.661
'0:03.281',1112.825
'0:03.285',1120.875
'0:03.289',1139.198
'0:03.293',1134.079
'0:03.297',1130.407
'0:03.301',1126.736
'0:03.305',1126.736
'0:03.309',1133.338
'0:03.313',1137.009
'0:03.316',1143.577
'0:03.320',1150.179
'0:03.324',1135.527
'0:03.328',1163.382
'0:03.332',1159.711
'0:03.336',1180.964
'0:03.340',1190.463
'0:03.344',1178.741
'0:03.348',1186.084
'0:03.352',1199.995
'0:03.355',1241.019
'0:03.359',1238.089
'0:03.363',1268.875
'0:03.367',1286.457
'0:03.371',1289.387
'0:03.375',1279.855
'0:03.379',1301.108
'0:03.383',1319.398
'0:03.387',1337.014
'0:03.391',1315.760
'0:03.395',1319.398
'0:03.398',1338.462
'0:03.402',1361.164
'0:03.406',1372.885
'0:03.410',1371.437
'0:03.414',1323.069
'0:03.418',1318.691
'0:03.422',1318.691
'0:03.426',1302.557
'0:03.430',1312.089
'0:03.434',1310.607
'0:03.438',1306.969
'0:03.441',1249.811
'0:03.445',1252.000
'0:03.449',1241.760
'0:03.453',1210.268
'0:03.457',1221.248
'0:03.461',1157.521
'0:03.465',1185.343
'0:03.469',1170.691
'0:03.473',1143.577
'0:03.477',1123.806
'0:03.480',1123.065
'0:03.484',1122.357
'0:03.488',1115.756
'0:03.492',1111.343
'0:03.496',1076.920
'0:03.500',1080.591
'0:03.504',1114.273
'0:03.508',1120.134
'0:03.512',1127.477
'0:03.516',1137.009
'0:03.520',1140.647
'0:03.523',1123.065
'0:03.527',1175.811
'0:03.531',1180.964
'0:03.535',1171.432
'0:03.539',1229.298
'0:03.543',1211.716
'0:03.547',1254.930
'0:03.551',1233.710
'0:03.555',1283.526
'0:03.559',1304.039
'0:03.563',1274.735
'0:03.566',1319.398
'0:03.570',1312.830
'0:03.574',1324.551
'0:03.578',1350.924
'0:03.582',1372.885
'0:03.586',1381.676
'0:03.590',1395.621
'0:03.594',1400.740
'0:03.598',1408.790
'0:03.602',1421.253
'0:03.605',1425.631
'0:03.609',1406.601
'0:03.613',1403.671
'0:03.617',1417.581
'0:03.621',1434.423
'0:03.625',1432.974
'0:03.629',1420.512
'0:03.633',1438.094
'0:03.637',1452.005
'0:03.641',1474.740
'0:03.645',1479.119
'0:03.648',1461.537
'0:03.652',1449.815
'0:03.656',1495.252
'0:03.660',1468.879
'0:03.664',1482.049
'0:03.668',1485.720
'0:03.672',1490.840
'0:03.676',1460.796
'0:03.680',1484.238
'0:03.684',1490.840
'0:03.688',1467.397
'0:03.691',1490.099
'0:03.695',1455.676
'0:03.699',1486.461
'0:03.703',1484.979
'0:03.707',1457.158
'0:03.711',1490.099
'0:03.715',1450.556
'0:03.719',1462.278
'0:03.723',1464.467
'0:03.727',1429.303
'0:03.730',1418.322
'0:03.734',1425.631
'0:03.738',1449.074
'0:03.742',1430.785
'0:03.746',1411.721
'0:03.750',1403.671
'0:03.754',1434.423
'0:03.758',1408.049
'0:03.762',1416.133
'0:03.766',1431.492
'0:03.770',1409.531
'0:03.773',1420.512
'0:03.777',1418.322
'0:03.781',1446.144
'0:03.785',1416.133
'0:03.789',1416.840
'0:03.793',1419.063
'0:03.797',1397.810
'0:03.801',1427.113
'0:03.805',1394.880
'0:03.809',1416.133
'0:03.813',1380.228
'0:03.816',1360.456
'0:03.820',1397.810
'0:03.824',1389.760
'0:03.828',1374.367
'0:03.832',1367.024
'0:03.836',1366.317
'0:03.840',1352.373
'0:03.844',1343.582
'0:03.848',1308.418
'0:03.852',1309.159
'0:03.855',1317.209
'0:03.859',1321.621
'0:03.863',1322.328
'0:03.867',1332.601
'0:03.871',1356.785
'0:03.875',1376.557
'0:03.879',1428.562
'0:03.883',1454.228
'0:03.887',1470.328
'0:03.891',1482.049
'0:03.895',1529.676
'0:03.898',1563.358
'0:03.902',1608.054
'0:03.906',1665.920
'0:03.910',1739.179
'0:03.914',1756.761
'0:03.918',1820.521
'0:03.922',1865.217
'0:03.926',1919.412
'0:03.930',1964.849
'0:03.934',1999.272
'0:03.938',2025.646
'0:03.941',2064.481
'0:03.945',2068.860
'0:03.949',2112.815
'0:03.953',2087.924
'0:03.957',2099.645
'0:03.961',2100.353
'0:03.965',2093.785
'0:03.969',2071.049
'0:03.973',2040.297
'0:03.977',1967.780
'0:03.980',1924.532
'0:03.984',1904.760
'0:03.988',1854.203
'0:03.992',1783.168
'0:03.996',1711.357
'0:04.000',1675.452
'0:04.004',1574.372
'0:04.008',1544.327
'0:04.012',1476.929
'0:04.016',1372.885
'0:04.020',1344.323
'0:04.023',1275.443
'0:04.027',1206.596
'0:04.031',1150.179
'0:04.035',1050.547
'0:04.039',1041.756
'0:04.043',977.288
'0:04.047',933.333
'0:04.051',906.219
'0:04.055',835.890
'0:04.059',841.010
'0:04.063',783.885
'0:04.066',802.916
'0:04.070',787.556
'0:04.074',769.974
'0:04.078',747.239
'0:04.082',778.024
'0:04.086',769.233
'0:04.090',769.974
'0:04.094',805.846
'0:04.098',853.472
'0:04.102',857.885
'0:04.105',857.885
'0:04.109',887.929
'0:04.113',926.024
'0:04.117',956.776
'0:04.121',987.561
'0:04.125',1032.965
'0:04.129',1052.736
'0:04.133',1101.104
'0:04.137',1125.995
'0:04.141',1140.647
'0:04.145',1178.034
'0:04.148',1202.925
'0:04.152',1236.641
'0:04.156',1233.710
'0:04.160',1298.178
'0:04.164',1276.925
'0:04.168',1342.133
'0:04.172',1317.209
'0:04.176',1371.437
'0:04.180',1353.114
'0:04.184',1368.506
'0:04.188',1389.019
'0:04.191',1413.203
'0:04.195',1417.581
'0:04.199',1378.746
'0:04.203',1394.880
'0:04.207',1413.910
'0:04.211',1398.551
'0:04.215',1374.367
'0:04.219',1397.810
'0:04.223',1408.790
'0:04.227',1391.208
'0:04.230',1356.044
'0:04.234',1371.437
'0:04.238',1388.278
'0:04.242',1369.955
'0:04.246',1328.930
'0:04.250',1345.064
'0:04.254',1313.537
'0:04.258',1340.651
'0:04.262',1317.209
'0:04.266',1282.044
'0:04.270',1317.209
'0:04.273',1273.253
'0:04.277',1306.228
'0:04.281',1274.735
'0:04.285',1264.462
'0:04.289',1279.855
'0:04.293',1264.462
'0:04.297',1284.975
'0:04.301',1298.178
'0:04.305',1263.014
'0:04.309',1298.178
'0:04.313',1278.373
'0:04.316',1300.367
'0:04.320',1298.178
'0:04.324',1294.507
'0:04.328',1318.691
'0:04.332',1335.532
'0:04.336',1306.228
'0:04.340',1334.083
'0:04.344',1362.646
'0:04.348',1371.437
'0:04.352',1379.487
'0:04.355',1383.899
'0:04.359',1367.024
'0:04.363',1364.835
'0:04.367',1396.328
'0:04.371',1359.715
'0:04.375',1359.715
'0:04.379',1392.690
'0:04.383',1377.298
'0:04.387',1383.158
'0:04.391',1383.158
'0:04.395',1412.462
'0:04.398',1374.367
'0:04.402',1422.701
'0:04.406',1383.899
'0:04.410',1427.854
'0:04.414',1412.462
'0:04.418',1413.910
'0:04.422',1428.562
'0:04.426',1416.133
'0:04.430',1468.879
'0:04.434',1438.094
'0:04.438',1487.910
'0:04.441',1471.810
'0:04.445',1507.681
'0:04.449',1477.670
'0:04.453',1498.183
'0:04.457',1530.417
'0:04.461',1503.303
'0:04.465',1542.138
'0:04.469',1559.720
'0:04.473',1529.676
'0:04.477',1534.054
'0:04.480',1536.985
'0:04.484',1563.358
'0:04.488',1578.010
'0:04.492',1576.561
'0:04.496',1583.870
'0:04.500',1540.656
'0:04.504',1536.985
'0:04.508',1548.706
'0:04.512',1564.099
'0:04.516',1544.327
'0:04.520',1551.636
'0:04.523',1504.044
'0:04.527',1520.885
'0:04.531',1476.929
'0:04.535',1487.169
'0:04.539',1439.576
'0:04.543',1448.367
'0:04.547',1446.885
'0:04.551',1395.621
'0:04.555',1399.999
'0:04.559',1368.506
'0:04.563',1349.442
'0:04.566',1334.083
'0:04.570',1339.203
'0:04.574',1338.462
'0:04.578',1342.874
'0:04.582',1355.303
'0:04.586',1378.039
'0:04.590',1381.676
'0:04.594',1388.278
'0:04.598',1410.272
'0:04.602',1471.069
'0:04.605',1499.631
'0:04.609',1500.372
'0:04.613',1572.149
'0:04.617',1588.283
'0:04.621',1646.890
'0:04.625',1662.282
'0:04.629',1679.864
'0:04.633',1712.098
'0:04.637',1775.084
'0:04.641',1779.496
'0:04.645',1830.761
'0:04.648',1829.312
'0:04.652',1828.571
'0:04.656',1865.217
'0:04.660',1862.994
'0:04.664',1861.546
'0:04.668',1871.785
'0:04.672',1841.034
'0:04.676',1840.293
'0:04.680',1841.775
'0:04.684',1791.959
'0:04.688',1764.104
'0:04.691',1755.313
'0:04.695',1725.268
'0:04.699',1687.915
'0:04.703',1663.731
'0:04.707',1611.725
'0:04.711',1573.631
'0:04.715',1575.820
'0:04.719',1516.472
'0:04.723',1513.542
'0:04.727',1480.601
'0:04.730',1468.879
'0:04.734',1415.392
'0:04.738',1395.621
'0:04.742',1395.621
'0:04.746',1405.860
'0:04.750',1350.183
'0:04.754',1346.512
'0:04.758',1366.317
'0:04.762',1342.874
'0:04.766',1329.671
'0:04.770',1331.860
'0:04.773',1310.607
'0:04.777',1336.273
'0:04.781',1308.418
'0:04.785',1329.671
'0:04.789',1312.089
'0:04.793',1319.398
'0:04.797',1293.025
'0:04.801',1327.482
'0:04.805',1309.900
'0:04.809',1295.955
'0:04.813',1319.398
'0:04.816',1296.696
'0:04.820',1266.652
'0:04.824',1306.969
'0:04.828',1276.925
'0:04.832',1275.443
'0:04.836',1295.955
'0:04.840',1262.273
'0:04.844',1257.153
'0:04.848',1293.025
'0:04.852',1293.025
'0:04.855',1300.367
'0:04.859',1266.652
'0:04.863',1308.418
'0:04.867',1303.298
'0:04.871',1314.278
'0:04.875',1309.900
'0:04.879',1321.621
'0:04.883',1367.024
'0:04.887',1366.317
'0:04.891',1347.994
'0:04.895',1368.506
'0:04.898',1402.930
'0:04.902',1427.113
'0:04.906',1425.631
'0:04.910',1437.353
'0:04.914',1446.144
'0:04.918',1439.576
'0:04.922',1417.581
'0:04.926',1424.183
'0:04.930',1435.905
'0:04.934',1434.423
'0:04.938',1457.158
'0:04.941',1430.044
'0:04.945',1413.910
'0:04.949',1425.631
'0:04.953',1430.785
'0:04.957',1405.119
'0:04.961',1379.487
'0:04.965',1372.885
'0:04.969',1391.208
'0:04.973',1400.740
'0:04.977',1358.233
'0:04.980',1349.442
'0:04.984',1346.512
'0:04.988',1372.885
'0:04.992',1379.487
'0:04.996',1337.721
'0:05.000',1346.512
'0:05.004',1361.164
'0:05.008',1371.437
'0:05.012',1376.557
'0:05.016',1356.044
'0:05.020',1354.596
'0:05.023',1363.387
'0:05.027',1384.607
'0:05.031',1406.601
'0:05.035',1416.840
'0:05.039',1422.701
'0:05.043',1428.562
'0:05.047',1434.423
'0:05.051',1432.974
'0:05.055',1445.437
'0:05.059',1445.437
'0:05.063',1427.854
'0:05.066',1416.133
'0:05.070',1443.214
'0:05.074',1448.367
'0:05.078',1444.696
'0:05.082',1453.487
'0:05.086',1448.367
'0:05.090',1453.487
'0:05.094',1435.164
'0:05.098',1416.840
'0:05.102',1424.924
'0:05.105',1440.283
'0:05.109',1458.606
'0:05.113',1465.208
'0:05.117',1460.088
'0:05.121',1448.367
'0:05.125',1467.397
'0:05.129',1424.924
'0:05.133',1426.372
'0:05.137',1452.746
'0:05.141',1449.815
'0:05.145',1457.158
'0:05.148',1463.019
'0:05.152',1430.044
'0:05.156',1421.253
'0:05.160',1438.094
'0:05.164',1427.113
'0:05.168',1450.556
'0:05.172',1424.924
'0:05.176',1414.651
'0:05.180',1445.437
'0:05.184',1453.487
'0:05.188',1419.063
'0:05.191',1447.626
'0:05.195',1453.487
'0:05.199',1413.910
'0:05.203',1414.651
'0:05.207',1445.437
'0:05.211',1442.506
'0:05.215',1452.746
'0:05.219',1433.715
'0:05.223',1427.113
'0:05.227',1452.746
'0:05.230',1439.576
'0:05.234',1431.492
'0:05.238',1421.253
'0:05.242',1437.353
'0:05.246',1419.063
'0:05.250',1417.581
'0:05.254',1446.885
'0:05.258',1427.113
'0:05.262',1424.924
'0:05.266',1437.353
'0:05.270',1436.646
'0:05.273',1398.551
'0:05.277',1406.601
'0:05.281',1423.442
'0:05.285',1371.437
'0:05.289',1390.467
'0:05.293',1364.835
'0:05.297',1374.367
'0:05.301',1346.512
'0:05.305',1317.950
'0:05.309',1298.178
'0:05.313',1315.760
'0:05.316',1286.457
'0:05.320',1252.000
'0:05.324',1276.925
'0:05.328',1263.721
'0:05.332',1243.209
'0:05.336',1223.437
'0:05.340',1243.950
'0:05.344',1257.861
'0:05.348',1243.209
'0:05.352',1227.850
'0:05.355',1264.462
'0:05.359',1276.184
'0:05.363',1272.512
'0:05.367',1277.666
'0:05.371',1280.596
'0:05.375',1292.317
'0:05.379',1322.328
'0:05.383',1355.303
'0:05.387',1367.024
'0:05.391',1391.949
'0:05.395',1408.790
'0:05.398',1449.815
'0:05.402',1476.188
'0:05.406',1515.024
'0:05.410',1507.681
'0:05.414',1532.606
'0:05.418',1559.720
'0:05.422',1611.725
'0:05.426',1598.522
'0:05.430',1607.313
'0:05.434',1646.890
'0:05.438',1622.706
'0:05.441',1643.959
'0:05.445',1643.959
'0:05.449',1610.984
'0:05.453',1624.188
'0:05.457',1591.954
'0:05.461',1569.960
'0:05.465',1570.701
'0:05.469',1537.726
'0:05.473',1501.821
'0:05.477',1445.437
'0:05.480',1450.556
'0:05.484',1369.955
'0:05.488',1371.437
'0:05.492',1306.969
'0:05.496',1271.064
'0:05.500',1256.412
'0:05.504',1200.736
'0:05.508',1166.312
'0:05.512',1145.800
'0:05.516',1079.109
'0:05.520',1030.775
'0:05.523',1041.756
'0:05.527',1001.472
'0:05.531',984.631
'0:05.535',955.327
'0:05.539',951.656
'0:05.543',942.124
'0:05.547',915.010
'0:05.551',926.731
'0:05.555',928.954
'0:05.559',923.801
'0:05.563',912.820
'0:05.566',927.472
'0:05.570',975.099
'0:05.574',975.840
'0:05.578',991.199
'0:05.582',997.060
'0:05.586',1049.098
'0:05.590',1071.800
'0:05.594',1071.059
'0:05.598',1095.984
'0:05.602',1131.148
'0:05.605',1174.362
'0:05.609',1204.407
'0:05.613',1213.198
'0:05.617',1282.785
'0:05.621',1281.303
'0:05.625',1328.930
'0:05.629',1328.930
'0:05.633',1357.526
'0:05.637',1405.119
'0:05.641',1419.771
'0:05.645',1427.113
'0:05.648',1463.726
'0:05.652',1441.024
'0:05.656',1451.297
'0:05.660',1473.258
'0:05.664',1476.929
'0:05.668',1476.188
'0:05.672',1481.308
'0:05.676',1501.113
'0:05.680',1503.303
'0:05.684',1517.213
'0:05.688',1488.651
'0:05.691',1466.656
'0:05.695',1463.019
'0:05.699',1451.297
'0:05.703',1441.765
'0:05.707',1447.626
'0:05.711',1442.506
'0:05.715',1419.063
'0:05.719',1431.492
'0:05.723',1437.353
'0:05.727',1411.721
'0:05.730',1389.019
'0:05.734',1378.039
'0:05.738',1387.537
'0:05.742',1399.999
'0:05.746',1387.537
'0:05.750',1394.139
'0:05.754',1411.721
'0:05.758',1375.816
'0:05.762',1406.601
'0:05.766',1409.531
'0:05.770',1386.089
'0:05.773',1386.089
'0:05.777',1397.810
'0:05.781',1400.740
'0:05.785',1407.342
'0:05.789',1422.701
'0:05.793',1430.785
'0:05.797',1438.094
'0:05.801',1481.308
'0:05.805',1454.228
'0:05.809',1454.935
'0:05.813',1471.069
'0:05.816',1495.960
'0:05.820',1502.562
'0:05.824',1484.979
'0:05.828',1460.796
'0:05.832',1468.138
'0:05.836',1484.979
'0:05.840',1495.960
'0:05.844',1490.099
'0:05.848',1454.935
'0:05.852',1464.467
'0:05.855',1487.169
'0:05.859',1492.322
'0:05.863',1449.815
'0:05.867',1454.228
'0:05.871',1476.929
'0:05.875',1488.651
'0:05.879',1491.581
'0:05.883',1487.169
'0:05.887',1451.297
'0:05.891',1464.467
'0:05.895',1474.740
'0:05.898',1484.238
'0:05.902',1498.890
'0:05.906',1474.740
'0:05.910',1468.879
'0:05.914',1477.670
'0:05.918',1490.099
'0:05.922',1482.049
'0:05.926',1493.770
'0:05.930',1515.024
'0:05.934',1520.885
'0:05.938',1515.765
'0:05.941',1526.745
'0:05.945',1520.885
'0:05.949',1497.442
'0:05.953',1505.492
'0:05.957',1530.417
'0:05.961',1542.845
'0:05.965',1554.567
'0:05.969',1528.194
'0:05.973',1545.068
'0:05.977',1563.358
'0:05.980',1545.776
'0:05.984',1521.626
'0:05.988',1528.194
'0:05.992',1544.327
'0:05.996',1547.999
'0:06.000',1520.885
'0:06.004',1529.676
'0:06.008',1504.044
'0:06.012',1498.890
'0:06.016',1501.821
'0:06.020',1512.835
'0:06.023',1495.960
'0:06.027',1487.169
'0:06.031',1519.403
'0:06.035',1526.004
'0:06.039',1516.472
'0:06.043',1499.631
'0:06.047',1536.985
'0:06.051',1551.636
'0:06.055',1579.492
'0:06.059',1587.542
'0:06.063',1620.516
'0:06.066',1652.009
'0:06.070',1728.939
'0:06.074',1757.502
'0:06.078',1821.970
'0:06.082',1868.855
'0:06.086',1901.830
'0:06.090',1947.267
'0:06.094',2003.651
'0:06.098',2047.606
'0:06.102',2077.651
'0:06.105',2126.726
'0:06.109',2158.252
'0:06.113',2177.283
'0:06.117',2170.681
'0:06.121',2182.402
'0:06.125',2190.486
'0:06.129',2167.751
'0:06.133',2144.308
'0:06.137',2104.024
'0:06.141',2060.069
'0:06.145',1976.571
'0:06.148',1947.975
'0:06.152',1853.496
'0:06.156',1783.875
'0:06.160',1708.427
'0:06.164',1646.890
'0:06.168',1566.288
'0:06.172',1523.074
'0:06.176',1452.005
'0:06.180',1346.512
'0:06.184',1317.950
'0:06.188',1230.039
'0:06.191',1170.691
'0:06.195',1128.218
'0:06.199',1082.040
'0:06.203',1041.015
'0:06.207',1041.015
'0:06.211',989.751
'0:06.215',980.218
'0:06.219',965.567
'0:06.223',940.676
'0:06.227',933.333
'0:06.230',904.029
'0:06.234',893.049
'0:06.238',887.929
'0:06.242',881.328
'0:06.246',897.428
'0:06.250',898.910
'0:06.254',908.442
'0:06.258',928.213
'0:06.262',933.333
'0:06.266',936.263
'0:06.270',937.004
'0:06.273',942.124
'0:06.277',958.965
'0:06.281',969.238
'0:06.285',970.686
'0:06.289',980.218
'0:06.293',993.422
'0:06.297',991.940
'0:06.301',1019.795
'0:06.305',1042.497
'0:06.309',1040.307
'0:06.313',1084.970
'0:06.316',1089.382
'0:06.320',1095.984
'0:06.324',1111.343
'0:06.328',1171.432
'0:06.332',1190.463
'0:06.336',1199.995
'0:06.340',1232.969
'0:06.344',1230.780
'0:06.348',1248.362
'0:06.352',1298.885
'0:06.355',1297.437
'0:06.359',1306.228
'0:06.363',1315.760
'0:06.367',1356.785
'0:06.371',1330.412
'0:06.375',1340.651
'0:06.379',1375.108
'0:06.383',1375.108
'0:06.387',1370.696
'0:06.391',1390.467
'0:06.395',1408.790
'0:06.398',1410.980
'0:06.402',1405.860
'0:06.406',1367.765
'0:06.410',1396.328
'0:06.414',1412.462
'0:06.418',1372.885
'0:06.422',1386.830
'0:06.426',1378.746
'0:06.430',1365.576
'0:06.434',1372.178
'0:06.438',1405.860
'0:06.441',1397.810
'0:06.445',1365.576
'0:06.449',1386.089
'0:06.453',1408.790
'0:06.457',1408.790
'0:06.461',1365.576
'0:06.465',1379.487
'0:06.469',1409.531
'0:06.473',1406.601
'0:06.477',1405.119
'0:06.480',1358.233
'0:06.484',1368.506
'0:06.488',1393.398
'0:06.492',1392.690
'0:06.496',1356.044
'0:06.500',1377.298
'0:06.504',1352.373
'0:06.508',1348.735
'0:06.512',1369.955
'0:06.516',1374.367
'0:06.520',1362.646
'0:06.523',1386.830
'0:06.527',1370.696
'0:06.531',1367.024
'0:06.535',1407.342
'0:06.539',1417.581
'0:06.543',1419.063
'0:06.547',1387.537
'0:06.551',1429.303
'0:06.555',1437.353
'0:06.559',1408.790
'0:06.563',1424.183
'0:06.566',1457.865
'0:06.570',1470.328
'0:06.574',1473.258
'0:06.578',1438.094
'0:06.582',1441.765
'0:06.586',1473.999
'0:06.590',1487.169
'0:06.594',1452.746
'0:06.598',1474.740
'0:06.602',1491.581
'0:06.605',1504.044
'0:06.609',1508.422
'0:06.613',1509.163
'0:06.617',1476.929
'0:06.621',1497.442
'0:06.625',1523.074
'0:06.629',1481.308
'0:06.633',1482.049
'0:06.637',1490.099
'0:06.641',1495.252
'0:06.645',1489.392
'0:06.648',1496.701
'0:06.652',1508.422
'0:06.656',1522.333
'0:06.660',1530.417
'0:06.664',1523.074
'0:06.668',1507.681
'0:06.672',1493.029
'0:06.676',1497.442
'0:06.680',1497.442
'0:06.684',1517.954
'0:06.688',1541.397
'0:06.691',1542.845
'0:06.695',1544.327
'0:06.699',1547.258
'0:06.703',1547.258
'0:06.707',1551.636
'0:06.711',1560.427
'0:06.715',1560.427
'0:06.719',1569.219
'0:06.723',1539.915
'0:06.727',1547.999
'0:06.730',1576.561
'0:06.734',1590.472
'0:06.738',1593.402
'0:06.742',1582.422
'0:06.746',1572.149
'0:06.750',1561.169
'0:06.754',1594.143
'0:06.758',1581.681
'0:06.762',1581.681
'0:06.766',1583.870
'0:06.770',1593.402
'0:06.773',1580.940
'0:06.777',1556.790
'0:06.781',1575.820
'0:06.785',1577.302
'0:06.789',1545.068
'0:06.793',1522.333
'0:06.797',1534.054
'0:06.801',1510.612
'0:06.805',1488.651
'0:06.809',1470.328
'0:06.813',1459.347
'0:06.816',1463.726
'0:06.820',1452.005
'0:06.824',1394.880
'0:06.828',1417.581
'0:06.832',1372.885
'0:06.836',1389.760
'0:06.840',1359.715
'0:06.844',1315.760
'0:06.848',1331.153
'0:06.852',1309.900
'0:06.855',1286.457
'0:06.859',1312.830
'0:06.863',1307.677
'0:06.867',1271.805
'0:06.871',1273.994
'0:06.875',1272.512
'0:06.879',1275.443
'0:06.883',1283.526
'0:06.887',1292.317
'0:06.891',1345.064
'0:06.895',1349.442
'0:06.898',1331.153
'0:06.902',1390.467
'0:06.906',1375.108
'0:06.910',1425.631
'0:06.914',1425.631
'0:06.918',1448.367
'0:06.922',1484.238
'0:06.926',1493.029
'0:06.930',1496.701
'0:06.934',1516.472
'0:06.938',1553.118
'0:06.941',1585.352
'0:06.945',1593.402
'0:06.949',1573.631
'0:06.953',1575.079
'0:06.957',1570.701
'0:06.961',1592.661
'0:06.965',1601.452
'0:06.969',1580.233
'0:06.973',1564.099
'0:06.977',1550.188
'0:06.980',1536.985
'0:06.984',1523.815
'0:06.988',1491.581
'0:06.992',1471.810
'0:06.996',1405.860
'0:07.000',1390.467
'0:07.004',1379.487
'0:07.008',1301.108
'0:07.012',1306.969
'0:07.016',1270.323
'0:07.020',1232.969
'0:07.023',1194.134
'0:07.027',1111.343
'0:07.031',1094.502
'0:07.035',1054.218
'0:07.039',1034.447
'0:07.043',967.756
'0:07.047',972.168
'0:07.051',953.845
'0:07.055',931.885
'0:07.059',898.910
'0:07.063',864.453
'0:07.066',875.467
'0:07.070',862.264
'0:07.074',866.676
'0:07.078',850.542
'0:07.082',898.910
'0:07.086',917.940
'0:07.090',913.561
'0:07.094',956.035
'0:07.098',988.269
'0:07.102',1004.402
'0:07.105',1053.477
'0:07.109',1085.711
'0:07.113',1110.636
'0:07.117',1142.129
'0:07.121',1183.895
'0:07.125',1241.019
'0:07.129',1258.602
'0:07.133',1283.526
'0:07.137',1346.512
'0:07.141',1338.462
'0:07.145',1366.317
'0:07.148',1404.412
'0:07.152',1441.765
'0:07.156',1437.353
'0:07.160',1453.487
'0:07.164',1486.461
'0:07.168',1506.233
'0:07.172',1522.333
'0:07.176',1526.004
'0:07.180',1529.676
'0:07.184',1528.194
'0:07.188',1532.606
'0:07.191',1536.277
'0:07.195',1523.815
'0:07.199',1493.029
'0:07.203',1481.308
'0:07.207',1479.119
'0:07.211',1477.670
'0:07.215',1440.283
'0:07.219',1421.994
'0:07.223',1429.303
'0:07.227',1412.462
'0:07.230',1378.039
'0:07.234',1387.537
'0:07.238',1342.874
'0:07.242',1369.248
'0:07.246',1334.083
'0:07.250',1347.253
'0:07.254',1321.621
'0:07.258',1303.298
'0:07.262',1295.955
'0:07.266',1291.576
'0:07.270',1299.626
'0:07.273',1327.482
'0:07.277',1320.139
'0:07.281',1301.108
'0:07.285',1286.457
'0:07.289',1312.830
'0:07.293',1295.248
'0:07.297',1284.975
'0:07.301',1273.994
'0:07.305',1314.278
'0:07.309',1294.507
'0:07.313',1295.248
'0:07.316',1298.885
'0:07.320',1279.114
'0:07.324',1322.328
'0:07.328',1290.835
'0:07.332',1299.626
'0:07.336',1341.392
'0:07.340',1326.000
'0:07.344',1343.582
'0:07.348',1369.248
'0:07.352',1350.924
'0:07.355',1361.905
'0:07.359',1351.665
'0:07.363',1399.999
'0:07.367',1378.039
'0:07.371',1382.417
'0:07.375',1380.969
'0:07.379',1423.442
'0:07.383',1394.139
'0:07.387',1404.412
'0:07.391',1421.253
'0:07.395',1449.815
'0:07.398',1423.442
'0:07.402',1465.949
'0:07.406',1473.999
'0:07.410',1441.765
'0:07.414',1451.297
'0:07.418',1458.606
'0:07.422',1494.511
'0:07.426',1498.183
'0:07.430',1479.860
'0:07.434',1494.511
'0:07.438',1493.770
'0:07.441',1525.263
'0:07.445',1512.094
'0:07.449',1495.252
'0:07.453',1512.835
'0:07.457',1530.417
'0:07.461',1543.586
'0:07.465',1547.258
'0:07.469',1555.308
'0:07.473',1551.636
'0:07.477',1558.979
'0:07.480',1524.556
'0:07.484',1522.333
'0:07.488',1536.277
'0:07.492',1535.536
'0:07.496',1553.118
'0:07.500',1517.954
'0:07.504',1495.960
'0:07.508',1504.044
'0:07.512',1506.233
'0:07.516',1448.367
'0:07.520',1464.467
'0:07.523',1416.840
'0:07.527',1424.183
'0:07.531',1399.999
'0:07.535',1393.398
'0:07.539',1401.481
'0:07.543',1353.855
'0:07.547',1358.233
'0:07.551',1335.532
'0:07.555',1378.039
'0:07.559',1338.462
'0:07.563',1371.437
'0:07.566',1386.830
'0:07.570',1378.039
'0:07.574',1394.139
'0:07.578',1452.746
'0:07.582',1449.074
'0:07.586',1501.821
'0:07.590',1493.029
'0:07.594',1543.586
'0:07.598',1591.954
'0:07.602',1623.447
'0:07.605',1625.636
'0:07.609',1660.059
'0:07.613',1695.965
'0:07.617',1739.920
'0:07.621',1776.566
'0:07.625',1767.034
'0:07.629',1811.730
'0:07.633',1800.009
'0:07.637',1850.566
'0:07.641',1824.900
'0:07.645',1856.426
'0:07.648',1835.914
'0:07.652',1822.711
'0:07.656',1819.039
'0:07.660',1802.939
'0:07.664',1822.711
'0:07.668',1802.198
'0:07.672',1755.313
'0:07.676',1734.059
'0:07.680',1709.168
'0:07.684',1678.382
'0:07.688',1653.491
'0:07.691',1616.104
'0:07.695',1602.193
'0:07.699',1576.561
'0:07.703',1527.486
'0:07.707',1506.974
'0:07.711',1498.890
'0:07.715',1461.537
'0:07.719',1443.214
'0:07.723',1393.398
'0:07.727',1388.278
'0:07.730',1367.024
'0:07.734',1345.805
'0:07.738',1313.537
'0:07.742',1325.292
'0:07.746',1323.069
'0:07.750',1304.039
'0:07.754',1279.855
'0:07.758',1243.950
'0:07.762',1236.641
'0:07.766',1221.248
'0:07.770',1207.337
'0:07.773',1211.716
'0:07.777',1228.557
'0:07.781',1189.755
'0:07.785',1158.970
'0:07.789',1156.039
'0:07.793',1164.830
'0:07.797',1167.761
'0:07.801',1143.577
'0:07.805',1114.273
'0:07.809',1114.273
'0:07.813',1137.009
'0:07.816',1098.914
'0:07.820',1128.925
'0:07.824',1106.964
'0:07.828',1094.502
'0:07.832',1116.497
'0:07.836',1104.034
'0:07.840',1118.686
'0:07.844',1097.432
'0:07.848',1137.716
'0:07.852',1118.686
'0:07.855',1164.830
'0:07.859',1166.312
'0:07.863',1153.850
'0:07.867',1178.741
'0:07.871',1160.452
'0:07.875',1169.243
'0:07.879',1204.407
'0:07.883',1235.159
'0:07.887',1208.786
'0:07.891',1217.577
'0:07.895',1230.780
'0:07.898',1243.209
'0:07.902',1293.766
'0:07.906',1292.317
'0:07.910',1302.557
'0:07.914',1296.696
'0:07.918',1325.292
'0:07.922',1356.785
'0:07.926',1359.715
'0:07.930',1366.317
'0:07.934',1354.596
'0:07.938',1351.665
'0:07.941',1386.830
'0:07.945',1372.885
'0:07.949',1369.955
'0:07.953',1364.094
'0:07.957',1362.646
'0:07.961',1368.506
'0:07.965',1391.208
'0:07.969',1372.178
'0:07.973',1358.233
'0:07.977',1403.671
'0:07.980',1361.905
'0:07.984',1378.746
'0:07.988',1392.690
'0:07.992',1398.551
'0:07.996',1404.412
'0:08.000',1405.860
'0:08.004',1399.999
'0:08.008',1373.626
'0:08.012',1391.208
'0:08.016',1405.860
'0:08.020',1403.671
'0:08.023',1383.158
'0:08.027',1405.119
'0:08.031',1424.924
'0:08.035',1435.164
'0:08.039',1409.531
'0:08.043',1454.228
'0:08.047',1450.556
'0:08.051',1460.088
'0:08.055',1471.810
'0:08.059',1438.835
'0:08.063',1440.283
'0:08.066',1445.437
'0:08.070',1456.417
'0:08.074',1448.367
'0:08.078',1487.169
'0:08.082',1472.517
'0:08.086',1488.651
'0:08.090',1491.581
'0:08.094',1455.676
'0:08.098',1448.367
'0:08.102',1453.487
'0:08.105',1456.417
'0:08.109',1464.467
'0:08.113',1472.517
'0:08.117',1465.208
'0:08.121',1481.308
'0:08.125',1477.670
'0:08.129',1465.208
'0:08.133',1434.423
'0:08.137',1436.646
'0:08.141',1435.905
'0:08.145',1457.865
'0:08.148',1452.746
'0:08.152',1471.069
'0:08.156',1484.238
'0:08.160',1477.670
'0:08.164',1449.074
'0:08.168',1451.297
'0:08.172',1473.258
'0:08.176',1470.328
'0:08.180',1481.308
'0:08.184',1464.467
'0:08.188',1456.417
'0:08.191',1469.587
'0:08.195',1436.646
'0:08.199',1434.423
'0:08.203',1451.297
'0:08.207',1464.467
'0:08.211',1473.999
'0:08.215',1457.865
'0:08.219',1465.949
'0:08.223',1468.138
'0:08.227',1448.367
'0:08.230',1427.113
'0:08.234',1432.974
'0:08.238',1440.283
'0:08.242',1436.646
'0:08.246',1439.576
'0:08.250',1450.556
'0:08.254',1471.069
'0:08.258',1468.879
'0:08.262',1435.905
'0:08.266',1435.164
'0:08.270',1447.626
'0:08.273',1468.879
'0:08.277',1472.517
'0:08.281',1432.233
'0:08.285',1424.924
'0:08.289',1427.113
'0:08.293',1438.835
'0:08.297',1455.676
'0:08.301',1421.994
'0:08.305',1429.303
'0:08.309',1391.949
'0:08.313',1401.481
'0:08.316',1394.880
'0:08.320',1361.905
'0:08.324',1353.855
'0:08.328',1391.949
'0:08.332',1361.905
'0:08.336',1357.526
'0:08.340',1382.417
'0:08.344',1362.646
'0:08.348',1405.119
'0:08.352',1415.392
'0:08.355',1397.069
'0:08.359',1438.835
'0:08.363',1475.447
'0:08.367',1490.099
'0:08.371',1517.213
'0:08.375',1538.467
'0:08.379',1583.163
'0:08.383',1636.617
'0:08.387',1670.332
'0:08.391',1706.945
'0:08.395',1753.123
'0:08.398',1802.939
'0:08.402',1848.343
'0:08.406',1883.507
'0:08.410',1938.476
'0:08.414',1973.640
'0:08.418',2002.203
'0:08.422',2033.696
'0:08.426',2029.317
'0:08.430',2054.208
'0:08.434',2073.980
'0:08.438',2048.347
'0:08.441',2060.069
'0:08.445',2049.829
'0:08.449',1993.412
'0:08.453',1981.690
'0:08.457',1936.994
'0:08.461',1890.850
'0:08.465',1845.412
'0:08.469',1798.527
'0:08.473',1754.572
'0:08.477',1684.984
'0:08.480',1624.895
'0:08.484',1566.288
'0:08.488',1498.183
'0:08.492',1440.283
'0:08.496',1388.278
'0:08.500',1324.551
'0:08.504',1293.025
'0:08.508',1237.348
'0:08.512',1168.502
'0:08.516',1087.900
'0:08.520',1077.661
'0:08.523',1032.965
'0:08.527',969.979
'0:08.531',942.865
'0:08.535',957.517
'0:08.539',935.522
'0:08.543',895.979
'0:08.547',889.378
'0:08.551',887.929
'0:08.555',909.890
'0:08.559',934.815
'0:08.563',919.422
'0:08.566',950.174
'0:08.570',947.244
'0:08.574',969.979
'0:08.578',1006.592
'0:08.582',997.801
'0:08.586',1013.193
'0:08.590',1064.458
'0:08.594',1040.307
'0:08.598',1059.338
'0:08.602',1082.040
'0:08.605',1139.939
'0:08.609',1156.780
'0:08.613',1173.621
'0:08.617',1179.482
'0:08.621',1183.154
'0:08.625',1197.064
'0:08.629',1198.546
'0:08.633',1243.950
'0:08.637',1242.502
'0:08.641',1233.710
'0:08.645',1229.298
'0:08.648',1246.139
'0:08.652',1264.462
'0:08.656',1270.323
'0:08.660',1287.905
'0:08.664',1252.741
'0:08.668',1283.526
'0:08.672',1263.014
'0:08.676',1302.557
'0:08.680',1285.716
'0:08.684',1278.373
'0:08.688',1269.582
'0:08.691',1270.323
'0:08.695',1279.114
'0:08.699',1292.317
'0:08.703',1294.507
'0:08.707',1264.462
'0:08.711',1278.373
'0:08.715',1293.766
'0:08.719',1262.273
'0:08.723',1295.248
'0:08.727',1258.602
'0:08.730',1275.443
'0:08.734',1265.203
'0:08.738',1293.025
'0:08.742',1276.925
'0:08.746',1302.557
'0:08.750',1303.298
'0:08.754',1266.652
'0:08.758',1290.835
'0:08.762',1309.159
'0:08.766',1303.298
'0:08.770',1294.507
'0:08.773',1303.298
'0:08.777',1325.292
'0:08.781',1326.000
'0:08.785',1328.223
'0:08.789',1338.462
'0:08.793',1356.044
'0:08.797',1335.532
'0:08.801',1331.153
'0:08.805',1346.512
'0:08.809',1361.164
'0:08.813',1359.715
'0:08.816',1367.024
'0:08.820',1389.760
'0:08.824',1366.317
'0:08.828',1367.024
'0:08.832',1415.392
'0:08.836',1416.840
'0:08.840',1392.690
'0:08.844',1410.980
'0:08.848',1419.771
'0:08.852',1394.880
'0:08.855',1419.771
'0:08.859',1422.701
'0:08.863',1416.840
'0:08.867',1454.935
'0:08.871',1430.785
'0:08.875',1421.253
'0:08.879',1432.974
'0:08.883',1470.328
'0:08.887',1443.955
'0:08.891',1433.715
'0:08.895',1470.328
'0:08.898',1443.214
'0:08.902',1437.353
'0:08.906',1480.601
'0:08.910',1475.447
'0:08.914',1478.378
'0:08.918',1467.397
'0:08.922',1449.074
'0:08.926',1493.029
'0:08.930',1465.208
'0:08.934',1468.138
'0:08.938',1515.024
'0:08.941',1479.860
'0:08.945',1528.935
'0:08.949',1495.252
'0:08.953',1544.327
'0:08.957',1533.347
'0:08.961',1520.885
'0:08.965',1548.706
'0:08.969',1573.631
'0:08.973',1577.302
'0:08.977',1553.118
'0:08.980',1575.079
'0:08.984',1560.427
'0:08.988',1594.143
'0:08.992',1558.979
'0:08.996',1600.745
'0:09.000',1571.442
'0:09.004',1590.472
'0:09.008',1615.397
'0:09.012',1590.472
'0:09.016',1598.522
'0:09.020',1580.940
'0:09.023',1599.263
'0:09.027',1584.611
'0:09.031',1557.497
'0:09.035',1575.820
'0:09.039',1553.118
'0:09.043',1538.467
'0:09.047',1557.497
'0:09.051',1515.765
'0:09.055',1484.238
'0:09.059',1509.904
'0:09.063',1465.208
'0:09.066',1443.214
'0:09.070',1423.442
'0:09.074',1421.994
'0:09.078',1408.049
'0:09.082',1383.158
'0:09.086',1375.816
'0:09.090',1364.094
'0:09.094',1353.855
'0:09.098',1358.233
'0:09.102',1356.044
'0:09.105',1356.044
'0:09.109',1411.721
'0:09.113',1426.372
'0:09.117',1424.183
'0:09.121',1492.322
'0:09.125',1506.974
'0:09.129',1541.397
'0:09.133',1594.884
'0:09.137',1646.890
'0:09.141',1677.641
'0:09.145',1738.471
'0:09.148',1761.914
'0:09.152',1839.552
'0:09.156',1835.914
'0:09.160',1869.596
'0:09.164',1910.621
'0:09.168',1916.482
'0:09.172',1893.780
'0:09.176',1901.089
'0:09.180',1890.850
'0:09.184',1876.198
'0:09.188',1830.761
'0:09.191',1802.939
'0:09.195',1772.895
'0:09.199',1726.750
'0:09.203',1666.661
'0:09.207',1616.845
'0:09.211',1606.606
'0:09.215',1532.606
'0:09.219',1465.208
'0:09.223',1430.785
'0:09.227',1364.094
'0:09.230',1326.000
'0:09.234',1291.576
'0:09.238',1260.791
'0:09.242',1209.527
'0:09.246',1175.811
'0:09.250',1191.204
'0:09.254',1161.159
'0:09.258',1147.248
'0:09.262',1118.686
'0:09.266',1113.566
'0:09.270',1093.054
'0:09.273',1098.914
'0:09.277',1066.681
'0:09.281',1056.408
'0:09.285',1079.850
'0:09.289',1054.959
'0:09.293',1090.831
'0:09.297',1050.547
'0:09.301',1090.123
'0:09.305',1079.109
'0:09.309',1065.199
'0:09.313',1073.249
'0:09.316',1071.800
'0:09.320',1051.288
'0:09.324',1059.338
'0:09.328',1028.586
'0:09.332',1068.129
'0:09.336',1058.597
'0:09.340',1052.736
'0:09.344',1049.098
'0:09.348',1035.895
'0:09.352',1022.725
'0:09.355',1024.915
'0:09.359',1003.661
'0:09.363',1021.243
'0:09.367',1020.502
'0:09.371',1022.725
'0:09.375',1008.074
'0:09.379',1049.806
'0:09.383',1046.168
'0:09.387',1062.268
'0:09.391',1065.199
'0:09.395',1068.129
'0:09.398',1111.343
'0:09.402',1149.438
'0:09.406',1168.502
'0:09.410',1161.900
'0:09.414',1180.964
'0:09.418',1208.786
'0:09.422',1256.412
'0:09.426',1280.596
'0:09.430',1271.805
'0:09.434',1279.114
'0:09.438',1339.203
'0:09.441',1320.880
'0:09.445',1369.248
'0:09.449',1356.785
'0:09.453',1394.139
'0:09.457',1360.456
'0:09.461',1365.576
'0:09.465',1378.039
'0:09.469',1410.272
'0:09.473',1413.910
'0:09.477',1421.994
'0:09.480',1424.183
'0:09.484',1427.854
'0:09.488',1429.303
'0:09.492',1418.322
'0:09.496',1408.049
'0:09.500',1402.189
'0:09.504',1446.144
'0:09.508',1402.189
'0:09.512',1408.790
'0:09.516',1448.367
'0:09.520',1405.119
'0:09.523',1421.994
'0:09.527',1448.367
'0:09.531',1410.272
'0:09.535',1416.840
'0:09.539',1446.885
'0:09.543',1406.601
'0:09.547',1413.203
'0:09.551',1432.233
'0:09.555',1444.696
'0:09.559',1441.024
'0:09.563',1409.531
'0:09.566',1408.049
'0:09.570',1414.651
'0:09.574',1428.562
'0:09.578',1436.646
'0:09.582',1457.158
'0:09.586',1426.372
'0:09.590',1419.063
'0:09.594',1443.214
'0:09.598',1465.208
'0:09.602',1422.701
'0:09.605',1438.094
'0:09.609',1465.208
'0:09.613',1441.765
'0:09.617',1443.214
'0:09.621',1432.974
'0:09.625',1438.835
'0:09.629',1466.656
'0:09.633',1476.188
'0:09.637',1459.347
'0:09.641',1464.467
'0:09.645',1468.138
'0:09.648',1478.378
'0:09.652',1509.904
'0:09.656',1528.935
'0:09.660',1534.795
'0:09.664',1536.985
'0:09.668',1534.054
'0:09.672',1509.904
'0:09.676',1506.233
'0:09.680',1515.765
'0:09.684',1545.776
'0:09.688',1528.194
'0:09.691',1501.821
'0:09.695',1517.213
'0:09.699',1536.277
'0:09.703',1509.163
'0:09.707',1488.651
'0:09.711',1484.238
'0:09.715',1480.601
'0:09.719',1503.303
'0:09.723',1494.511
'0:09.727',1467.397
'0:09.730',1463.726
'0:09.734',1479.119
'0:09.738',1502.562
'0:09.742',1501.113
'0:09.746',1480.601
'0:09.750',1478.378
'0:09.754',1482.790
'0:09.758',1463.726
'0:09.762',1468.138
'0:09.766',1471.069
'0:09.770',1490.840
'0:09.773',1528.935
'0:09.777',1524.556
'0:09.781',1511.353
'0:09.785',1561.169
'0:09.789',1536.985
'0:09.793',1569.219
'0:09.797',1607.313
'0:09.801',1599.263
'0:09.805',1613.915
'0:09.809',1629.308
'0:09.813',1657.870
'0:09.816',1652.009
'0:09.820',1651.268
'0:09.824',1670.332
'0:09.828',1684.984
'0:09.832',1660.800
'0:09.836',1677.641
'0:09.840',1654.199
'0:09.844',1683.502
'0:09.848',1657.129
'0:09.852',1635.168
'0:09.855',1641.029
'0:09.859',1595.592
'0:09.863',1610.984
'0:09.867',1578.010
'0:09.871',1551.636
'0:09.875',1521.626
'0:09.879',1508.422
'0:09.883',1504.044
'0:09.887',1481.308
'0:09.891',1429.303
'0:09.895',1439.576
'0:09.898',1432.233
'0:09.902',1388.278
'0:09.906',1400.740
'0:09.910',1353.114
'0:09.914',1373.626
'0:09.918',1334.791
'0:09.922',1361.164
'0:09.926',1321.621
'0:09.930',1360.456
'0:09.934',1326.741
'0:09.938',1376.557
'0:09.941',1388.278
'0:09.945',1361.164
'0:09.949',1381.676
'0:09.953',1410.272
'0:09.957',1468.138
'0:09.961',1493.770
'0:09.965',1518.695
'0:09.969',1509.904
'0:09.973',1563.358
'0:09.977',1542.845
'0:09.980',1600.004
'0:09.984',1576.561
'0:09.988',1602.934
'0:09.992',1622.706
'0:09.996',1583.870
'0:10.000',1594.143
'0:10.004',1563.358
'0:10.008',1580.940
'0:10.012',1537.726
'0:10.016',1515.024
'0:10.020',1482.790
'0:10.023',1447.626
'0:10.027',1369.955
'0:10.031',1351.665
'0:10.035',1281.303
'0:10.039',1238.089
'0:10.043',1183.895
'0:10.047',1136.268
'0:10.051',1101.845
'0:10.055',1056.408
'0:10.059',1030.034
'0:10.063',980.218
'0:10.066',944.313
'0:10.070',906.219
'0:10.074',854.954
'0:10.078',800.726
'0:10.082',816.860
'0:10.086',771.423
'0:10.090',782.403
'0:10.094',773.612
'0:10.098',728.208
'0:10.102',762.632
'0:10.105',763.373
'0:10.109',775.835
'0:10.113',778.765
'0:10.117',807.328
'0:10.121',842.492
'0:10.125',831.512
'0:10.129',846.163
'0:10.133',875.467
'0:10.137',900.358
'0:10.141',957.517
'0:10.145',997.060
'0:10.148',986.079
'0:10.152',1028.586
'0:10.156',1062.268
'0:10.160',1068.870
'0:10.164',1112.825
'0:10.168',1151.661
'0:10.172',1169.950
'0:10.176',1173.621
'0:10.180',1189.014
'0:10.184',1252.000
'0:10.188',1261.532
'0:10.191',1281.303
'0:10.195',1277.666
'0:10.199',1295.248
'0:10.203',1306.228
'0:10.207',1328.930
'0:10.211',1346.512
'0:10.215',1374.367
'0:10.219',1383.899
'0:10.223',1389.760
'0:10.227',1394.139
'0:10.230',1399.999
'0:10.234',1403.671
'0:10.238',1372.885
'0:10.242',1402.189
'0:10.246',1389.760
'0:10.250',1372.178
'0:10.254',1406.601
'0:10.258',1383.899
'0:10.262',1373.626
'0:10.266',1377.298
'0:10.270',1385.348
'0:10.273',1420.512
'0:10.277',1421.253
'0:10.281',1406.601
'0:10.285',1414.651
'0:10.289',1410.272
'0:10.293',1389.019
'0:10.297',1421.994
'0:10.301',1422.701
'0:10.305',1419.771
'0:10.309',1414.651
'0:10.313',1419.063
'0:10.316',1419.063
'0:10.320',1412.462
'0:10.324',1413.910
'0:10.328',1410.272
'0:10.332',1392.690
'0:10.336',1399.258
'0:10.340',1419.771
'0:10.344',1415.392
'0:10.348',1405.119
'0:10.352',1397.810
'0:10.355',1420.512
'0:10.359',1418.322
'0:10.363',1401.481
'0:10.367',1393.398
'0:10.371',1430.044
'0:10.375',1402.189
'0:10.379',1442.506
'0:10.383',1422.701
'0:10.387',1405.119
'0:10.391',1405.119
'0:10.395',1444.696
'0:10.398',1438.835
'0:10.402',1428.562
'0:10.406',1394.139
'0:10.410',1402.189
'0:10.414',1409.531
'0:10.418',1426.372
'0:10.422',1395.621
'0:10.426',1389.019
'0:10.430',1385.348
'0:10.434',1379.487
'0:10.438',1358.974
'0:10.441',1394.880
'0:10.445',1386.089
'0:10.449',1383.158
'0:10.453',1370.696
'0:10.457',1350.924
'0:10.461',1352.373
'0:10.465',1363.387
'0:10.469',1389.019
'0:10.473',1393.398
'0:10.477',1376.557
'0:10.480',1372.178
'0:10.484',1373.626
'0:10.488',1385.348
'0:10.492',1403.671
'0:10.496',1422.701
'0:10.500',1428.562
'0:10.504',1438.835
'0:10.508',1449.815
'0:10.512',1454.228
'0:10.516',1460.796
'0:10.520',1454.228
'0:10.523',1501.113
'0:10.527',1515.024
'0:10.531',1488.651
'0:10.535',1532.606
'0:10.539',1507.681
'0:10.543',1532.606
'0:10.547',1517.954
'0:10.551',1513.542
'0:10.555',1555.308
'0:10.559',1546.517
'0:10.563',1516.472
'0:10.566',1544.327
'0:10.570',1515.765
'0:10.574',1560.427
'0:10.578',1524.556
'0:10.582',1562.651
'0:10.586',1523.074
'0:10.590',1546.517
'0:10.594',1550.929
'0:10.598',1549.447
'0:10.602',1545.776
'0:10.605',1520.144
'0:10.609',1526.004
'0:10.613',1559.720
'0:10.617',1533.347
'0:10.621',1567.029
'0:10.625',1578.751
'0:10.629',1569.219
'0:10.633',1602.193
'0:10.637',1643.218
'0:10.641',1649.820
'0:10.645',1695.224
'0:10.648',1727.457
'0:10.652',1775.825
'0:10.656',1829.312
'0:10.660',1874.008
'0:10.664',1950.198
'0:10.668',1968.487
'0:10.672',2024.164
'0:10.676',2063.740
'0:10.680',2110.626
'0:10.684',2157.511
'0:10.688',2170.681
'0:10.691',2198.536
'0:10.695',2220.531
'0:10.699',2211.740
'0:10.703',2215.377
'0:10.707',2224.168
'0:10.711',2172.163
'0:10.715',2169.233
'0:10.719',2102.576
'0:10.723',2076.910
'0:10.727',2034.437
'0:10.730',1968.487
'0:10.734',1911.362
'0:10.738',1835.173
'0:10.742',1780.237
'0:10.746',1707.686
'0:10.750',1643.218
'0:10.754',1608.054
'0:10.758',1545.776
'0:10.762',1497.442
'0:10.766',1435.164
'0:10.770',1383.158
'0:10.773',1359.715
'0:10.777',1330.412
'0:10.781',1265.203
'0:10.785',1263.014
'0:10.789',1239.571
'0:10.793',1216.128
'0:10.797',1192.686
'0:10.801',1186.825
'0:10.805',1169.950
'0:10.809',1172.880
'0:10.813',1166.312
'0:10.816',1163.382
'0:10.820',1164.089
'0:10.824',1156.039
'0:10.828',1146.507
'0:10.832',1164.830
'0:10.836',1153.850
'0:10.840',1123.065
'0:10.844',1160.452
'0:10.848',1121.616
'0:10.852',1124.547
'0:10.855',1137.009
'0:10.859',1106.964
'0:10.863',1099.622
'0:10.867',1117.204
'0:10.871',1101.104
'0:10.875',1052.029
'0:10.879',1045.427
'0:10.883',1060.079
'0:10.887',1059.338
'0:10.891',1049.098
'0:10.895',1016.865
'0:10.898',1024.174
'0:10.902',1054.959
'0:10.906',1013.934
'0:10.910',1034.447
'0:10.914',1063.009
'0:10.918',1063.009
'0:10.922',1094.502
'0:10.926',1074.731
'0:10.930',1122.357
'0:10.934',1147.989
'0:10.938',1170.691
'0:10.941',1193.393
'0:10.945',1216.128
'0:10.949',1238.830
'0:10.953',1243.950
'0:10.957',1241.019
'0:10.961',1298.885
'0:10.965',1274.735
'0:10.969',1326.000
'0:10.973',1323.810
'0:10.977',1328.223
'0:10.980',1361.905
'0:10.984',1337.721
'0:10.988',1354.596
'0:10.992',1364.835
'0:10.996',1345.064
'0:11.000',1321.621
'0:11.004',1316.468
'0:11.008',1326.000
'0:11.012',1342.133
'0:11.016',1304.746
'0:11.020',1313.537
'0:11.023',1292.317
'0:11.027',1268.134
'0:11.031',1302.557
'0:11.035',1258.602
'0:11.039',1287.905
'0:11.043',1250.552
'0:11.047',1283.526
'0:11.051',1288.646
'0:11.055',1260.791
'0:11.059',1276.184
'0:11.063',1279.114
'0:11.066',1247.621
'0:11.070',1273.253
'0:11.074',1296.696
'0:11.078',1292.317
'0:11.082',1268.875
'0:11.086',1304.039
'0:11.090',1285.716
'0:11.094',1284.234
'0:11.098',1312.089
'0:11.102',1273.994
'0:11.105',1281.303
'0:11.109',1329.671
'0:11.113',1293.025
'0:11.117',1315.760
'0:11.121',1356.785
'0:11.125',1366.317
'0:11.129',1372.178
'0:11.133',1386.830
'0:11.137',1394.139
'0:11.141',1397.810
'0:11.145',1410.272
'0:11.148',1414.651
'0:11.152',1424.924
'0:11.156',1427.854
'0:11.160',1432.233
'0:11.164',1430.044
'0:11.168',1421.994
'0:11.172',1413.203
'0:11.176',1421.253
'0:11.180',1430.044
'0:11.184',1422.701
'0:11.188',1408.049
'0:11.191',1419.771
'0:11.195',1434.423
'0:11.199',1406.601
'0:11.203',1403.671
'0:11.207',1405.860
'0:11.211',1402.189
'0:11.215',1417.581
'0:11.219',1411.721
'0:11.223',1413.203
'0:11.227',1424.924
'0:11.230',1416.133
'0:11.234',1411.721
'0:11.238',1418.322
'0:11.242',1426.372
'0:11.246',1436.646
'0:11.250',1443.955
'0:11.254',1474.740
'0:11.258',1440.283
'0:11.262',1479.119
'0:11.266',1483.531
'0:11.270',1473.258
'0:11.273',1470.328
'0:11.277',1450.556
'0:11.281',1476.929
'0:11.285',1454.935
'0:11.289',1453.487
'0:11.293',1485.720
'0:11.297',1482.790
'0:11.301',1479.119
'0:11.305',1453.487
'0:11.309',1453.487
'0:11.313',1482.049
'0:11.316',1491.581
'0:11.320',1460.088
'0:11.324',1484.238
'0:11.328',1502.562
'0:11.332',1490.840
'0:11.336',1487.169
'0:11.340',1520.885
'0:11.344',1485.720
'0:11.348',1529.676
'0:11.352',1501.821
'0:11.355',1506.233
'0:11.359',1535.536
'0:11.363',1504.751
'0:11.367',1526.745
'0:11.371',1500.372
'0:11.375',1517.954
'0:11.379',1473.999
'0:11.383',1452.005
'0:11.387',1471.069
'0:11.391',1430.785
'0:11.395',1422.701
'0:11.398',1402.189
'0:11.402',1392.690
'0:11.406',1377.298
'0:11.410',1372.178
'0:11.414',1352.373
'0:11.418',1345.805
'0:11.422',1357.526
'0:11.426',1362.646
'0:11.430',1317.950
'0:11.434',1323.069
'0:11.438',1334.083
'0:11.441',1350.183
'0:11.445',1378.746
'0:11.449',1388.278
'0:11.453',1405.860
'0:11.457',1405.119
'0:11.461',1416.840
'0:11.465',1455.676
'0:11.469',1482.790
'0:11.473',1508.422
'0:11.477',1524.556
'0:11.480',1522.333
'0:11.484',1566.288
'0:11.488',1605.124
'0:11.492',1627.826
'0:11.496',1654.940
'0:11.500',1648.338
'0:11.504',1690.845
'0:11.508',1709.875
'0:11.512',1704.015
'0:11.516',1688.656
'0:11.520',1690.104
'0:11.523',1712.806
'0:11.527',1706.945
'0:11.531',1706.945
'0:11.535',1662.990
'0:11.539',1672.522
'0:11.543',1614.656
'0:11.547',1578.010
'0:11.551',1569.960
'0:11.555',1523.815
'0:11.559',1505.492
'0:11.563',1444.696
'0:11.566',1394.139
'0:11.570',1355.303
'0:11.574',1320.880
'0:11.578',1272.512
'0:11.582',1205.114
'0:11.586',1135.527
'0:11.590',1113.566
'0:11.594',1070.318
'0:11.598',1015.383
'0:11.602',963.377
'0:11.605',911.372
'0:11.609',887.188
'0:11.613',873.244
'0:11.617',846.871
'0:11.621',824.169
'0:11.625',808.069
'0:11.629',768.492
'0:11.633',760.442
'0:11.637',783.885
'0:11.641',751.651
'0:11.645',757.512
'0:11.648',778.765
'0:11.652',810.999
'0:11.656',834.442
'0:11.660',827.099
'0:11.664',876.915
'0:11.668',898.910
'0:11.672',898.169
'0:11.676',947.244
'0:11.680',984.631
'0:11.684',989.751
'0:11.688',1014.642
'0:11.691',1071.800
'0:11.695',1109.895
'0:11.699',1119.427
'0:11.703',1178.034
'0:11.707',1200.736
'0:11.711',1219.766
'0:11.715',1284.975
'0:11.719',1298.885
'0:11.723',1345.064
'0:11.727',1353.114
'0:11.730',1369.955
'0:11.734',1387.537
'0:11.738',1433.715
'0:11.742',1477.670
'0:11.746',1468.879
'0:11.750',1507.681
'0:11.754',1489.392
'0:11.758',1504.044
'0:11.762',1528.194
'0:11.766',1528.935
'0:11.770',1523.074
'0:11.773',1526.004
'0:11.777',1536.277
'0:11.781',1550.929
'0:11.785',1521.626
'0:11.789',1543.586
'0:11.793',1512.835
'0:11.797',1514.283
'0:11.801',1490.840
'0:11.805',1504.044
'0:11.809',1464.467
'0:11.813',1450.556
'0:11.816',1435.164
'0:11.820',1411.721
'0:11.824',1420.512
'0:11.828',1421.994
'0:11.832',1403.671
'0:11.836',1384.607
'0:11.840',1367.024
'0:11.844',1369.248
'0:11.848',1348.735
'0:11.852',1355.303
'0:11.855',1353.855
'0:11.859',1352.373
'0:11.863',1356.785
'0:11.867',1358.974
'0:11.871',1337.014
'0:11.875',1342.133
'0:11.879',1354.596
'0:11.883',1361.164
'0:11.887',1375.816
'0:11.891',1410.980
'0:11.895',1419.063
'0:11.898',1422.701
'0:11.902',1393.398
'0:11.906',1435.905
'0:11.910',1413.910
'0:11.914',1453.487
'0:11.918',1419.771
'0:11.922',1435.905
'0:11.926',1440.283
'0:11.930',1440.283
'0:11.934',1481.308
'0:11.938',1458.606
'0:11.941',1449.815
'0:11.945',1459.347
'0:11.949',1471.810
'0:11.953',1492.322
'0:11.957',1472.517
'0:11.961',1461.537
'0:11.965',1498.890
'0:11.969',1482.049
'0:11.973',1507.681
'0:11.977',1516.472
'0:11.980',1490.099
'0:11.984',1541.397
'0:11.988',1531.124
'0:11.992',1535.536
'0:11.996',1531.865
'0:12.000',1563.358
'0:12.004',1575.820
'0:12.008',1548.706
'0:12.012',1558.238
'0:12.016',1561.910
'0:12.020',1572.149
'0:12.023',1576.561
'0:12.027',1590.472
'0:12.031',1613.174
'0:12.035',1621.965
'0:12.039',1632.979
'0:12.043',1632.979
'0:12.047',1594.884
'0:12.051',1598.522
'0:12.055',1600.004
'0:12.059',1600.745
'0:12.063',1614.656
'0:12.066',1632.979
'0:12.070',1633.686
'0:12.074',1633.686
'0:12.078',1606.606
'0:12.082',1599.263
'0:12.086',1586.093
'0:12.090',1577.302
'0:12.094',1583.870
'0:12.098',1607.313
'0:12.102',1556.790
'0:12.105',1548.706
'0:12.109',1558.238
'0:12.113',1565.581
'0:12.117',1558.979
'0:12.121',1501.113
'0:12.125',1491.581
'0:12.129',1496.701
'0:12.133',1466.656
'0:12.137',1431.492
'0:12.141',1450.556
'0:12.145',1432.233
'0:12.148',1378.746
'0:12.152',1402.189
'0:12.156',1353.114
'0:12.160',1353.114
'0:12.164',1353.114
'0:12.168',1341.392
'0:12.172',1315.019
'0:12.176',1297.437
'0:12.180',1344.323
'0:12.184',1340.651
'0:12.188',1325.292
'0:12.191',1374.367
'0:12.195',1392.690
'0:12.199',1386.830
'0:12.203',1447.626
'0:12.207',1488.651
'0:12.211',1506.233
'0:12.215',1550.929
'0:12.219',1602.193
'0:12.223',1690.845
'0:12.227',1709.875
'0:12.230',1761.914
'0:12.234',1811.730
'0:12.238',1860.805
'0:12.242',1906.950
'0:12.246',1954.576
'0:12.250',2007.323
'0:12.254',2010.994
'0:12.258',2055.690
'0:12.262',2084.253
'0:12.266',2064.481
'0:12.270',2078.392
'0:12.273',2070.342
'0:12.277',2046.899
'0:12.281',2050.537
'0:12.285',2008.805
'0:12.289',1963.367
'0:12.293',1939.183
'0:12.297',1909.880
'0:12.301',1863.735
'0:12.305',1808.800
'0:12.309',1805.128
'0:12.313',1750.193
'0:12.316',1700.377
'0:12.320',1643.959
'0:12.324',1619.034
'0:12.328',1602.193
'0:12.332',1542.845
'0:12.336',1482.790
'0:12.340',1486.461
'0:12.344',1423.442
'0:12.348',1382.417
'0:12.352',1352.373
'0:12.355',1334.791
'0:12.359',1300.367
'0:12.363',1299.626
'0:12.367',1287.164
'0:12.371',1241.760
'0:12.375',1254.223
'0:12.379',1190.463
'0:12.383',1208.786
'0:12.387',1150.179
'0:12.391',1136.268
'0:12.395',1139.198
'0:12.398',1108.413
'0:12.402',1073.990
'0:12.406',1078.402
'0:12.410',1062.268
'0:12.414',1046.168
'0:12.418',1017.572
'0:12.422',1003.661
'0:12.426',961.895
'0:12.430',969.979
'0:12.434',939.194
'0:12.438',934.074
'0:12.441',893.049
'0:12.445',917.233
'0:12.449',908.442
'0:12.453',906.960
'0:12.457',909.149
'0:12.461',904.770
'0:12.465',880.587
'0:12.469',934.074
'0:12.473',925.283
'0:12.477',956.776
'0:12.480',970.686
'0:12.484',993.422
'0:12.488',1008.074
'0:12.492',1051.288
'0:12.496',1073.990
'0:12.500',1085.711
'0:12.504',1102.552
'0:12.508',1115.756
'0:12.512',1122.357
'0:12.516',1168.502
'0:12.520',1161.159
'0:12.523',1158.970
'0:12.527',1216.836
'0:12.531',1187.532
'0:12.535',1237.348
'0:12.539',1199.254
'0:12.543',1245.432
'0:12.547',1247.621
'0:12.551',1245.432
'0:12.555',1218.318
'0:12.559',1237.348
'0:12.563',1265.944
'0:12.566',1246.880
'0:12.570',1221.989
'0:12.574',1227.109
'0:12.578',1262.273
'0:12.582',1237.348
'0:12.586',1260.084
'0:12.590',1219.766
'0:12.594',1219.059
'0:12.598',1248.362
'0:12.602',1259.343
'0:12.605',1217.577
'0:12.609',1244.691
'0:12.613',1242.502
'0:12.617',1222.696
'0:12.621',1263.014
'0:12.625',1227.850
'0:12.629',1262.273
'0:12.633',1273.994
'0:12.637',1242.502
'0:12.641',1258.602
'0:12.645',1301.108
'0:12.648',1280.596
'0:12.652',1276.925
'0:12.656',1294.507
'0:12.660',1317.209
'0:12.664',1326.000
'0:12.668',1331.860
'0:12.672',1328.223
'0:12.676',1348.735
'0:12.680',1364.094
'0:12.684',1356.785
'0:12.688',1366.317
'0:12.691',1398.551
'0:12.695',1391.949
'0:12.699',1380.228
'0:12.703',1427.854
'0:12.707',1430.785
'0:12.711',1438.835
'0:12.715',1419.063
'0:12.719',1416.133
'0:12.723',1437.353
'0:12.727',1450.556
'0:12.730',1442.506
'0:12.734',1471.069
'0:12.738',1457.865
'0:12.742',1472.517
'0:12.746',1488.651
'0:12.750',1458.606
'0:12.754',1504.751
'0:12.758',1480.601
'0:12.762',1507.681
'0:12.766',1483.531
'0:12.770',1517.213
'0:12.773',1503.303
'0:12.777',1501.821
'0:12.781',1528.194
'0:12.785',1501.113
'0:12.789',1493.029
'0:12.793',1528.935
'0:12.797',1517.213
'0:12.801',1506.974
'0:12.805',1500.372
'0:12.809',1512.835
'0:12.813',1497.442
'0:12.816',1530.417
'0:12.820',1489.392
'0:12.824',1524.556
'0:12.828',1488.651
'0:12.832',1506.233
'0:12.836',1525.263
'0:12.840',1482.790
'0:12.844',1519.403
'0:12.848',1480.601
'0:12.852',1476.188
'0:12.855',1512.835
'0:12.859',1499.631
'0:12.863',1469.587
'0:12.867',1469.587
'0:12.871',1498.890
'0:12.875',1504.751
'0:12.879',1485.720
'0:12.883',1484.979
'0:12.887',1523.815
'0:12.891',1506.974
'0:12.895',1528.935
'0:12.898',1544.327
'0:12.902',1539.208
'0:12.906',1526.004
'0:12.910',1513.542
'0:12.914',1546.517
'0:12.918',1510.612
'0:12.922',1540.656
'0:12.926',1525.263
'0:12.930',1509.904
'0:12.934',1509.163
'0:12.938',1484.979
'0:12.941',1457.158
'0:12.945',1452.005
'0:12.949',1471.069
'0:12.953',1431.492
'0:12.957',1417.581
'0:12.961',1446.144
'0:12.965',1409.531
'0:12.969',1451.297
'0:12.973',1427.113
'0:12.977',1462.278
'0:12.980',1430.785
'0:12.984',1478.378
'0:12.988',1490.099
'0:12.992',1487.910
'0:12.996',1515.024
'0:13.000',1548.706
'0:13.004',1578.010
'0:13.008',1656.422
'0:13.012',1666.661
'0:13.016',1729.680
'0:13.020',1748.711
'0:13.023',1792.666
'0:13.027',1836.621
'0:13.031',1882.059
'0:13.035',1942.855
'0:13.039',1974.348
'0:13.043',1991.930
'0:13.047',2003.651
'0:13.051',2047.606
'0:13.055',2035.885
'0:13.059',2032.955
'0:13.063',2043.228
'0:13.066',2045.417
'0:13.070',2021.974
'0:13.074',1973.640
'0:13.078',1926.755
'0:13.082',1886.437
'0:13.086',1846.894
'0:13.090',1799.268
'0:13.094',1750.900
'0:13.098',1667.402
'0:13.102',1594.884
'0:13.105',1558.979
'0:13.109',1441.024
'0:13.113',1364.094
'0:13.117',1284.975
'0:13.121',1221.248
'0:13.125',1134.079
'0:13.129',1071.059
'0:13.133',1007.333
'0:13.137',916.492
'0:13.141',881.328
'0:13.145',825.651
'0:13.148',732.587
'0:13.152',717.228
'0:13.156',641.746
'0:13.160',621.234
'0:13.164',589.741
'0:13.168',575.830
'0:13.172',539.184
'0:13.176',568.488
'0:13.180',575.830
'0:13.184',564.850
'0:13.188',595.602
'0:13.191',612.443
'0:13.195',634.437
'0:13.199',660.069
'0:13.203',655.691
'0:13.207',712.075
'0:13.211',738.448
'0:13.215',775.094
'0:13.219',843.233
'0:13.223',860.815
'0:13.227',923.094
'0:13.230',942.124
'0:13.234',994.870
'0:13.238',1046.168
'0:13.242',1076.920
'0:13.246',1111.343
'0:13.250',1134.079
'0:13.254',1164.830
'0:13.258',1176.552
'0:13.262',1211.716
'0:13.266',1252.741
'0:13.270',1283.526
'0:13.273',1293.025
'0:13.277',1292.317
'0:13.281',1320.139
'0:13.285',1349.442
'0:13.289',1353.855
'0:13.293',1364.094
'0:13.297',1376.557
'0:13.301',1399.999
'0:13.305',1391.949
'0:13.309',1396.328
'0:13.313',1394.880
'0:13.316',1436.646
'0:13.320',1437.353
'0:13.324',1412.462
'0:13.328',1433.715
'0:13.332',1425.631
'0:13.336',1411.721
'0:13.340',1448.367
'0:13.344',1408.790
'0:13.348',1434.423
'0:13.352',1424.924
'0:13.355',1432.974
'0:13.359',1411.721
'0:13.363',1414.651
'0:13.367',1414.651
'0:13.371',1397.069
'0:13.375',1427.113
'0:13.379',1408.790
'0:13.383',1377.298
'0:13.387',1416.840
'0:13.391',1413.203
'0:13.395',1371.437
'0:13.398',1413.910
'0:13.402',1372.885
'0:13.406',1388.278
'0:13.410',1391.208
'0:13.414',1397.069
'0:13.418',1424.183
'0:13.422',1397.810
'0:13.426',1444.696
'0:13.430',1411.721
'0:13.434',1427.854
'0:13.438',1451.297
'0:13.441',1447.626
'0:13.445',1447.626
'0:13.449',1442.506
'0:13.453',1449.074
'0:13.457',1493.770
'0:13.461',1473.999
'0:13.465',1458.606
'0:13.469',1456.417
'0:13.473',1458.606
'0:13.477',1479.119
'0:13.480',1487.169
'0:13.484',1457.158
'0:13.488',1452.746
'0:13.492',1452.746
'0:13.496',1449.815
'0:13.500',1452.005
'0:13.504',1490.840
'0:13.508',1488.651
'0:13.512',1482.790
'0:13.516',1482.790
'0:13.520',1471.069
'0:13.523',1461.537
'0:13.527',1442.506
'0:13.531',1451.297
'0:13.535',1448.367
'0:13.539',1463.726
'0:13.543',1446.885
'0:13.547',1446.144
'0:13.551',1467.397
'0:13.555',1477.670
'0:13.559',1475.447
'0:13.563',1450.556
'0:13.566',1465.208
'0:13.570',1479.860
'0:13.574',1487.910
'0:13.578',1489.392
'0:13.582',1465.949
'0:13.586',1475.447
'0:13.590',1471.810
'0:13.594',1465.208
'0:13.598',1487.910
'0:13.602',1486.461
'0:13.605',1528.194
'0:13.609',1522.333
'0:13.613',1509.163
'0:13.617',1524.556
'0:13.621',1554.567
'0:13.625',1558.979
'0:13.629',1563.358
'0:13.633',1613.915
'0:13.637',1607.313
'0:13.641',1604.383
'0:13.645',1645.408
'0:13.648',1652.750
'0:13.652',1639.547
'0:13.656',1675.452
'0:13.660',1654.940
'0:13.664',1678.382
'0:13.668',1686.432
'0:13.672',1682.795
'0:13.676',1662.990
'0:13.680',1645.408
'0:13.684',1679.864
'0:13.688',1637.358
'0:13.691',1652.009
'0:13.695',1649.820
'0:13.699',1631.497
'0:13.703',1638.099
'0:13.707',1619.034
'0:13.711',1655.681
'0:13.715',1635.909
'0:13.719',1645.408
'0:13.723',1621.965
'0:13.727',1658.611
'0:13.730',1630.756
'0:13.734',1674.004
'0:13.738',1659.352
'0:13.742',1686.432
'0:13.746',1723.820
'0:13.750',1756.054
'0:13.754',1769.964
'0:13.758',1788.287
'0:13.762',1814.661
'0:13.766',1856.426
'0:13.770',1897.451
'0:13.773',1898.900
'0:13.777',1954.576
'0:13.781',1941.406
'0:13.785',1977.278
'0:13.789',1976.571
'0:13.793',1971.417
'0:13.797',1970.710
'0:13.801',1955.317
'0:13.805',1916.482
'0:13.809',1921.601
'0:13.813',1868.855
'0:13.816',1835.914
'0:13.820',1808.800
'0:13.824',1750.900
'0:13.828',1714.288
'0:13.832',1630.049
'0:13.836',1578.751
'0:13.840',1519.403
'0:13.844',1482.049
'0:13.848',1443.214
'0:13.852',1390.467
'0:13.855',1293.025
'0:13.859',1285.716
'0:13.863',1212.457
'0:13.867',1197.805
'0:13.871',1147.248
'0:13.875',1117.204
'0:13.879',1064.458
'0:13.883',1043.238
'0:13.887',1016.124
'0:13.891',977.288
'0:13.895',999.990
'0:13.898',947.244
'0:13.902',977.288
'0:13.906',957.517
'0:13.910',945.795
'0:13.914',958.965
'0:13.918',942.865
'0:13.922',969.238
'0:13.926',953.845
'0:13.930',978.770
'0:13.934',974.358
'0:13.938',988.269
'0:13.941',993.422
'0:13.945',981.700
'0:13.949',979.477
'0:13.953',1028.586
'0:13.957',1002.920
'0:13.961',1007.333
'0:13.965',1024.174
'0:13.969',1054.218
'0:13.973',1018.313
'0:13.977',1042.497
'0:13.980',1062.268
'0:13.984',1068.129
'0:13.988',1032.965
'0:13.992',1079.850
'0:13.996',1086.452
'0:14.000',1094.502
'0:14.004',1099.622
'0:14.008',1087.900
'0:14.012',1103.293
'0:14.016',1106.223
'0:14.020',1099.622
'0:14.023',1158.229
'0:14.027',1160.452
'0:14.031',1161.900
'0:14.035',1156.039
'0:14.039',1202.925
'0:14.043',1191.204
'0:14.047',1237.348
'0:14.051',1249.070
'0:14.055',1244.691
'0:14.059',1268.875
'0:14.063',1299.626
'0:14.066',1315.019
'0:14.070',1336.273
'0:14.074',1348.735
'0:14.078',1354.596
'0:14.082',1355.303
'0:14.086',1408.049
'0:14.090',1410.272
'0:14.094',1392.690
'0:14.098',1445.437
'0:14.102',1424.183
'0:14.105',1421.253
'0:14.109',1469.587
'0:14.113',1433.715
'0:14.117',1469.587
'0:14.121',1427.854
'0:14.125',1467.397
'0:14.129',1438.835
'0:14.133',1416.133
'0:14.137',1433.715
'0:14.141',1413.203
'0:14.145',1399.999
'0:14.148',1407.342
'0:14.152',1394.139
'0:14.156',1391.949
'0:14.160',1375.108
'0:14.164',1339.203
'0:14.168',1367.024
'0:14.172',1317.209
'0:14.176',1328.930
'0:14.180',1350.924
'0:14.184',1334.083
'0:14.188',1307.677
'0:14.191',1339.203
'0:14.195',1350.924
'0:14.199',1331.153
'0:14.203',1309.159
'0:14.207',1323.069
'0:14.211',1337.721
'0:14.215',1356.785
'0:14.219',1364.835
'0:14.223',1339.203
'0:14.227',1342.133
'0:14.230',1338.462
'0:14.234',1359.715
'0:14.238',1382.417
'0:14.242',1364.094
'0:14.246',1377.298
'0:14.250',1364.835
'0:14.254',1383.158
'0:14.258',1410.272
'0:14.262',1380.228
'0:14.266',1428.562
'0:14.270',1403.671
'0:14.273',1416.133
'0:14.277',1446.885
'0:14.281',1441.765
'0:14.285',1435.905
'0:14.289',1427.113
'0:14.293',1441.765
'0:14.297',1474.740
'0:14.301',1475.447
'0:14.305',1460.088
'0:14.309',1443.955
'0:14.313',1460.796
'0:14.316',1494.511
'0:14.320',1491.581
'0:14.324',1492.322
'0:14.328',1474.740
'0:14.332',1466.656
'0:14.336',1504.044
'0:14.340',1479.860
'0:14.344',1515.024
'0:14.348',1489.392
'0:14.352',1520.885
'0:14.355',1487.169
'0:14.359',1479.860
'0:14.363',1481.308
'0:14.367',1498.183
'0:14.371',1515.024
'0:14.375',1478.378
'0:14.379',1473.999
'0:14.383',1498.183
'0:14.387',1497.442
'0:14.391',1463.726
'0:14.395',1480.601
'0:14.398',1482.790
'0:14.402',1453.487
'0:14.406',1470.328
'0:14.410',1489.392
'0:14.414',1457.158
'0:14.418',1442.506
'0:14.422',1439.576
'0:14.426',1475.447
'0:14.430',1444.696
'0:14.434',1476.188
'0:14.438',1441.765
'0:14.441',1482.049
'0:14.445',1457.865
'0:14.449',1453.487
'0:14.453',1478.378
'0:14.457',1460.088
'0:14.461',1484.238
'0:14.465',1479.860
'0:14.469',1481.308
'0:14.473',1507.681
'0:14.477',1526.004
'0:14.480',1512.094
'0:14.484',1498.890
'0:14.488',1513.542
'0:14.492',1528.935
'0:14.496',1523.815
'0:14.500',1489.392
'0:14.504',1526.004
'0:14.508',1482.790
'0:14.512',1506.974
'0:14.516',1470.328
'0:14.520',1484.238
'0:14.523',1457.158
'0:14.527',1465.949
'0:14.531',1430.785
'0:14.535',1438.835
'0:14.539',1421.994
'0:14.543',1369.248
'0:14.547',1359.715
'0:14.551',1360.456
'0:14.555',1349.442
'0:14.559',1372.178
'0:14.563',1377.298
'0:14.566',1356.785
'0:14.570',1348.735
'0:14.574',1334.083
'0:14.578',1347.253
'0:14.582',1365.576
'0:14.586',1386.089
'0:14.590',1385.348
'0:14.594',1378.039
'0:14.598',1381.676
'0:14.602',1437.353
'0:14.605',1421.253
'0:14.609',1440.283
'0:14.613',1466.656
'0:14.617',1492.322
'0:14.621',1486.461
'0:14.625',1542.845
'0:14.629',1525.263
'0:14.633',1535.536
'0:14.637',1545.776
'0:14.641',1556.049
'0:14.645',1586.801
'0:14.648',1612.466
'0:14.652',1612.466
'0:14.656',1596.333
'0:14.660',1569.219
'0:14.664',1558.979
'0:14.668',1558.238
'0:14.672',1577.302
'0:14.676',1517.954
'0:14.680',1524.556
'0:14.684',1498.183
'0:14.688',1471.810
'0:14.691',1427.854
'0:14.695',1434.423
'0:14.699',1383.899
'0:14.703',1342.874
'0:14.707',1315.760
'0:14.711',1293.766
'0:14.715',1268.134
'0:14.719',1210.268
'0:14.723',1158.970
'0:14.727',1167.020
'0:14.730',1117.945
'0:14.734',1081.332
'0:14.738',1040.307
'0:14.742',1027.845
'0:14.746',956.776
'0:14.750',967.049
'0:14.754',929.662
'0:14.758',885.706
'0:14.762',912.820
'0:14.766',895.979
'0:14.770',882.776
'0:14.773',863.746
'0:14.777',871.796
'0:14.781',883.517
'0:14.785',895.979
'0:14.789',876.174
'0:14.793',935.522
'0:14.797',909.890
'0:14.801',975.099
'0:14.805',989.751
'0:14.809',990.492
'0:14.813',1008.781
'0:14.816',1068.129
'0:14.820',1092.313
'0:14.824',1123.065
'0:14.828',1123.065
'0:14.832',1186.084
'0:14.836',1192.686
'0:14.840',1257.153
'0:14.844',1256.412
'0:14.848',1306.969
'0:14.852',1316.468
'0:14.855',1312.089
'0:14.859',1354.596
'0:14.863',1389.019
'0:14.867',1401.481
'0:14.871',1393.398
'0:14.875',1412.462
'0:14.879',1433.715
'0:14.883',1453.487
'0:14.887',1457.158
'0:14.891',1446.885
'0:14.895',1460.796
'0:14.898',1460.088
'0:14.902',1452.746
'0:14.906',1448.367
'0:14.910',1424.924
'0:14.914',1405.119
'0:14.918',1399.999
'0:14.922',1394.880
'0:14.926',1410.272
'0:14.930',1427.113
'0:14.934',1398.551
'0:14.938',1391.949
'0:14.941',1379.487
'0:14.945',1362.646
'0:14.949',1356.044
'0:14.953',1347.994
'0:14.957',1382.417
'0:14.961',1364.835
'0:14.965',1349.442
'0:14.969',1334.791
'0:14.973',1334.791
'0:14.977',1362.646
'0:14.980',1351.665
'0:14.984',1317.950
'0:14.988',1315.760
'0:14.992',1332.601
'0:14.996',1321.621
'0:15.000',1302.557
'0:15.004',1307.677
'0:15.008',1309.159
'0:15.012',1353.855
'0:15.016',1358.974
'0:15.020',1338.462
'0:15.023',1346.512
'0:15.027',1375.108
'0:15.031',1380.228
'0:15.035',1391.208
'0:15.039',1388.278
'0:15.043',1373.626
'0:15.047',1372.885
'0:15.051',1421.253
'0:15.055',1402.930
'0:15.059',1392.690
'0:15.063',1400.740
'0:15.066',1422.701
'0:15.070',1411.721
'0:15.074',1461.537
'0:15.078',1431.492
'0:15.082',1473.999
'0:15.086',1442.506
'0:15.090',1483.531
'0:15.094',1454.228
'0:15.098',1465.208
'0:15.102',1478.378
'0:15.105',1493.029
'0:15.109',1465.949
'0:15.113',1492.322
'0:15.117',1485.720
'0:15.121',1479.860
'0:15.125',1506.233
'0:15.129',1476.188
'0:15.133',1492.322
'0:15.137',1490.099
'0:15.141',1482.790
'0:15.145',1518.695
'0:15.148',1487.169
'0:15.152',1489.392
'0:15.156',1489.392
'0:15.160',1491.581
'0:15.164',1507.681
'0:15.168',1533.347
'0:15.172',1547.258
'0:15.176',1516.472
'0:15.180',1520.144
'0:15.184',1524.556
'0:15.188',1540.656
'0:15.191',1539.915
'0:15.195',1552.377
'0:15.199',1592.661
'0:15.203',1580.233
'0:15.207',1581.681
'0:15.211',1573.631
'0:15.215',1585.352
'0:15.219',1582.422
'0:15.223',1558.979
'0:15.227',1560.427
'0:15.230',1583.163
'0:15.234',1591.213
'0:15.238',1562.651
'0:15.242',1542.845
'0:15.246',1534.054
'0:15.250',1556.790
'0:15.254',1554.567
'0:15.258',1550.188
'0:15.262',1499.631
'0:15.266',1516.472
'0:15.270',1523.815
'0:15.273',1486.461
'0:15.277',1506.974
'0:15.281',1527.486
'0:15.285',1497.442
'0:15.289',1522.333
'0:15.293',1505.492
'0:15.297',1557.497
'0:15.301',1558.238
'0:15.305',1550.188
'0:15.309',1574.372
'0:15.313',1602.934
'0:15.316',1643.218
'0:15.320',1696.706
'0:15.324',1719.407
'0:15.328',1784.616
'0:15.332',1807.318
'0:15.336',1836.621
'0:15.340',1886.437
'0:15.344',1941.406
'0:15.348',1958.989
'0:15.352',1983.880
'0:15.355',2005.133
'0:15.359',2015.373
'0:15.363',2024.164
'0:15.367',2013.183
'0:15.371',2005.874
'0:15.375',1988.999
'0:15.379',1969.228
'0:15.383',1937.735
'0:15.387',1892.298
'0:15.391',1847.635
'0:15.395',1827.123
'0:15.398',1736.248
'0:15.402',1680.572
'0:15.406',1618.327
'0:15.410',1544.327
'0:15.414',1487.169
'0:15.418',1410.980
'0:15.422',1347.253
'0:15.426',1293.025
'0:15.430',1252.741
'0:15.434',1202.184
'0:15.438',1126.736
'0:15.441',1084.970
'0:15.445',1062.268
'0:15.449',1003.661
'0:15.453',1002.213
'0:15.457',968.497
'0:15.461',943.606
'0:15.465',937.004
'0:15.469',901.099
'0:15.473',928.213
'0:15.477',952.397
'0:15.480',919.422
'0:15.484',931.144
'0:15.488',969.979
'0:15.492',978.029
'0:15.496',989.751
'0:15.500',1053.477
'0:15.504',1051.288
'0:15.508',1094.502
'0:15.512',1121.616
'0:15.516',1132.597
'0:15.520',1142.129
'0:15.523',1137.716
'0:15.527',1196.323
'0:15.531',1168.502
'0:15.535',1221.989
'0:15.539',1193.393
'0:15.543',1235.159
'0:15.547',1209.527
'0:15.551',1245.432
'0:15.555',1263.014
'0:15.559',1221.248
'0:15.563',1246.139
'0:15.566',1266.652
'0:15.570',1243.209
'0:15.574',1227.850
'0:15.578',1269.582
'0:15.582',1236.641
'0:15.586',1251.293
'0:15.590',1234.418
'0:15.594',1286.457
'0:15.598',1254.930
'0:15.602',1304.039
'0:15.605',1273.253
'0:15.609',1302.557
'0:15.613',1323.810
'0:15.617',1356.785
'0:15.621',1364.094
'0:15.625',1360.456
'0:15.629',1358.233
'0:15.633',1380.228
'0:15.637',1423.442
'0:15.641',1436.646
'0:15.645',1444.696
'0:15.648',1443.214
'0:15.652',1440.283
'0:15.656',1434.423
'0:15.660',1427.854
'0:15.664',1437.353
'0:15.668',1472.517
'0:15.672',1460.088
'0:15.676',1443.955
'0:15.680',1424.183
'0:15.684',1422.701
'0:15.688',1415.392
'0:15.691',1411.721
'0:15.695',1413.203
'0:15.699',1403.671
'0:15.703',1384.607
'0:15.707',1375.108
'0:15.711',1365.576
'0:15.715',1355.303
'0:15.719',1364.094
'0:15.723',1335.532
'0:15.727',1325.292
'0:15.730',1338.462
'0:15.734',1330.412
'0:15.738',1330.412
'0:15.742',1351.665
'0:15.746',1342.133
'0:15.750',1336.273
'0:15.754',1347.253
'0:15.758',1326.741
'0:15.762',1313.537
'0:15.766',1337.721
'0:15.770',1329.671
'0:15.773',1320.880
'0:15.777',1340.651
'0:15.781',1360.456
'0:15.785',1342.133
'0:15.789',1323.069
'0:15.793',1328.223
'0:15.797',1335.532
'0:15.801',1364.094
'0:15.805',1380.228
'0:15.809',1386.830
'0:15.813',1354.596
'0:15.816',1375.816
'0:15.820',1400.740
'0:15.824',1376.557
'0:15.828',1415.392
'0:15.832',1426.372
'0:15.836',1432.974
'0:15.840',1436.646
'0:15.844',1405.119
'0:15.848',1438.835
'0:15.852',1444.696
'0:15.855',1427.113
'0:15.859',1441.024
'0:15.863',1432.233
'0:15.867',1427.854
'0:15.871',1446.885
'0:15.875',1454.228
'0:15.879',1436.646
'0:15.883',1437.353
'0:15.887',1448.367
'0:15.891',1495.960
'0:15.895',1493.029
'0:15.898',1465.949
'0:15.902',1516.472
'0:15.906',1493.770
'0:15.910',1487.169
'0:15.914',1524.556
'0:15.918',1522.333
'0:15.922',1551.636
'0:15.926',1537.726
'0:15.930',1523.074
'0:15.934',1545.068
'0:15.938',1551.636
'0:15.941',1564.840
'0:15.945',1591.213
'0:15.949',1569.960
'0:15.953',1582.422
'0:15.957',1616.104
'0:15.961',1589.024
'0:15.965',1617.586
'0:15.969',1636.617
'0:15.973',1632.238
'0:15.977',1629.308
'0:15.980',1641.029
'0:15.984',1655.681
'0:15.988',1666.661
'0:15.992',1686.432
'0:15.996',1697.447
'0:16.000',1723.079
'0:16.004',1750.900
'0:16.008',1775.084
'0:16.012',1769.223
'0:16.016',1774.377
'0:16.020',1782.427
'0:16.023',1812.471
'0:16.027',1823.452
'0:16.031',1814.661
'0:16.035',1805.128
'0:16.039',1830.053
'0:16.043',1820.521
'0:16.047',1794.889
'0:16.051',1768.516
'0:16.055',1787.546
'0:16.059',1761.914
'0:16.063',1733.318
'0:16.066',1695.965
'0:16.070',1671.781
'0:16.074',1662.990
'0:16.078',1618.327
'0:16.082',1563.358
'0:16.086',1564.840
'0:16.090',1489.392
'0:16.094',1487.169
'0:16.098',1453.487
'0:16.102',1419.063
'0:16.105',1379.487
'0:16.109',1358.233
'0:16.113',1342.874
'0:16.117',1277.666
'0:16.121',1281.303
'0:16.125',1284.234
'0:16.129',1235.159
'0:16.133',1260.791
'0:16.137',1265.944
'0:16.141',1264.462
'0:16.145',1273.253
'0:16.148',1276.925
'0:16.152',1299.626
'0:16.156',1309.159
'0:16.160',1307.677
'0:16.164',1326.741
'0:16.168',1329.671
'0:16.172',1381.676
'0:16.176',1388.278
'0:16.180',1427.854
'0:16.184',1416.133
'0:16.188',1418.322
'0:16.191',1450.556
'0:16.195',1484.979
'0:16.199',1449.815
'0:16.203',1492.322
'0:16.207',1449.815
'0:16.211',1446.144
'0:16.215',1465.949
'0:16.219',1457.865
'0:16.223',1418.322
'0:16.227',1401.481
'0:16.230',1391.949
'0:16.234',1328.223
'0:16.238',1307.677
'0:16.242',1290.835
'0:16.246',1208.045
'0:16.250',1202.184
'0:16.254',1151.661
'0:16.258',1098.173
'0:16.262',1052.736
'0:16.266',1020.502
'0:16.270',934.074
'0:16.273',927.472
'0:16.277',878.397
'0:16.281',833.701
'0:16.285',795.606
'0:16.289',728.208
'0:16.293',687.184
'0:16.297',661.551
'0:16.301',665.930
'0:16.305',613.184
'0:16.309',602.203
'0:16.313',626.387
'0:16.316',584.621
'0:16.320',621.975
'0:16.324',589.741
'0:16.328',626.387
'0:16.332',652.760
'0:16.336',663.000
'0:16.340',659.328
'0:16.344',678.393
'0:16.348',728.949
'0:16.352',787.556
'0:16.355',818.308
'0:16.359',848.353
'0:16.363',879.105
'0:16.367',934.815
'0:16.371',955.327
'0:16.375',1006.592
'0:16.379',1052.736
'0:16.383',1076.920
'0:16.387',1079.850
'0:16.391',1140.647
'0:16.395',1191.204
'0:16.398',1219.059
'0:16.402',1248.362
'0:16.406',1277.666
'0:16.410',1288.646
'0:16.414',1311.348
'0:16.418',1337.721
'0:16.422',1369.248
'0:16.426',1411.721
'0:16.430',1415.392
'0:16.434',1453.487
'0:16.438',1470.328
'0:16.441',1443.214
'0:16.445',1467.397
'0:16.449',1501.821
'0:16.453',1489.392
'0:16.457',1483.531
'0:16.461',1502.562
'0:16.465',1493.029
'0:16.469',1501.821
'0:16.473',1499.631
'0:16.477',1491.581
'0:16.480',1500.372
'0:16.484',1503.303
'0:16.488',1465.949
'0:16.492',1474.740
'0:16.496',1486.461
'0:16.500',1485.720
'0:16.504',1441.765
'0:16.508',1444.696
'0:16.512',1455.676
'0:16.516',1436.646
'0:16.520',1430.785
'0:16.523',1447.626
'0:16.527',1435.164
'0:16.531',1410.272
'0:16.535',1394.139
'0:16.539',1427.854
'0:16.543',1390.467
'0:16.547',1429.303
'0:16.551',1396.328
'0:16.555',1408.049
'0:16.559',1404.412
'0:16.563',1426.372
'0:16.566',1404.412
'0:16.570',1432.974
'0:16.574',1453.487
'0:16.578',1425.631
'0:16.582',1448.367
'0:16.586',1448.367
'0:16.590',1475.447
'0:16.594',1442.506
'0:16.598',1473.258
'0:16.602',1498.183
'0:16.605',1502.562
'0:16.609',1504.044
'0:16.613',1494.511
'0:16.617',1498.890
'0:16.621',1531.124
'0:16.625',1544.327
'0:16.629',1528.194
'0:16.633',1538.467
'0:16.637',1534.054
'0:16.641',1572.890
'0:16.645',1554.567
'0:16.648',1556.049
'0:16.652',1555.308
'0:16.656',1594.884
'0:16.660',1600.745
'0:16.664',1596.333
'0:16.668',1594.143
'0:16.672',1564.099
'0:16.676',1565.581
'0:16.680',1575.820
'0:16.684',1555.308
'0:16.688',1549.447
'0:16.691',1564.840
'0:16.695',1563.358
'0:16.699',1533.347
'0:16.703',1523.074
'0:16.707',1544.327
'0:16.711',1554.567
'0:16.715',1558.238
'0:16.719',1542.845
'0:16.723',1511.353
'0:16.727',1545.776
'0:16.730',1508.422
'0:16.734',1552.377
'0:16.738',1511.353
'0:16.742',1547.258
'0:16.746',1517.954
'0:16.750',1509.163
'0:16.754',1523.074
'0:16.758',1501.821
'0:16.762',1526.745
'0:16.766',1506.974
'0:16.770',1481.308
'0:16.773',1464.467
'0:16.777',1460.088
'0:16.781',1453.487
'0:16.785',1463.726
'0:16.789',1443.214
'0:16.793',1436.646
'0:16.797',1433.715
'0:16.801',1404.412
'0:16.805',1376.557
'0:16.809',1372.885
'0:16.813',1378.746
'0:16.816',1378.746
'0:16.820',1426.372
'0:16.824',1415.392
'0:16.828',1462.278
'0:16.832',1449.815
'0:16.836',1504.751
'0:16.840',1547.258
'0:16.844',1571.442
'0:16.848',1632.979
'0:16.852',1704.015
'0:16.855',1778.014
'0:16.859',1836.621
'0:16.863',1920.894
'0:16.867',2001.462
'0:16.871',2081.322
'0:16.875',2158.960
'0:16.879',2260.815
'0:16.883',2321.611
'0:16.887',2390.491
'0:16.891',2449.805
'0:16.895',2477.660
'0:16.898',2520.134
'0:16.902',2548.730
'0:16.906',2548.730
'0:16.910',2534.078
'0:16.914',2528.925
'0:16.918',2482.039
'0:16.922',2463.009
'0:16.926',2408.780
'0:16.930',2345.795
'0:16.934',2276.915
'0:16.938',2177.283
'0:16.941',2096.715
'0:16.945',2028.576
'0:16.949',1923.083
'0:16.953',1812.471
'0:16.957',1725.268
'0:16.961',1641.029
'0:16.965',1569.960
'0:16.969',1481.308
'0:16.973',1378.039
'0:16.977',1304.746
'0:16.980',1243.209
'0:16.984',1180.223
'0:16.988',1075.472
'0:16.992',1056.408
'0:16.996',1005.851
'0:17.000',945.795
'0:17.004',915.010
'0:17.008',884.999
'0:17.012',876.174
'0:17.016',859.333
'0:17.020',849.801
'0:17.023',841.751
'0:17.027',824.910
'0:17.031',803.657
'0:17.035',801.467
'0:17.039',810.258
'0:17.043',827.099
'0:17.047',871.796
'0:17.051',876.174
'0:17.055',880.587
'0:17.059',881.328
'0:17.063',885.706
'0:17.066',921.611
'0:17.070',931.144
'0:17.074',937.745
'0:17.078',925.283
'0:17.082',980.959
'0:17.086',950.915
'0:17.090',995.611
'0:17.094',1025.656
'0:17.098',1046.875
'0:17.102',1063.009
'0:17.105',1086.452
'0:17.109',1103.293
'0:17.113',1123.065
'0:17.117',1112.825
'0:17.121',1182.413
'0:17.125',1175.811
'0:17.129',1192.686
'0:17.133',1254.223
'0:17.137',1254.930
'0:17.141',1287.905
'0:17.145',1309.900
'0:17.148',1335.532
'0:17.152',1353.114
'0:17.156',1369.248
'0:17.160',1399.258
'0:17.164',1379.487
'0:17.168',1373.626
'0:17.172',1369.955
'0:17.176',1384.607
'0:17.180',1389.019
'0:17.184',1380.228
'0:17.188',1367.765
'0:17.191',1364.835
'0:17.195',1360.456
'0:17.199',1359.715
'0:17.203',1359.715
'0:17.207',1335.532
'0:17.211',1330.412
'0:17.215',1326.000
'0:17.219',1275.443
'0:17.223',1263.721
'0:17.227',1268.875
'0:17.230',1289.387
'0:17.234',1247.621
'0:17.238',1257.153
'0:17.242',1244.691
'0:17.246',1252.000
'0:17.250',1249.811
'0:17.254',1252.741
'0:17.258',1274.735
'0:17.262',1232.969
'0:17.266',1260.084
'0:17.270',1247.621
'0:17.273',1260.791
'0:17.277',1282.785
'0:17.281',1252.000
'0:17.285',1300.367
'0:17.289',1271.064
'0:17.293',1298.885
'0:17.297',1317.209
'0:17.301',1284.975
'0:17.305',1334.083
'0:17.309',1307.677
'0:17.313',1317.950
'0:17.316',1327.482
'0:17.320',1344.323
'0:17.324',1367.765
'0:17.328',1373.626
'0:17.332',1350.924
'0:17.336',1381.676
'0:17.340',1373.626
'0:17.344',1383.899
'0:17.348',1374.367
'0:17.352',1359.715
'0:17.355',1362.646
'0:17.359',1411.721
'0:17.363',1404.412
'0:17.367',1380.969
'0:17.371',1418.322
'0:17.375',1396.328
'0:17.379',1422.701
'0:17.383',1410.272
'0:17.387',1419.771
'0:17.391',1442.506
'0:17.395',1419.063
'0:17.398',1415.392
'0:17.402',1438.094
'0:17.406',1421.994
'0:17.410',1451.297
'0:17.414',1411.721
'0:17.418',1449.074
'0:17.422',1425.631
'0:17.426',1431.492
'0:17.430',1445.437
'0:17.434',1404.412
'0:17.438',1443.214
'0:17.441',1400.740
'0:17.445',1427.854
'0:17.449',1399.258
'0:17.453',1424.924
'0:17.457',1392.690
'0:17.461',1431.492
'0:17.465',1402.930
'0:17.469',1386.830
'0:17.473',1416.133
'0:17.477',1394.139
'0:17.480',1381.676
'0:17.484',1419.771
'0:17.488',1389.019
'0:17.492',1421.253
'0:17.496',1378.039
'0:17.500',1421.253
'0:17.504',1391.949
'0:17.508',1386.089
'0:17.512',1402.189
'0:17.516',1380.969
'0:17.520',1416.133
'0:17.523',1383.158
'0:17.527',1413.203
'0:17.531',1417.581
'0:17.535',1410.980
'0:17.539',1408.790
'0:17.543',1414.651
'0:17.547',1423.442
'0:17.551',1422.701
'0:17.555',1430.044
'0:17.559',1484.238
'0:17.563',1468.879
'0:17.566',1482.790
'0:17.570',1507.681
'0:17.574',1534.054
'0:17.578',1534.795
'0:17.582',1553.859
'0:17.586',1560.427
'0:17.590',1581.681
'0:17.594',1586.093
'0:17.598',1597.815
'0:17.602',1616.845
'0:17.605',1632.979
'0:17.609',1624.188
'0:17.613',1619.775
'0:17.617',1607.313
'0:17.621',1605.865
'0:17.625',1598.522
'0:17.629',1593.402
'0:17.633',1597.074
'0:17.637',1570.701
'0:17.641',1557.497
'0:17.645',1562.651
'0:17.648',1547.258
'0:17.652',1533.347
'0:17.656',1526.745
'0:17.660',1521.626
'0:17.664',1523.074
'0:17.668',1518.695
'0:17.672',1545.068
'0:17.676',1550.929
'0:17.680',1572.149
'0:17.684',1564.099
'0:17.688',1576.561
'0:17.691',1578.751
'0:17.695',1628.567
'0:17.699',1654.940
'0:17.703',1656.422
'0:17.707',1717.959
'0:17.711',1718.666
'0:17.715',1769.964
'0:17.719',1810.989
'0:17.723',1841.775
'0:17.727',1859.357
'0:17.730',1880.577
'0:17.734',1897.451
'0:17.738',1904.019
'0:17.742',1883.507
'0:17.746',1868.148
'0:17.750',1857.875
'0:17.754',1840.293
'0:17.758',1825.641
'0:17.762',1806.610
'0:17.766',1767.034
'0:17.770',1699.636
'0:17.773',1660.059
'0:17.777',1600.745
'0:17.781',1528.935
'0:17.785',1493.029
'0:17.789',1402.189
'0:17.793',1368.506
'0:17.797',1298.885
'0:17.801',1191.945
'0:17.805',1115.756
'0:17.809',1077.661
'0:17.813',997.060
'0:17.816',902.581
'0:17.820',843.940
'0:17.824',810.258
'0:17.828',717.228
'0:17.832',695.975
'0:17.836',634.437
'0:17.840',621.234
'0:17.844',577.279
'0:17.848',525.273
'0:17.852',537.736
'0:17.855',529.686
'0:17.859',515.034
'0:17.863',556.766
'0:17.867',580.209
'0:17.871',600.721
'0:17.875',619.045
'0:17.879',619.786
'0:17.883',671.791
'0:17.887',735.518
'0:17.891',759.701
'0:17.895',819.790
'0:17.898',846.163
'0:17.902',864.453
'0:17.906',906.219
'0:17.910',967.049
'0:17.914',1035.154
'0:17.918',1072.541
'0:17.922',1104.775
'0:17.926',1131.856
'0:17.930',1186.084
'0:17.934',1211.716
'0:17.938',1228.557
'0:17.941',1214.646
'0:17.945',1235.159
'0:17.949',1250.552
'0:17.953',1268.875
'0:17.957',1317.950
'0:17.961',1304.746
'0:17.965',1306.969
'0:17.969',1339.203
'0:17.973',1329.671
'0:17.977',1319.398
'0:17.980',1331.153
'0:17.984',1323.069
'0:17.988',1363.387
'0:17.992',1330.412
'0:17.996',1363.387
'0:18.000',1341.392
'0:18.004',1353.114
'0:18.008',1380.228
'0:18.012',1350.924
'0:18.016',1387.537
'0:18.020',1353.114
'0:18.023',1389.760
'0:18.027',1358.974
'0:18.031',1376.557
'0:18.035',1406.601
'0:18.039',1372.178
'0:18.043',1396.328
'0:18.047',1428.562
'0:18.051',1419.771
'0:18.055',1395.621
'0:18.059',1427.113
'0:18.063',1445.437
'0:18.066',1446.144
'0:18.070',1414.651
'0:18.074',1442.506
'0:18.078',1454.228
'0:18.082',1462.278
'0:18.086',1464.467
'0:18.090',1463.019
'0:18.094',1470.328
'0:18.098',1473.999
'0:18.102',1473.258
'0:18.105',1471.069
'0:18.109',1479.119
'0:18.113',1476.188
'0:18.117',1460.796
'0:18.121',1450.556
'0:18.125',1443.214
'0:18.129',1445.437
'0:18.133',1460.088
'0:18.137',1476.188
'0:18.141',1495.960
'0:18.145',1490.840
'0:18.148',1489.392
'0:18.152',1500.372
'0:18.156',1493.029
'0:18.160',1514.283
'0:18.164',1505.492
'0:18.168',1520.885
'0:18.172',1495.960
'0:18.176',1520.144
'0:18.180',1498.890
'0:18.184',1479.119
'0:18.188',1495.960
'0:18.191',1472.517
'0:18.195',1471.810
'0:18.199',1513.542
'0:18.203',1498.890
'0:18.207',1475.447
'0:18.211',1504.044
'0:18.215',1507.681
'0:18.219',1509.163
'0:18.223',1501.821
'0:18.227',1474.740
'0:18.230',1481.308
'0:18.234',1486.461
'0:18.238',1502.562
'0:18.242',1484.238
'0:18.246',1504.044
'0:18.250',1509.904
'0:18.254',1491.581
'0:18.258',1492.322
'0:18.262',1503.303
'0:18.266',1510.612
'0:18.270',1468.138
'0:18.273',1482.049
'0:18.277',1506.233
'0:18.281',1492.322
'0:18.285',1480.601
'0:18.289',1495.252
'0:18.293',1511.353
'0:18.297',1469.587
'0:18.301',1469.587
'0:18.305',1501.113
'0:18.309',1513.542
'0:18.313',1491.581
'0:18.316',1468.879
'0:18.320',1483.531
'0:18.324',1487.169
'0:18.328',1501.821
'0:18.332',1455.676
'0:18.336',1490.840
'0:18.340',1449.074
'0:18.344',1449.074
'0:18.348',1482.049
'0:18.352',1440.283
'0:18.355',1454.935
'0:18.359',1451.297
'0:18.363',1417.581
'0:18.367',1409.531
'0:18.371',1418.322
'0:18.375',1399.999
'0:18.379',1402.930
'0:18.383',1431.492
'0:18.387',1438.835
'0:18.391',1417.581
'0:18.395',1405.119
'0:18.398',1460.088
'0:18.402',1438.835
'0:18.406',1477.670
'0:18.410',1515.024
'0:18.414',1523.815
'0:18.418',1568.511
'0:18.422',1647.631
'0:18.426',1681.313
'0:18.430',1726.750
'0:18.434',1769.964
'0:18.438',1830.053
'0:18.441',1889.368
'0:18.445',1947.267
'0:18.449',2008.064
'0:18.453',2035.885
'0:18.457',2092.303
'0:18.461',2107.695
'0:18.465',2134.069
'0:18.469',2160.442
'0:18.473',2167.043
'0:18.477',2163.372
'0:18.480',2161.183
'0:18.484',2147.238
'0:18.488',2106.954
'0:18.492',2090.113
'0:18.496',2056.397
'0:18.500',2004.392
'0:18.504',1933.323
'0:18.508',1859.357
'0:18.512',1810.248
'0:18.516',1720.148
'0:18.520',1641.770
'0:18.523',1575.079
'0:18.527',1515.765
'0:18.531',1417.581
'0:18.535',1347.994
'0:18.539',1296.696
'0:18.543',1265.203
'0:18.547',1188.273
'0:18.551',1147.248
'0:18.555',1115.015
'0:18.559',1038.825
'0:18.563',1002.920
'0:18.566',980.218
'0:18.570',980.959
'0:18.574',931.885
'0:18.578',942.124
'0:18.582',945.054
'0:18.586',912.820
'0:18.590',958.258
'0:18.594',930.403
'0:18.598',953.845
'0:18.602',962.636
'0:18.605',942.124
'0:18.609',978.770
'0:18.613',967.756
'0:18.617',950.915
'0:18.621',987.561
'0:18.625',1002.920
'0:18.629',999.283
'0:18.633',1016.865
'0:18.637',1027.845
'0:18.641',1019.054
'0:18.645',1011.004
'0:18.648',1011.711
'0:18.652',1062.268
'0:18.656',1066.681
'0:18.660',1091.572
'0:18.664',1108.413
'0:18.668',1119.427
'0:18.672',1113.566
'0:18.676',1117.204
'0:18.680',1177.293
'0:18.684',1156.780
'0:18.688',1205.114
'0:18.691',1213.905
'0:18.695',1201.477
'0:18.699',1241.019
'0:18.703',1276.184
'0:18.707',1279.114
'0:18.711',1265.203
'0:18.715',1303.298
'0:18.719',1327.482
'0:18.723',1340.651
'0:18.727',1350.183
'0:18.730',1346.512
'0:18.734',1372.885
'0:18.738',1374.367
'0:18.742',1375.108
'0:18.746',1383.899
'0:18.750',1377.298
'0:18.754',1378.039
'0:18.758',1355.303
'0:18.762',1388.278
'0:18.766',1399.258
'0:18.770',1373.626
'0:18.773',1369.955
'0:18.777',1363.387
'0:18.781',1374.367
'0:18.785',1372.885
'0:18.789',1388.278
'0:18.793',1392.690
'0:18.797',1386.830
'0:18.801',1382.417
'0:18.805',1376.557
'0:18.809',1372.178
'0:18.813',1366.317
'0:18.816',1317.950
'0:18.820',1337.014
'0:18.824',1355.303
'0:18.828',1343.582
'0:18.832',1308.418
'0:18.836',1305.487
'0:18.840',1304.746
'0:18.844',1309.159
'0:18.848',1307.677
'0:18.852',1305.487
'0:18.855',1325.292
'0:18.859',1350.183
'0:18.863',1347.994
'0:18.867',1329.671
'0:18.871',1359.715
'0:18.875',1350.183
'0:18.879',1347.994
'0:18.883',1343.582
'0:18.887',1347.994
'0:18.891',1350.924
'0:18.895',1393.398
'0:18.898',1398.551
'0:18.902',1395.621
'0:18.906',1404.412
'0:18.910',1413.203
'0:18.914',1419.063
'0:18.918',1398.551
'0:18.922',1391.949
'0:18.926',1432.233
'0:18.930',1429.303
'0:18.934',1413.910
'0:18.938',1419.771
'0:18.941',1428.562
'0:18.945',1440.283
'0:18.949',1447.626
'0:18.953',1461.537
'0:18.957',1478.378
'0:18.961',1504.751
'0:18.965',1493.770
'0:18.969',1473.258
'0:18.973',1512.094
'0:18.977',1484.238
'0:18.980',1531.124
'0:18.984',1499.631
'0:18.988',1532.606
'0:18.992',1533.347
'0:18.996',1508.422
'0:19.000',1495.252
'0:19.004',1520.885
'0:19.008',1504.751
'0:19.012',1489.392
'0:19.016',1515.765
'0:19.020',1482.049
'0:19.023',1505.492
'0:19.027',1472.517
'0:19.031',1482.790
'0:19.035',1469.587
'0:19.039',1454.228
'0:19.043',1432.233
'0:19.047',1445.437
'0:19.051',1413.203
'0:19.055',1434.423
'0:19.059',1398.551
'0:19.063',1423.442
'0:19.066',1403.671
'0:19.070',1380.969
'0:19.074',1385.348
'0:19.078',1388.278
'0:19.082',1413.203
'0:19.086',1410.272
'0:19.090',1400.740
'0:19.094',1393.398
'0:19.098',1389.760
'0:19.102',1387.537
'0:19.105',1393.398
'0:19.109',1438.835
'0:19.113',1446.885
'0:19.117',1430.044
'0:19.121',1422.701
'0:19.125',1466.656
'0:19.129',1450.556
'0:19.133',1468.879
'0:19.137',1447.626
'0:19.141',1488.651
'0:19.145',1465.949
'0:19.148',1500.372
'0:19.152',1461.537
'0:19.156',1509.163
'0:19.160',1497.442
'0:19.164',1484.979
'0:19.168',1500.372
'0:19.172',1482.790
'0:19.176',1523.074
'0:19.180',1491.581
'0:19.184',1524.556
'0:19.188',1483.531
'0:19.191',1481.308
'0:19.195',1497.442
'0:19.199',1486.461
'0:19.203',1504.044
'0:19.207',1497.442
'0:19.211',1455.676
'0:19.215',1445.437
'0:19.219',1473.999
'0:19.223',1451.297
'0:19.227',1421.253
'0:19.230',1421.994
'0:19.234',1438.835
'0:19.238',1398.551
'0:19.242',1425.631
'0:19.246',1424.183
'0:19.250',1430.044
'0:19.254',1423.442
'0:19.258',1423.442
'0:19.262',1424.924
'0:19.266',1426.372
'0:19.270',1430.785
'0:19.273',1443.214
'0:19.277',1443.955
'0:19.281',1465.949
'0:19.285',1465.208
'0:19.289',1467.397
'0:19.293',1474.740
'0:19.297',1504.044
'0:19.301',1497.442
'0:19.305',1494.511
'0:19.309',1523.815
'0:19.313',1531.124
'0:19.316',1523.074
'0:19.320',1543.586
'0:19.324',1527.486
'0:19.328',1499.631
'0:19.332',1528.194
'0:19.336',1493.770
'0:19.340',1479.860
'0:19.344',1493.029
'0:19.348',1487.169
'0:19.352',1448.367
'0:19.355',1442.506
'0:19.359',1432.233
'0:19.363',1412.462
'0:19.367',1382.417
'0:19.371',1379.487
'0:19.375',1350.924
'0:19.379',1323.069
'0:19.383',1306.228
'0:19.387',1246.139
'0:19.391',1255.671
'0:19.395',1186.825
'0:19.398',1191.945
'0:19.402',1136.268
'0:19.406',1114.273
'0:19.410',1121.616
'0:19.414',1061.527
'0:19.418',1072.541
'0:19.422',1038.825
'0:19.426',999.283
'0:19.430',978.770
'0:19.434',986.079
'0:19.438',936.263
'0:19.441',945.795
'0:19.445',907.701
'0:19.449',939.194
'0:19.453',912.079
'0:19.457',911.372
'0:19.461',893.049
'0:19.465',892.308
'0:19.469',928.954
'0:19.473',927.472
'0:19.477',899.651
'0:19.480',950.915
'0:19.484',960.447
'0:19.488',939.194
'0:19.492',990.492
'0:19.496',975.840
'0:19.500',1028.586
'0:19.504',1062.268
'0:19.508',1090.831
'0:19.512',1117.204
'0:19.516',1145.059
'0:19.520',1174.362
'0:19.523',1186.825
'0:19.527',1205.114
'0:19.531',1241.760
'0:19.535',1278.373
'0:19.539',1282.785
'0:19.543',1323.810
'0:19.547',1367.024
'0:19.551',1394.880
'0:19.555',1417.581
'0:19.559',1434.423
'0:19.563',1457.158
'0:19.566',1468.879
'0:19.570',1500.372
'0:19.574',1495.960
'0:19.578',1506.233
'0:19.582',1511.353
'0:19.586',1514.283
'0:19.590',1510.612
'0:19.594',1512.094
'0:19.598',1498.183
'0:19.602',1490.099
'0:19.605',1511.353
'0:19.609',1501.821
'0:19.613',1497.442
'0:19.617',1487.169
'0:19.621',1468.879
'0:19.625',1444.696
'0:19.629',1447.626
'0:19.633',1424.924
'0:19.637',1419.771
'0:19.641',1407.342
'0:19.645',1401.481
'0:19.648',1345.805
'0:19.652',1361.164
'0:19.656',1368.506
'0:19.660',1319.398
'0:19.664',1323.810
'0:19.668',1353.114
'0:19.672',1336.273
'0:19.676',1304.746
'0:19.680',1330.412
'0:19.684',1340.651
'0:19.688',1344.323
'0:19.691',1334.083
'0:19.695',1313.537
'0:19.699',1337.014
'0:19.703',1364.094
'0:19.707',1328.223
'0:19.711',1353.114
'0:19.715',1378.039
'0:19.719',1385.348
'0:19.723',1365.576
'0:19.727',1399.999
'0:19.730',1401.481
'0:19.734',1410.272
'0:19.738',1424.924
'0:19.742',1424.183
'0:19.746',1443.214
'0:19.750',1445.437
'0:19.754',1471.069
'0:19.758',1483.531
'0:19.762',1490.840
'0:19.766',1478.378
'0:19.770',1480.601
'0:19.773',1529.676
'0:19.777',1510.612
'0:19.781',1513.542
'0:19.785',1514.283
'0:19.789',1513.542
'0:19.793',1548.706
'0:19.797',1547.999
'0:19.801',1516.472
'0:19.805',1538.467
'0:19.809',1548.706
'0:19.813',1520.144
'0:19.816',1513.542
'0:19.820',1499.631
'0:19.824',1536.277
'0:19.828',1515.765
'0:19.832',1510.612
'0:19.836',1489.392
'0:19.840',1487.910
'0:19.844',1521.626
'0:19.848',1494.511
'0:19.852',1503.303
'0:19.855',1516.472
'0:19.859',1503.303
'0:19.863',1494.511
'0:19.867',1506.233
'0:19.871',1501.113
'0:19.875',1508.422
'0:19.879',1486.461
'0:19.883',1520.144
'0:19.887',1485.720
'0:19.891',1469.587
'0:19.895',1494.511
'0:19.898',1501.113
'0:19.902',1468.138
'0:19.906',1440.283
'0:19.910',1435.905
'0:19.914',1458.606
'0:19.918',1436.646
'0:19.922',1409.531
'0:19.926',1392.690
'0:19.930',1380.228
'0:19.934',1315.019
'0:19.938',1323.069
'0:19.941',1287.905
'0:19.945',1287.164
'0:19.949',1244.691
'0:19.953',1265.944
'0:19.957',1224.178
'0:19.961',1249.070
'0:19.965',1223.437
'0:19.969',1246.880
'0:19.973',1268.875
'0:19.977',1269.582
'0:19.980',1290.835
'0:19.984',1342.874
'0:19.988',1375.108
'0:19.992',1392.690
'0:19.996',1419.771
'0:20.000',1478.378
'0:20.004',1536.277
'0:20.008',1604.383
'0:20.012',1630.049
'0:20.016',1701.825
'0:20.020',1740.661
'0:20.023',1823.452
'0:20.027',1838.844
'0:20.031',1916.482
'0:20.035',1936.253
'0:20.039',1953.128
'0:20.043',1972.158
'0:20.047',1996.342
'0:20.051',2024.905
'0:20.055',2012.442
'0:20.059',1988.292
'0:20.063',1974.348
'0:20.066',1934.805
'0:20.070',1919.412
'0:20.074',1881.318
'0:20.078',1857.134
'0:20.082',1780.945
'0:20.086',1745.039
'0:20.090',1712.098
'0:20.094',1652.750
'0:20.098',1587.542
'0:20.102',1519.403
'0:20.105',1497.442
'0:20.109',1416.133
'0:20.113',1397.069
'0:20.117',1328.930
'0:20.121',1273.253
'0:20.125',1252.000
'0:20.129',1228.557
'0:20.133',1176.552
'0:20.137',1149.438
'0:20.141',1146.507
'0:20.145',1109.895
'0:20.148',1102.552
'0:20.152',1079.109
'0:20.156',1071.059
'0:20.160',1041.756
'0:20.164',1071.059
'0:20.168',1055.667
'0:20.172',1046.168
'0:20.176',1035.895
'0:20.180',1066.681
'0:20.184',1047.616
'0:20.188',1050.547
'0:20.191',1079.850
'0:20.195',1090.123
'0:20.199',1095.984
'0:20.203',1078.402
'0:20.207',1108.413
'0:20.211',1117.945
'0:20.215',1123.065
'0:20.219',1136.268
'0:20.223',1146.507
'0:20.227',1145.059
'0:20.230',1169.243
'0:20.234',1189.014
'0:20.238',1184.602
'0:20.242',1235.900
'0:20.246',1227.109
'0:20.250',1271.805
'0:20.254',1271.064
'0:20.258',1275.443
'0:20.262',1288.646
'0:20.266',1305.487
'0:20.270',1346.512
'0:20.273',1348.735
'0:20.277',1366.317
'0:20.281',1384.607
'0:20.285',1421.253
'0:20.289',1386.830
'0:20.293',1439.576
'0:20.297',1408.049
'0:20.301',1416.133
'0:20.305',1456.417
'0:20.309',1438.094
'0:20.313',1418.322
'0:20.316',1425.631
'0:20.320',1443.214
'0:20.324',1457.865
'0:20.328',1413.910
'0:20.332',1448.367
'0:20.336',1430.044
'0:20.340',1417.581
'0:20.344',1396.328
'0:20.348',1427.113
'0:20.352',1421.253
'0:20.355',1394.880
'0:20.359',1419.771
'0:20.363',1390.467
'0:20.367',1380.228
'0:20.371',1408.790
'0:20.375',1389.019
'0:20.379',1378.746
'0:20.383',1372.178
'0:20.387',1410.980
'0:20.391',1389.760
'0:20.395',1378.039
'0:20.398',1374.367
'0:20.402',1374.367
'0:20.406',1384.607
'0:20.410',1391.949
'0:20.414',1403.671
'0:20.418',1405.119
'0:20.422',1418.322
'0:20.426',1390.467
'0:20.430',1388.278
'0:20.434',1423.442
'0:20.438',1425.631
'0:20.441',1404.412
'0:20.445',1386.089
'0:20.449',1424.183
'0:20.453',1397.810
'0:20.457',1408.049
'0:20.461',1404.412
'0:20.465',1399.999
'0:20.469',1415.392
'0:20.473',1444.696
'0:20.477',1438.094
'0:20.480',1449.815
'0:20.484',1447.626
'0:20.488',1467.397
'0:20.492',1449.074
'0:20.496',1448.367
'0:20.500',1495.960
'0:20.504',1474.740
'0:20.508',1513.542
'0:20.512',1483.531
'0:20.516',1531.124
'0:20.520',1499.631
'0:20.523',1547.258
'0:20.527',1505.492
'0:20.531',1514.283
'0:20.535',1545.776
'0:20.539',1515.765
'0:20.543',1552.377
'0:20.547',1517.954
'0:20.551',1517.213
'0:20.555',1528.935
'0:20.559',1506.233
'0:20.563',1496.701
'0:20.566',1534.795
'0:20.570',1486.461
'0:20.574',1512.835
'0:20.578',1501.113
'0:20.582',1492.322
'0:20.586',1477.670
'0:20.590',1461.537
'0:20.594',1498.183
'0:20.598',1465.208
'0:20.602',1450.556
'0:20.605',1447.626
'0:20.609',1457.865
'0:20.613',1490.099
'0:20.617',1495.960
'0:20.621',1485.720
'0:20.625',1479.119
'0:20.629',1496.701
'0:20.633',1517.213
'0:20.637',1514.283
'0:20.641',1507.681
'0:20.645',1560.427
'0:20.648',1542.138
'0:20.652',1580.233
'0:20.656',1557.497
'0:20.660',1579.492
'0:20.664',1618.327
'0:20.668',1611.725
'0:20.672',1606.606
'0:20.676',1619.034
'0:20.680',1632.979
'0:20.684',1630.049
'0:20.688',1637.358
'0:20.691',1647.631
'0:20.695',1636.617
'0:20.699',1636.617
'0:20.703',1648.338
'0:20.707',1634.427
'0:20.711',1635.909
'0:20.715',1627.826
'0:20.719',1608.795
'0:20.723',1600.745
'0:20.727',1589.731
'0:20.730',1563.358
'0:20.734',1544.327
'0:20.738',1545.776
'0:20.742',1500.372
'0:20.746',1513.542
'0:20.750',1460.088
'0:20.754',1438.835
'0:20.758',1441.024
'0:20.762',1410.980
'0:20.766',1397.810
'0:20.770',1380.969
'0:20.773',1383.899
'0:20.777',1368.506
'0:20.781',1321.621
'0:20.785',1317.209
'0:20.789',1343.582
'0:20.793',1353.855
'0:20.797',1339.944
'0:20.801',1317.950
'0:20.805',1319.398
'0:20.809',1326.741
'0:20.813',1349.442
'0:20.816',1384.607
'0:20.820',1357.526
'0:20.824',1367.024
'0:20.828',1389.760
'0:20.832',1401.481
'0:20.836',1407.342
'0:20.840',1452.746
'0:20.844',1450.556
'0:20.848',1435.164
'0:20.852',1454.935
'0:20.855',1482.049
'0:20.859',1474.740
'0:20.863',1484.979
'0:20.867',1470.328
'0:20.871',1460.796
'0:20.875',1443.955
'0:20.879',1421.253
'0:20.883',1453.487
'0:20.887',1434.423
'0:20.891',1415.392
'0:20.895',1386.830
'0:20.898',1337.721
'0:20.902',1308.418
'0:20.906',1271.064
'0:20.910',1273.253
'0:20.914',1217.577
'0:20.918',1199.995
'0:20.922',1157.521
'0:20.926',1124.547
'0:20.930',1096.691
'0:20.934',1043.238
'0:20.938',989.751
'0:20.941',986.820
'0:20.945',949.467
'0:20.949',905.511
'0:20.953',874.726
'0:20.957',854.954
'0:20.961',825.651
'0:20.965',760.442
'0:20.969',778.024
'0:20.973',712.816
'0:20.977',740.671
'0:20.980',716.487
'0:20.984',696.716
'0:20.988',692.303
'0:20.992',674.721
'0:20.996',709.144
'0:21.000',713.557
'0:21.004',708.437
'0:21.008',734.069
'0:21.012',788.264
'0:21.016',820.498
'0:21.020',859.333
'0:21.023',890.860
'0:21.027',895.979
'0:21.031',960.447
'0:21.035',978.770
'0:21.039',996.352
'0:21.043',1060.079
'0:21.047',1090.123
'0:21.051',1140.647
'0:21.055',1175.811
'0:21.059',1195.616
'0:21.063',1247.621
'0:21.066',1278.373
'0:21.070',1304.039
'0:21.074',1306.969
'0:21.078',1338.462
'0:21.082',1405.119
'0:21.086',1416.840
'0:21.090',1440.283
'0:21.094',1435.905
'0:21.098',1468.879
'0:21.102',1499.631
'0:21.105',1536.277
'0:21.109',1547.999
'0:21.113',1545.776
'0:21.117',1542.138
'0:21.121',1533.347
'0:21.125',1542.138
'0:21.129',1580.233
'0:21.133',1586.093
'0:21.137',1572.890
'0:21.141',1579.492
'0:21.145',1536.985
'0:21.148',1539.208
'0:21.152',1532.606
'0:21.156',1534.054
'0:21.160',1532.606
'0:21.164',1520.885
'0:21.168',1534.795
'0:21.172',1519.403
'0:21.176',1504.044
'0:21.180',1504.751
'0:21.184',1498.183
'0:21.188',1510.612
'0:21.191',1465.949
'0:21.195',1495.960
'0:21.199',1461.537
'0:21.203',1482.790
'0:21.207',1462.278
'0:21.211',1441.024
'0:21.215',1429.303
'0:21.219',1465.949
'0:21.223',1441.765
'0:21.227',1416.133
'0:21.230',1451.297
'0:21.234',1403.671
'0:21.238',1441.765
'0:21.242',1443.214
'0:21.246',1408.049
'0:21.250',1432.974
'0:21.254',1427.113
'0:21.258',1408.049
'0:21.262',1399.999
'0:21.266',1444.696
'0:21.270',1438.835
'0:21.273',1417.581
'0:21.277',1444.696
'0:21.281',1463.726
'0:21.285',1467.397
'0:21.289',1453.487
'0:21.293',1456.417
'0:21.297',1484.238
'0:21.301',1470.328
'0:21.305',1462.278
'0:21.309',1491.581
'0:21.313',1468.138
'0:21.316',1461.537
'0:21.320',1503.303
'0:21.324',1462.278
'0:21.328',1503.303
'0:21.332',1474.740
'0:21.336',1468.138
'0:21.340',1493.029
'0:21.344',1461.537
'0:21.348',1495.252
'0:21.352',1472.517
'0:21.355',1485.720
'0:21.359',1479.860
'0:21.363',1476.188
'0:21.367',1507.681
'0:21.371',1504.751
'0:21.375',1482.049
'0:21.379',1490.099
'0:21.383',1509.904
'0:21.387',1544.327
'0:21.391',1547.999
'0:21.395',1525.263
'0:21.398',1542.845
'0:21.402',1562.651
'0:21.406',1562.651
'0:21.410',1575.079
'0:21.414',1574.372
'0:21.418',1582.422
'0:21.422',1553.118
'0:21.426',1567.770
'0:21.430',1583.870
'0:21.434',1589.024
'0:21.438',1588.283
'0:21.441',1592.661
'0:21.445',1599.263
'0:21.449',1602.934
'0:21.453',1621.257
'0:21.457',1632.979
'0:21.461',1636.617
'0:21.465',1643.218
'0:21.469',1660.800
'0:21.473',1660.800
'0:21.477',1641.770
'0:21.480',1643.959
'0:21.484',1639.547
'0:21.488',1625.636
'0:21.492',1646.149
'0:21.496',1661.541
'0:21.500',1667.402
'0:21.504',1675.452
'0:21.508',1725.268
'0:21.512',1742.850
'0:21.516',1759.691
'0:21.520',1817.591
'0:21.523',1813.919
'0:21.527',1877.646
'0:21.531',1887.178
'0:21.535',1900.382
'0:21.539',1917.964
'0:21.543',1944.337
'0:21.547',1958.248
'0:21.551',1939.924
'0:21.555',1936.253
'0:21.559',1925.273
'0:21.563',1918.671
'0:21.566',1893.780
'0:21.570',1861.546
'0:21.574',1807.318
'0:21.578',1748.711
'0:21.582',1697.447
'0:21.586',1660.059
'0:21.590',1581.681
'0:21.594',1532.606
'0:21.598',1444.696
'0:21.602',1402.189
'0:21.605',1289.387
'0:21.609',1248.362
'0:21.613',1184.602
'0:21.617',1106.223
'0:21.621',1006.592
'0:21.625',991.940
'0:21.629',934.815
'0:21.633',876.174
'0:21.637',808.776
'0:21.641',789.005
'0:21.645',764.114
'0:21.648',740.671
'0:21.652',695.234
'0:21.656',693.044
'0:21.660',707.696
'0:21.664',689.373
'0:21.668',720.866
'0:21.672',709.144
'0:21.676',753.841
'0:21.680',793.417
'0:21.684',809.517
'0:21.688',808.776
'0:21.691',875.467
'0:21.695',915.751
'0:21.699',909.890
'0:21.703',960.447
'0:21.707',1026.363
'0:21.711',1060.820
'0:21.715',1097.432
'0:21.719',1134.079
'0:21.723',1123.806
'0:21.727',1158.970
'0:21.730',1201.477
'0:21.734',1216.836
'0:21.738',1244.691
'0:21.742',1273.253
'0:21.746',1333.342
'0:21.750',1330.412
'0:21.754',1331.860
'0:21.758',1360.456
'0:21.762',1405.119
'0:21.766',1391.949
'0:21.770',1413.910
'0:21.773',1443.955
'0:21.777',1457.158
'0:21.781',1430.785
'0:21.785',1427.113
'0:21.789',1467.397
'0:21.793',1441.024
'0:21.797',1473.258
'0:21.801',1442.506
'0:21.805',1452.746
'0:21.809',1474.740
'0:21.813',1485.720
'0:21.816',1449.074
'0:21.820',1441.024
'0:21.824',1465.208
'0:21.828',1433.715
'0:21.832',1460.796
'0:21.836',1427.854
'0:21.840',1438.835
'0:21.844',1443.214
'0:21.848',1463.726
'0:21.852',1445.437
'0:21.855',1446.144
'0:21.859',1424.183
'0:21.863',1422.701
'0:21.867',1457.865
'0:21.871',1452.005
'0:21.875',1447.626
'0:21.879',1438.835
'0:21.883',1424.183
'0:21.887',1432.974
'0:21.891',1421.253
'0:21.895',1396.328
'0:21.898',1409.531
'0:21.902',1414.651
'0:21.906',1424.924
'0:21.910',1394.139
'0:21.914',1413.910
'0:21.918',1405.119
'0:21.922',1441.765
'0:21.926',1405.860
'0:21.930',1431.492
'0:21.934',1413.203
'0:21.938',1452.746
'0:21.941',1437.353
'0:21.945',1464.467
'0:21.949',1461.537
'0:21.953',1443.214
'0:21.957',1489.392
'0:21.961',1458.606
'0:21.965',1482.790
'0:21.969',1481.308
'0:21.973',1511.353
'0:21.977',1476.188
'0:21.980',1517.954
'0:21.984',1479.860
'0:21.988',1506.233
'0:21.992',1501.821
'0:21.996',1478.378
'0:22.000',1500.372
'0:22.004',1522.333
'0:22.008',1520.144
'0:22.012',1490.840
'0:22.016',1493.029
'0:22.020',1487.910
'0:22.023',1487.910
'0:22.027',1514.283
'0:22.031',1476.929
'0:22.035',1487.910
'0:22.039',1462.278
'0:22.043',1495.960
'0:22.047',1464.467
'0:22.051',1501.821
'0:22.055',1459.347
'0:22.059',1504.044
'0:22.063',1466.656
'0:22.066',1493.029
'0:22.070',1484.238
'0:22.074',1497.442
'0:22.078',1520.144
'0:22.082',1520.144
'0:22.086',1507.681
'0:22.090',1515.024
'0:22.094',1498.183
'0:22.098',1488.651
'0:22.102',1491.581
'0:22.105',1534.795
'0:22.109',1523.815
'0:22.113',1501.113
'0:22.117',1546.517
'0:22.121',1532.606
'0:22.125',1515.765
'0:22.129',1563.358
'0:22.133',1528.935
'0:22.137',1557.497
'0:22.141',1538.467
'0:22.145',1576.561
'0:22.148',1549.447
'0:22.152',1571.442
'0:22.156',1592.661
'0:22.160',1559.720
'0:22.164',1597.074
'0:22.168',1590.472
'0:22.172',1626.377
'0:22.176',1597.815
'0:22.180',1645.408
'0:22.184',1657.870
'0:22.188',1665.920
'0:22.191',1630.756
'0:22.195',1637.358
'0:22.199',1675.452
'0:22.203',1645.408
'0:22.207',1650.561
'0:22.211',1633.686
'0:22.215',1646.890
'0:22.219',1621.257
'0:22.223',1658.611
'0:22.227',1621.965
'0:22.230',1610.984
'0:22.234',1627.118
'0:22.238',1591.213
'0:22.242',1558.979
'0:22.246',1586.801
'0:22.250',1551.636
'0:22.254',1530.417
'0:22.258',1502.562
'0:22.262',1517.213
'0:22.266',1490.840
'0:22.270',1460.088
'0:22.273',1452.746
'0:22.277',1454.935
'0:22.281',1446.885
'0:22.285',1443.955
'0:22.289',1443.214
'0:22.293',1432.974
'0:22.297',1435.164
'0:22.301',1424.183
'0:22.305',1421.253
'0:22.309',1429.303
'0:22.313',1432.233
'0:22.316',1480.601
'0:22.320',1482.049
'0:22.324',1459.347
'0:22.328',1491.581
'0:22.332',1472.517
'0:22.336',1494.511
'0:22.340',1533.347
'0:22.344',1511.353
'0:22.348',1507.681
'0:22.352',1502.562
'0:22.355',1492.322
'0:22.359',1527.486
'0:22.363',1515.765
'0:22.367',1484.238
'0:22.371',1465.949
'0:22.375',1466.656
'0:22.379',1408.049
'0:22.383',1397.069
'0:22.387',1369.955
'0:22.391',1312.830
'0:22.395',1317.209
'0:22.398',1275.443
'0:22.402',1216.128
'0:22.406',1178.741
'0:22.410',1152.368
'0:22.414',1113.566
'0:22.418',1082.781
'0:22.422',1020.502
'0:22.426',961.188
'0:22.430',964.118
'0:22.434',927.472
'0:22.438',895.979
'0:22.441',843.233
'0:22.445',816.119
'0:22.449',810.258
'0:22.453',769.974
'0:22.457',742.860
'0:22.461',750.910
'0:22.465',742.119
'0:22.469',712.075
'0:22.473',733.328
'0:22.477',695.234
'0:22.480',723.796
'0:22.484',720.158
'0:22.488',745.791
'0:22.492',748.721
'0:22.496',741.378
'0:22.500',764.821
'0:22.504',789.005
'0:22.508',832.219
'0:22.512',854.213
'0:22.516',874.726
'0:22.520',897.428
'0:22.523',917.233
'0:22.527',910.631
'0:22.531',967.049
'0:22.535',997.801
'0:22.539',1021.243
'0:22.543',1036.636
'0:22.547',1094.502
'0:22.551',1125.995
'0:22.555',1149.438
'0:22.559',1169.243
'0:22.563',1197.805
'0:22.566',1232.969
'0:22.570',1252.000
'0:22.574',1285.716
'0:22.578',1324.551
'0:22.582',1334.083
'0:22.586',1356.044
'0:22.590',1383.899
'0:22.594',1399.999
'0:22.598',1419.771
'0:22.602',1431.492
'0:22.605',1417.581
'0:22.609',1418.322
'0:22.613',1418.322
'0:22.617',1426.372
'0:22.621',1459.347
'0:22.625',1468.879
'0:22.629',1448.367
'0:22.633',1442.506
'0:22.637',1475.447
'0:22.641',1454.935
'0:22.645',1447.626
'0:22.648',1478.378
'0:22.652',1458.606
'0:22.656',1478.378
'0:22.660',1468.879
'0:22.664',1429.303
'0:22.668',1414.651
'0:22.672',1401.481
'0:22.676',1426.372
'0:22.680',1417.581
'0:22.684',1408.790
'0:22.688',1399.258
'0:22.691',1388.278
'0:22.695',1377.298
'0:22.699',1358.974
'0:22.703',1353.855
'0:22.707',1365.576
'0:22.711',1363.387
'0:22.715',1336.273
'0:22.719',1347.994
'0:22.723',1322.328
'0:22.727',1345.805
'0:22.730',1343.582
'0:22.734',1337.721
'0:22.738',1325.292
'0:22.742',1363.387
'0:22.746',1343.582
'0:22.750',1325.292
'0:22.754',1354.596
'0:22.758',1362.646
'0:22.762',1375.816
'0:22.766',1383.158
'0:22.770',1370.696
'0:22.773',1345.064
'0:22.777',1359.715
'0:22.781',1361.905
'0:22.785',1372.885
'0:22.789',1402.930
'0:22.793',1406.601
'0:22.797',1408.790
'0:22.801',1410.272
'0:22.805',1392.690
'0:22.809',1405.119
'0:22.813',1413.910
'0:22.816',1424.924
'0:22.820',1426.372
'0:22.824',1429.303
'0:22.828',1414.651
'0:22.832',1420.512
'0:22.836',1414.651
'0:22.840',1421.253
'0:22.844',1412.462
'0:22.848',1416.133
'0:22.852',1438.094
'0:22.855',1468.879
'0:22.859',1461.537
'0:22.863',1444.696
'0:22.867',1443.214
'0:22.871',1456.417
'0:22.875',1496.701
'0:22.879',1498.890
'0:22.883',1487.169
'0:22.887',1476.188
'0:22.891',1473.258
'0:22.895',1476.188
'0:22.898',1490.840
'0:22.902',1520.144
'0:22.906',1492.322
'0:22.910',1487.910
'0:22.914',1490.840
'0:22.918',1513.542
'0:22.922',1507.681
'0:22.926',1490.099
'0:22.930',1528.935
'0:22.934',1493.029
'0:22.938',1506.233
'0:22.941',1535.536
'0:22.945',1516.472
'0:22.949',1545.776
'0:22.953',1503.303
'0:22.957',1518.695
'0:22.961',1541.397
'0:22.965',1535.536
'0:22.969',1514.283
'0:22.973',1520.885
'0:22.977',1538.467
'0:22.980',1506.233
'0:22.984',1481.308
'0:22.988',1503.303
'0:22.992',1504.044
'0:22.996',1479.860
'0:23.000',1469.587
'0:23.004',1466.656
'0:23.008',1450.556
'0:23.012',1438.094
'0:23.016',1410.272
'0:23.020',1419.771
'0:23.023',1395.621
'0:23.027',1375.816
'0:23.031',1355.303
'0:23.035',1355.303
'0:23.039',1331.860
'0:23.043',1339.203
'0:23.047',1341.392
'0:23.051',1314.278
'0:23.055',1324.551
'0:23.059',1357.526
'0:23.063',1391.208
'0:23.066',1408.049
'0:23.070',1441.024
'0:23.074',1465.949
'0:23.078',1545.776
'0:23.082',1568.511
'0:23.086',1634.427
'0:23.090',1711.357
'0:23.094',1799.268
'0:23.098',1832.984
'0:23.102',1900.382
'0:23.105',1965.557
'0:23.109',2036.626
'0:23.113',2094.492
'0:23.117',2115.004
'0:23.121',2155.322
'0:23.125',2191.193
'0:23.129',2187.556
'0:23.133',2178.765
'0:23.137',2188.263
'0:23.141',2173.611
'0:23.145',2148.720
'0:23.148',2092.303
'0:23.152',2034.437
'0:23.156',1988.999
'0:23.160',1917.223
'0:23.164',1863.735
'0:23.168',1781.686
'0:23.172',1704.756
'0:23.176',1665.920
'0:23.180',1560.427
'0:23.184',1477.670
'0:23.188',1441.024
'0:23.191',1334.083
'0:23.195',1271.064
'0:23.199',1216.128
'0:23.203',1203.666
'0:23.207',1142.870
'0:23.211',1095.984
'0:23.215',1092.313
'0:23.219',1051.288
'0:23.223',1010.263
'0:23.227',1035.154
'0:23.230',1012.452
'0:23.234',1019.795
'0:23.238',997.801
'0:23.242',981.700
'0:23.246',1025.656
'0:23.250',1019.054
'0:23.254',1013.934
'0:23.258',1030.034
'0:23.262',1032.965
'0:23.266',1082.781
'0:23.270',1060.079
'0:23.273',1098.173
'0:23.277',1132.597
'0:23.281',1152.368
'0:23.285',1166.312
'0:23.289',1156.780
'0:23.293',1175.811
'0:23.297',1212.457
'0:23.301',1255.671
'0:23.305',1263.721
'0:23.309',1263.721
'0:23.313',1265.944
'0:23.316',1282.785
'0:23.320',1325.292
'0:23.324',1315.760
'0:23.328',1358.233
'0:23.332',1346.512
'0:23.336',1378.746
'0:23.340',1357.526
'0:23.344',1386.089
'0:23.348',1377.298
'0:23.352',1374.367
'0:23.355',1380.969
'0:23.359',1405.119
'0:23.363',1386.089
'0:23.367',1385.348
'0:23.371',1396.328
'0:23.375',1406.601
'0:23.379',1374.367
'0:23.383',1387.537
'0:23.387',1388.278
'0:23.391',1368.506
'0:23.395',1399.999
'0:23.398',1353.855
'0:23.402',1380.969
'0:23.406',1349.442
'0:23.410',1344.323
'0:23.414',1367.024
'0:23.418',1332.601
'0:23.422',1359.715
'0:23.426',1340.651
'0:23.430',1309.159
'0:23.434',1323.810
'0:23.438',1288.646
'0:23.441',1318.691
'0:23.445',1284.975
'0:23.449',1279.855
'0:23.453',1278.373
'0:23.457',1258.602
'0:23.461',1277.666
'0:23.465',1290.835
'0:23.469',1268.875
'0:23.473',1290.094
'0:23.477',1252.741
'0:23.480',1282.044
'0:23.484',1254.930
'0:23.488',1288.646
'0:23.492',1268.875
'0:23.496',1290.094
'0:23.500',1301.108
'0:23.504',1290.094
'0:23.508',1284.234
'0:23.512',1318.691
'0:23.516',1339.203
'0:23.520',1307.677
'0:23.523',1320.880
