'Elapsed time','wrist_ppg'
'hh:mm:ss.mmm','mV'
'0:00.000',1133.339
'0:00.004',1135.529
'0:00.008',1142.133
'0:00.012',1146.512
'0:00.016',1147.995
'0:00.020',1163.357
'0:00.023',1170.702
'0:00.027',1174.375
'0:00.031',1179.495
'0:00.035',1166.288
'0:00.039',1225.651
'0:00.043',1233.702
'0:00.047',1212.443
'0:00.051',1238.081
'0:00.055',1240.306
'0:00.059',1299.634
'0:00.063',1273.996
'0:00.066',1320.893
'0:00.070',1353.841
'0:00.074',1358.962
'0:00.078',1383.152
'0:00.082',1392.687
'0:00.086',1430.756
'0:00.090',1438.101
'0:00.094',1441.739
'0:00.098',1458.619
'0:00.102',1468.118
'0:00.105',1469.602
'0:00.109',1491.567
'0:00.113',1515.016
'0:00.117',1550.189
'0:00.121',1525.998
'0:00.125',1573.637
'0:00.129',1531.119
'0:00.133',1584.620
'0:00.137',1538.464
'0:00.141',1565.550
'0:00.145',1535.533
'0:00.148',1575.085
'0:00.152',1527.482
'0:00.156',1544.326
'0:00.160',1512.826
'0:00.164',1529.671
'0:00.168',1537.723
'0:00.172',1491.567
'0:00.176',1531.860
'0:00.180',1478.395
'0:00.184',1516.499
'0:00.188',1496.688
'0:00.191',1469.602
'0:00.195',1455.688
'0:00.199',1438.843
'0:00.203',1416.100
'0:00.207',1424.894
'0:00.211',1417.584
'0:00.215',1397.066
'0:00.219',1393.393
'0:00.223',1397.066
'0:00.227',1396.324
'0:00.230',1391.204
'0:00.234',1336.255
'0:00.238',1341.376
'0:00.242',1343.600
'0:00.246',1336.255
'0:00.250',1345.790
'0:00.254',1343.600
'0:00.258',1327.462
'0:00.262',1280.600
'0:00.266',1275.444
'0:00.270',1295.961
'0:00.273',1316.479
'0:00.277',1312.100
'0:00.281',1282.048
'0:00.285',1320.893
'0:00.289',1285.720
'0:00.293',1266.651
'0:00.297',1298.151
'0:00.301',1315.031
'0:00.305',1312.100
'0:00.309',1290.099
'0:00.313',1267.392
'0:00.316',1276.185
'0:00.320',1324.531
'0:00.324',1295.961
'0:00.328',1290.841
'0:00.332',1306.238
'0:00.336',1343.600
'0:00.340',1302.565
'0:00.344',1301.824
'0:00.348',1325.272
'0:00.352',1314.290
'0:00.355',1335.513
'0:00.359',1333.324
'0:00.363',1347.238
'0:00.367',1368.497
'0:00.371',1396.324
'0:00.375',1399.256
'0:00.379',1378.032
'0:00.383',1376.549
'0:00.387',1376.549
'0:00.391',1421.963
'0:00.395',1413.911
'0:00.398',1417.584
'0:00.402',1378.032
'0:00.406',1399.997
'0:00.410',1402.928
'0:00.414',1372.170
'0:00.418',1362.635
'0:00.422',1361.893
'0:00.426',1357.514
'0:00.430',1353.841
'0:00.434',1335.513
'0:00.438',1338.444
'0:00.441',1312.100
'0:00.445',1271.807
'0:00.449',1301.082
'0:00.453',1294.514
'0:00.457',1246.875
'0:00.461',1243.944
'0:00.465',1271.807
'0:00.469',1264.461
'0:00.473',1241.013
'0:00.477',1211.737
'0:00.480',1243.944
'0:00.484',1248.358
'0:00.488',1219.789
'0:00.492',1232.961
'0:00.496',1280.600
'0:00.500',1279.117
'0:00.504',1309.875
'0:00.508',1331.134
'0:00.512',1334.807
'0:00.516',1417.584
'0:00.520',1404.376
'0:00.523',1493.756
'0:00.527',1489.377
'0:00.531',1556.051
'0:00.535',1562.619
'0:00.539',1599.275
'0:00.543',1630.034
'0:00.547',1664.465
'0:00.551',1702.569
'0:00.555',1760.449
'0:00.559',1753.104
'0:00.563',1818.329
'0:00.566',1797.812
'0:00.570',1810.243
'0:00.574',1827.829
'0:00.578',1827.087
'0:00.582',1827.087
'0:00.586',1824.898
'0:00.590',1815.398
'0:00.594',1801.449
'0:00.598',1789.019
'0:00.602',1775.105
'0:00.605',1767.018
'0:00.609',1761.897
'0:00.613',1724.535
'0:00.617',1700.380
'0:00.621',1655.672
'0:00.625',1638.827
'0:00.629',1634.413
'0:00.633',1577.275
'0:00.637',1566.292
'0:00.641',1570.706
'0:00.645',1510.637
'0:00.648',1490.119
'0:00.652',1493.756
'0:00.656',1440.291
'0:00.660',1445.411
'0:00.664',1392.687
'0:00.668',1396.324
'0:00.672',1392.687
'0:00.676',1358.256
'0:00.680',1338.444
'0:00.684',1306.944
'0:00.688',1295.961
'0:00.691',1318.669
'0:00.695',1326.014
'0:00.699',1316.479
'0:00.703',1298.151
'0:00.707',1296.703
'0:00.711',1281.306
'0:00.715',1258.599
'0:00.719',1233.702
'0:00.723',1220.495
'0:00.727',1238.823
'0:00.730',1214.633
'0:00.734',1209.512
'0:00.738',1204.392
'0:00.742',1204.392
'0:00.746',1201.461
'0:00.750',1217.564
'0:00.754',1261.530
'0:00.758',1266.651
'0:00.762',1276.927
'0:00.766',1279.117
'0:00.770',1263.720
'0:00.773',1265.944
'0:00.777',1280.600
'0:00.781',1294.514
'0:00.785',1291.583
'0:00.789',1306.238
'0:00.793',1341.376
'0:00.797',1378.738
'0:00.801',1355.325
'0:00.805',1402.928
'0:00.809',1424.894
'0:00.813',1421.963
'0:00.816',1402.187
'0:00.820',1453.463
'0:00.824',1420.515
'0:00.828',1430.756
'0:00.832',1448.342
'0:00.836',1450.532
'0:00.840',1455.688
'0:00.844',1486.446
'0:00.848',1450.532
'0:00.852',1487.188
'0:00.855',1438.101
'0:00.859',1452.015
'0:00.863',1452.757
'0:00.867',1453.463
'0:00.871',1479.136
'0:00.875',1477.653
'0:00.879',1427.119
'0:00.883',1466.670
'0:00.887',1450.532
'0:00.891',1412.463
'0:00.895',1430.050
'0:00.898',1405.859
'0:00.902',1402.928
'0:00.906',1384.600
'0:00.910',1407.307
'0:00.914',1393.393
'0:00.918',1360.445
'0:00.922',1336.255
'0:00.926',1346.531
'0:00.930',1367.755
'0:00.934',1370.686
'0:00.938',1362.635
'0:00.941',1363.376
'0:00.945',1361.893
'0:00.949',1358.962
'0:00.953',1357.514
'0:00.957',1316.479
'0:00.961',1311.358
'0:00.965',1341.376
'0:00.969',1317.962
'0:00.973',1313.548
'0:00.977',1313.548
'0:00.980',1328.203
'0:00.984',1329.651
'0:00.988',1336.255
'0:00.992',1332.582
'0:00.996',1342.859
'0:01.000',1323.083
'0:01.004',1342.117
'0:01.008',1348.721
'0:01.012',1358.962
'0:01.016',1335.513
'0:01.020',1360.445
'0:01.023',1341.376
'0:01.027',1330.393
'0:01.031',1376.549
'0:01.035',1325.272
'0:01.039',1370.686
'0:01.043',1324.531
'0:01.047',1375.101
'0:01.051',1364.824
'0:01.055',1327.462
'0:01.059',1367.014
'0:01.063',1353.841
'0:01.066',1320.893
'0:01.070',1349.463
'0:01.074',1372.170
'0:01.078',1350.169
'0:01.082',1335.513
'0:01.086',1347.979
'0:01.090',1369.945
'0:01.094',1369.945
'0:01.098',1365.566
'0:01.102',1361.893
'0:01.105',1345.790
'0:01.109',1325.272
'0:01.113',1371.428
'0:01.117',1358.256
'0:01.121',1342.117
'0:01.125',1336.255
'0:01.129',1327.462
'0:01.133',1324.531
'0:01.137',1333.324
'0:01.141',1339.186
'0:01.145',1347.238
'0:01.148',1305.496
'0:01.152',1304.755
'0:01.156',1346.531
'0:01.160',1347.238
'0:01.164',1342.859
'0:01.168',1331.134
'0:01.172',1315.031
'0:01.176',1294.514
'0:01.180',1301.824
'0:01.184',1293.772
'0:01.188',1323.824
'0:01.191',1334.807
'0:01.195',1315.737
'0:01.199',1311.358
'0:01.203',1310.617
'0:01.207',1309.169
'0:01.211',1309.875
'0:01.215',1321.600
'0:01.219',1310.617
'0:01.223',1328.945
'0:01.227',1309.169
'0:01.230',1320.893
'0:01.234',1331.134
'0:01.238',1328.945
'0:01.242',1300.376
'0:01.246',1298.151
'0:01.250',1318.669
'0:01.254',1308.427
'0:01.258',1313.548
'0:01.262',1307.686
'0:01.266',1325.272
'0:01.270',1316.479
'0:01.273',1317.962
'0:01.277',1355.325
'0:01.281',1382.411
'0:01.285',1354.583
'0:01.289',1403.670
'0:01.293',1367.014
'0:01.297',1414.653
'0:01.301',1402.928
'0:01.305',1393.393
'0:01.309',1410.238
'0:01.313',1467.412
'0:01.316',1432.981
'0:01.320',1489.377
'0:01.324',1465.929
'0:01.328',1509.153
'0:01.332',1484.963
'0:01.336',1520.136
'0:01.340',1484.963
'0:01.344',1508.412
'0:01.348',1530.413
'0:01.352',1506.964
'0:01.355',1502.550
'0:01.359',1539.912
'0:01.363',1496.688
'0:01.367',1540.654
'0:01.371',1488.636
'0:01.375',1506.222
'0:01.379',1506.964
'0:01.383',1488.636
'0:01.387',1515.016
'0:01.391',1480.584
'0:01.395',1493.756
'0:01.398',1476.912
'0:01.402',1466.670
'0:01.406',1498.912
'0:01.410',1454.205
'0:01.414',1490.119
'0:01.418',1436.618
'0:01.422',1468.860
'0:01.426',1438.843
'0:01.430',1450.532
'0:01.434',1443.222
'0:01.438',1406.601
'0:01.441',1449.084
'0:01.445',1424.187
'0:01.449',1398.549
'0:01.453',1397.066
'0:01.457',1380.963
'0:01.461',1361.893
'0:01.465',1348.721
'0:01.469',1367.014
'0:01.473',1378.738
'0:01.477',1358.962
'0:01.480',1326.755
'0:01.484',1305.496
'0:01.488',1298.151
'0:01.492',1298.151
'0:01.496',1290.841
'0:01.500',1292.289
'0:01.504',1293.030
'0:01.508',1283.531
'0:01.512',1293.772
'0:01.516',1320.152
'0:01.520',1339.186
'0:01.523',1319.410
'0:01.527',1312.100
'0:01.531',1295.220
'0:01.535',1350.169
'0:01.539',1323.083
'0:01.543',1304.755
'0:01.547',1344.307
'0:01.551',1361.187
'0:01.555',1315.737
'0:01.559',1369.238
'0:01.563',1341.376
'0:01.566',1375.101
'0:01.570',1365.566
'0:01.574',1392.687
'0:01.578',1353.841
'0:01.582',1396.324
'0:01.586',1396.324
'0:01.590',1387.531
'0:01.594',1426.377
'0:01.598',1386.825
'0:01.602',1397.808
'0:01.605',1425.635
'0:01.609',1391.946
'0:01.613',1402.187
'0:01.617',1391.204
'0:01.621',1440.291
'0:01.625',1389.756
'0:01.629',1424.187
'0:01.633',1380.221
'0:01.637',1406.601
'0:01.641',1373.617
'0:01.645',1380.963
'0:01.648',1410.980
'0:01.652',1360.445
'0:01.656',1364.824
'0:01.660',1383.152
'0:01.664',1356.031
'0:01.668',1346.531
'0:01.672',1345.790
'0:01.676',1356.031
'0:01.680',1315.031
'0:01.684',1323.824
'0:01.688',1356.773
'0:01.691',1350.910
'0:01.695',1322.341
'0:01.699',1326.014
'0:01.703',1326.014
'0:01.707',1304.755
'0:01.711',1312.100
'0:01.715',1331.134
'0:01.719',1343.600
'0:01.723',1342.117
'0:01.727',1321.600
'0:01.730',1294.514
'0:01.734',1313.548
'0:01.738',1349.463
'0:01.742',1336.255
'0:01.746',1308.427
'0:01.750',1314.290
'0:01.754',1320.152
'0:01.758',1353.841
'0:01.762',1364.118
'0:01.766',1393.393
'0:01.770',1402.187
'0:01.773',1398.549
'0:01.777',1388.273
'0:01.781',1405.118
'0:01.785',1399.997
'0:01.789',1428.566
'0:01.793',1427.825
'0:01.797',1433.687
'0:01.801',1446.153
'0:01.805',1419.773
'0:01.809',1466.670
'0:01.813',1445.411
'0:01.816',1453.463
'0:01.820',1443.963
'0:01.824',1413.169
'0:01.828',1445.411
'0:01.832',1395.618
'0:01.836',1397.066
'0:01.840',1388.273
'0:01.844',1401.480
'0:01.848',1362.635
'0:01.852',1336.255
'0:01.855',1345.790
'0:01.859',1306.238
'0:01.863',1282.048
'0:01.867',1290.841
'0:01.871',1221.978
'0:01.875',1206.581
'0:01.879',1210.995
'0:01.883',1216.116
'0:01.887',1205.133
'0:01.891',1156.047
'0:01.895',1163.357
'0:01.898',1180.201
'0:01.902',1159.719
'0:01.906',1114.270
'0:01.910',1161.167
'0:01.914',1109.149
'0:01.918',1147.253
'0:01.922',1167.771
'0:01.926',1174.375
'0:01.930',1181.685
'0:01.934',1149.443
'0:01.938',1194.857
'0:01.941',1196.340
'0:01.945',1227.840
'0:01.949',1242.496
'0:01.953',1249.099
'0:01.957',1274.738
'0:01.961',1289.393
'0:01.965',1293.772
'0:01.969',1307.686
'0:01.973',1287.168
'0:01.977',1352.394
'0:01.980',1352.394
'0:01.984',1336.255
'0:01.988',1371.428
'0:01.992',1420.515
'0:01.996',1437.360
'0:02.000',1449.084
'0:02.004',1466.670
'0:02.008',1462.256
'0:02.012',1456.394
'0:02.016',1457.136
'0:02.020',1473.980
'0:02.023',1520.136
'0:02.027',1531.860
'0:02.031',1526.740
'0:02.035',1515.757
'0:02.039',1510.637
'0:02.043',1552.378
'0:02.047',1536.275
'0:02.051',1530.413
'0:02.055',1530.413
'0:02.059',1578.016
'0:02.063',1558.240
'0:02.066',1556.051
'0:02.070',1591.930
'0:02.074',1553.120
'0:02.078',1561.171
'0:02.082',1564.102
'0:02.086',1561.171
'0:02.090',1572.154
'0:02.094',1567.775
'0:02.098',1584.620
'0:02.102',1563.361
'0:02.105',1556.757
'0:02.109',1555.309
'0:02.113',1576.568
'0:02.117',1541.395
'0:02.121',1535.533
'0:02.125',1565.550
'0:02.129',1521.619
'0:02.133',1512.085
'0:02.137',1524.550
'0:02.141',1498.912
'0:02.145',1473.980
'0:02.148',1476.205
'0:02.152',1489.377
'0:02.156',1441.739
'0:02.160',1418.325
'0:02.164',1416.100
'0:02.168',1411.721
'0:02.172',1432.239
'0:02.176',1369.945
'0:02.180',1401.480
'0:02.184',1344.307
'0:02.188',1355.325
'0:02.191',1326.014
'0:02.195',1364.824
'0:02.199',1323.824
'0:02.203',1317.221
'0:02.207',1334.066
'0:02.211',1298.893
'0:02.215',1287.910
'0:02.219',1334.066
'0:02.223',1301.824
'0:02.227',1279.858
'0:02.230',1276.185
'0:02.234',1323.824
'0:02.238',1315.737
'0:02.242',1328.203
'0:02.246',1309.875
'0:02.250',1298.893
'0:02.254',1297.445
'0:02.258',1282.789
'0:02.262',1283.531
'0:02.266',1290.099
'0:02.270',1322.341
'0:02.273',1271.807
'0:02.277',1320.152
'0:02.281',1303.307
'0:02.285',1268.134
'0:02.289',1318.669
'0:02.293',1303.307
'0:02.297',1277.669
'0:02.301',1324.531
'0:02.305',1320.152
'0:02.309',1320.152
'0:02.313',1305.496
'0:02.316',1356.773
'0:02.320',1329.651
'0:02.324',1360.445
'0:02.328',1343.600
'0:02.332',1337.738
'0:02.336',1336.997
'0:02.340',1361.893
'0:02.344',1326.755
'0:02.348',1383.152
'0:02.352',1337.738
'0:02.355',1394.135
'0:02.359',1352.394
'0:02.363',1406.601
'0:02.367',1365.566
'0:02.371',1416.100
'0:02.375',1399.256
'0:02.379',1401.480
'0:02.383',1457.136
'0:02.387',1465.187
'0:02.391',1432.239
'0:02.395',1460.067
'0:02.398',1485.705
'0:02.402',1508.412
'0:02.406',1465.187
'0:02.410',1476.205
'0:02.414',1474.722
'0:02.418',1484.257
'0:02.422',1487.188
'0:02.426',1495.981
'0:02.430',1503.291
'0:02.434',1523.809
'0:02.438',1477.653
'0:02.441',1462.998
'0:02.445',1457.136
'0:02.449',1456.394
'0:02.453',1455.688
'0:02.457',1476.205
'0:02.461',1412.463
'0:02.465',1431.497
'0:02.469',1421.963
'0:02.473',1430.050
'0:02.477',1417.584
'0:02.480',1361.187
'0:02.484',1364.118
'0:02.488',1368.497
'0:02.492',1378.032
'0:02.496',1373.617
'0:02.500',1333.324
'0:02.504',1375.807
'0:02.508',1334.807
'0:02.512',1368.497
'0:02.516',1367.014
'0:02.520',1324.531
'0:02.523',1347.238
'0:02.527',1373.617
'0:02.531',1343.600
'0:02.535',1334.807
'0:02.539',1347.238
'0:02.543',1319.410
'0:02.547',1333.324
'0:02.551',1297.445
'0:02.555',1335.513
'0:02.559',1286.462
'0:02.563',1323.083
'0:02.566',1273.996
'0:02.570',1301.082
'0:02.574',1265.203
'0:02.578',1251.289
'0:02.582',1273.254
'0:02.586',1245.427
'0:02.590',1216.116
'0:02.594',1262.272
'0:02.598',1253.478
'0:02.602',1231.513
'0:02.605',1205.133
'0:02.609',1205.875
'0:02.613',1257.857
'0:02.617',1245.427
'0:02.621',1255.668
'0:02.625',1238.823
'0:02.629',1229.288
'0:02.633',1284.979
'0:02.637',1266.651
'0:02.641',1260.082
'0:02.645',1320.893
'0:02.648',1298.893
'0:02.652',1320.152
'0:02.656',1320.152
'0:02.660',1369.238
'0:02.664',1334.807
'0:02.668',1389.756
'0:02.672',1373.617
'0:02.676',1392.687
'0:02.680',1416.100
'0:02.684',1395.618
'0:02.688',1435.912
'0:02.691',1397.066
'0:02.695',1430.756
'0:02.699',1446.894
'0:02.703',1399.256
'0:02.707',1423.446
'0:02.711',1447.601
'0:02.715',1414.653
'0:02.719',1397.808
'0:02.723',1437.360
'0:02.727',1434.429
'0:02.730',1378.738
'0:02.734',1389.014
'0:02.738',1420.515
'0:02.742',1373.617
'0:02.746',1365.566
'0:02.750',1373.617
'0:02.754',1355.325
'0:02.758',1352.394
'0:02.762',1365.566
'0:02.766',1373.617
'0:02.770',1383.152
'0:02.773',1353.100
'0:02.777',1399.256
'0:02.781',1356.773
'0:02.785',1406.601
'0:02.789',1378.032
'0:02.793',1360.445
'0:02.797',1388.273
'0:02.801',1397.066
'0:02.805',1416.842
'0:02.809',1387.531
'0:02.813',1410.980
'0:02.816',1442.480
'0:02.820',1445.411
'0:02.824',1444.670
'0:02.828',1443.222
'0:02.832',1467.412
'0:02.836',1481.326
'0:02.840',1490.825
'0:02.844',1486.446
'0:02.848',1479.843
'0:02.852',1492.309
'0:02.855',1491.567
'0:02.859',1497.429
'0:02.863',1506.964
'0:02.867',1520.136
'0:02.871',1556.757
'0:02.875',1539.206
'0:02.879',1511.343
'0:02.883',1541.395
'0:02.887',1524.550
'0:02.891',1498.912
'0:02.895',1537.723
'0:02.898',1506.222
'0:02.902',1499.619
'0:02.906',1526.740
'0:02.910',1517.205
'0:02.914',1478.395
'0:02.918',1455.688
'0:02.922',1447.601
'0:02.926',1441.739
'0:02.930',1430.756
'0:02.934',1423.446
'0:02.938',1416.842
'0:02.941',1416.842
'0:02.945',1427.119
'0:02.949',1434.429
'0:02.953',1415.394
'0:02.957',1399.256
'0:02.961',1430.756
'0:02.965',1384.600
'0:02.969',1419.773
'0:02.973',1390.462
'0:02.977',1380.221
'0:02.980',1378.738
'0:02.984',1385.342
'0:02.988',1397.066
'0:02.992',1358.962
'0:02.996',1382.411
'0:03.000',1396.324
'0:03.004',1402.187
'0:03.008',1357.514
'0:03.012',1381.669
'0:03.016',1402.187
'0:03.020',1367.014
'0:03.023',1350.910
'0:03.027',1372.170
'0:03.031',1365.566
'0:03.035',1386.083
'0:03.039',1357.514
'0:03.043',1335.513
'0:03.047',1354.583
'0:03.051',1360.445
'0:03.055',1344.307
'0:03.059',1324.531
'0:03.063',1368.497
'0:03.066',1346.531
'0:03.070',1315.737
'0:03.074',1336.255
'0:03.078',1353.841
'0:03.082',1334.807
'0:03.086',1309.169
'0:03.090',1305.496
'0:03.094',1356.031
'0:03.098',1310.617
'0:03.102',1336.997
'0:03.105',1330.393
'0:03.109',1345.048
'0:03.113',1337.738
'0:03.117',1328.945
'0:03.121',1317.221
'0:03.125',1369.945
'0:03.129',1352.394
'0:03.133',1338.444
'0:03.137',1368.497
'0:03.141',1341.376
'0:03.145',1362.635
'0:03.148',1352.394
'0:03.152',1383.152
'0:03.156',1358.256
'0:03.160',1349.463
'0:03.164',1373.617
'0:03.168',1382.411
'0:03.172',1367.755
'0:03.176',1348.721
'0:03.180',1367.014
'0:03.184',1375.807
'0:03.188',1328.203
'0:03.191',1345.790
'0:03.195',1317.221
'0:03.199',1364.824
'0:03.203',1337.738
'0:03.207',1311.358
'0:03.211',1346.531
'0:03.215',1309.875
'0:03.219',1347.238
'0:03.223',1309.169
'0:03.227',1361.187
'0:03.230',1324.531
'0:03.234',1364.824
'0:03.238',1314.290
'0:03.242',1363.376
'0:03.246',1317.962
'0:03.250',1363.376
'0:03.254',1366.307
'0:03.258',1342.117
'0:03.262',1362.635
'0:03.266',1370.686
'0:03.270',1342.117
'0:03.273',1367.755
'0:03.277',1353.100
'0:03.281',1336.997
'0:03.285',1379.480
'0:03.289',1368.497
'0:03.293',1334.066
'0:03.297',1368.497
'0:03.301',1356.031
'0:03.305',1350.169
'0:03.309',1334.807
'0:03.313',1364.118
'0:03.316',1369.945
'0:03.320',1383.152
'0:03.324',1329.651
'0:03.328',1348.721
'0:03.332',1368.497
'0:03.336',1339.186
'0:03.340',1368.497
'0:03.344',1332.582
'0:03.348',1322.341
'0:03.352',1345.790
'0:03.355',1326.755
'0:03.359',1347.238
'0:03.363',1336.997
'0:03.367',1319.410
'0:03.371',1333.324
'0:03.375',1315.737
'0:03.379',1350.169
'0:03.383',1322.341
'0:03.387',1341.376
'0:03.391',1330.393
'0:03.395',1306.944
'0:03.398',1306.944
'0:03.402',1348.721
'0:03.406',1327.462
'0:03.410',1317.221
'0:03.414',1355.325
'0:03.418',1331.876
'0:03.422',1312.806
'0:03.426',1326.755
'0:03.430',1364.118
'0:03.434',1339.186
'0:03.438',1322.341
'0:03.441',1361.187
'0:03.445',1327.462
'0:03.449',1347.979
'0:03.453',1361.187
'0:03.457',1328.945
'0:03.461',1356.031
'0:03.465',1340.669
'0:03.469',1342.859
'0:03.473',1354.583
'0:03.477',1311.358
'0:03.480',1323.083
'0:03.484',1357.514
'0:03.488',1316.479
'0:03.492',1348.721
'0:03.496',1320.152
'0:03.500',1342.859
'0:03.504',1327.462
'0:03.508',1300.376
'0:03.512',1336.255
'0:03.516',1300.376
'0:03.520',1332.582
'0:03.523',1354.583
'0:03.527',1306.238
'0:03.531',1330.393
'0:03.535',1362.635
'0:03.539',1312.806
'0:03.543',1350.910
'0:03.547',1342.117
'0:03.551',1337.738
'0:03.555',1364.824
'0:03.559',1333.324
'0:03.563',1353.841
'0:03.566',1386.825
'0:03.570',1349.463
'0:03.574',1387.531
'0:03.578',1391.946
'0:03.582',1350.169
'0:03.586',1389.014
'0:03.590',1401.480
'0:03.594',1401.480
'0:03.598',1375.101
'0:03.602',1386.083
'0:03.605',1413.911
'0:03.609',1417.584
'0:03.613',1427.119
'0:03.617',1438.101
'0:03.621',1438.843
'0:03.625',1452.015
'0:03.629',1469.602
'0:03.633',1471.791
'0:03.637',1462.256
'0:03.641',1482.774
'0:03.645',1525.998
'0:03.648',1527.482
'0:03.652',1543.585
'0:03.656',1547.257
'0:03.660',1536.981
'0:03.664',1526.740
'0:03.668',1526.740
'0:03.672',1529.671
'0:03.676',1563.361
'0:03.680',1570.706
'0:03.684',1574.344
'0:03.688',1599.982
'0:03.691',1599.275
'0:03.695',1577.275
'0:03.699',1572.154
'0:03.703',1547.999
'0:03.707',1559.688
'0:03.711',1579.499
'0:03.715',1564.102
'0:03.719',1517.947
'0:03.723',1493.050
'0:03.727',1482.774
'0:03.730',1444.670
'0:03.734',1433.687
'0:03.738',1449.084
'0:03.742',1375.101
'0:03.746',1391.204
'0:03.750',1350.169
'0:03.754',1306.238
'0:03.758',1323.824
'0:03.762',1294.514
'0:03.766',1256.410
'0:03.770',1211.737
'0:03.773',1202.944
'0:03.777',1174.375
'0:03.781',1178.012
'0:03.785',1158.236
'0:03.789',1148.701
'0:03.793',1147.995
'0:03.797',1131.150
'0:03.801',1104.029
'0:03.805',1106.960
'0:03.809',1135.529
'0:03.813',1134.081
'0:03.816',1154.563
'0:03.820',1158.978
'0:03.824',1167.771
'0:03.828',1176.564
'0:03.832',1161.167
'0:03.836',1210.254
'0:03.840',1210.254
'0:03.844',1224.168
'0:03.848',1274.738
'0:03.852',1284.237
'0:03.855',1322.341
'0:03.859',1333.324
'0:03.863',1332.582
'0:03.867',1346.531
'0:03.871',1369.238
'0:03.875',1394.877
'0:03.879',1432.239
'0:03.883',1457.136
'0:03.887',1475.464
'0:03.891',1468.118
'0:03.895',1473.274
'0:03.898',1484.257
'0:03.902',1463.739
'0:03.906',1473.980
'0:03.910',1482.032
'0:03.914',1503.291
'0:03.918',1517.947
'0:03.922',1495.981
'0:03.926',1510.637
'0:03.930',1512.826
'0:03.934',1493.050
'0:03.938',1492.309
'0:03.941',1489.377
'0:03.945',1465.929
'0:03.949',1445.411
'0:03.953',1437.360
'0:03.957',1430.050
'0:03.961',1441.739
'0:03.965',1432.981
'0:03.969',1408.790
'0:03.973',1402.187
'0:03.977',1411.721
'0:03.980',1415.394
'0:03.984',1416.100
'0:03.988',1427.825
'0:03.992',1434.429
'0:03.996',1380.963
'0:04.000',1394.135
'0:04.004',1428.566
'0:04.008',1379.480
'0:04.012',1380.221
'0:04.016',1375.807
'0:04.020',1395.618
'0:04.023',1422.704
'0:04.027',1392.687
'0:04.031',1419.032
'0:04.035',1421.256
'0:04.039',1410.980
'0:04.043',1430.756
'0:04.047',1397.808
'0:04.051',1377.290
'0:04.055',1389.014
'0:04.059',1419.773
'0:04.063',1391.946
'0:04.066',1367.755
'0:04.070',1394.135
'0:04.074',1401.480
'0:04.078',1396.324
'0:04.082',1367.755
'0:04.086',1369.238
'0:04.090',1395.618
'0:04.094',1390.462
'0:04.098',1343.600
'0:04.102',1336.997
'0:04.105',1356.773
'0:04.109',1358.256
'0:04.113',1364.118
'0:04.117',1314.290
'0:04.121',1336.255
'0:04.125',1296.703
'0:04.129',1336.997
'0:04.133',1278.375
'0:04.137',1312.806
'0:04.141',1300.376
'0:04.145',1267.392
'0:04.148',1238.823
'0:04.152',1259.341
'0:04.156',1252.737
'0:04.160',1239.565
'0:04.164',1220.495
'0:04.168',1198.530
'0:04.172',1182.426
'0:04.176',1183.874
'0:04.180',1183.874
'0:04.184',1143.581
'0:04.188',1155.305
'0:04.191',1098.166
'0:04.195',1134.787
'0:04.199',1102.545
'0:04.203',1095.235
'0:04.207',1060.804
'0:04.211',1092.304
'0:04.215',1113.563
'0:04.219',1109.891
'0:04.223',1112.822
'0:04.227',1143.581
'0:04.230',1154.563
'0:04.234',1159.719
'0:04.238',1178.754
'0:04.242',1206.581
'0:04.246',1280.600
'0:04.250',1273.996
'0:04.254',1356.031
'0:04.258',1360.445
'0:04.262',1423.446
'0:04.266',1467.412
'0:04.270',1485.705
'0:04.273',1505.481
'0:04.277',1565.550
'0:04.281',1615.379
'0:04.285',1624.172
'0:04.289',1668.138
'0:04.293',1669.586
'0:04.297',1682.793
'0:04.301',1707.690
'0:04.305',1704.017
'0:04.309',1745.052
'0:04.313',1723.087
'0:04.316',1772.174
'0:04.320',1760.449
'0:04.324',1727.466
'0:04.328',1751.656
'0:04.332',1706.242
'0:04.336',1689.362
'0:04.340',1660.086
'0:04.344',1638.086
'0:04.348',1615.379
'0:04.352',1598.534
'0:04.355',1575.085
'0:04.359',1522.326
'0:04.363',1536.275
'0:04.367',1484.257
'0:04.371',1463.739
'0:04.375',1428.566
'0:04.379',1347.979
'0:04.383',1323.083
'0:04.387',1318.669
'0:04.391',1265.203
'0:04.395',1279.858
'0:04.398',1223.426
'0:04.402',1242.496
'0:04.406',1208.806
'0:04.410',1183.133
'0:04.414',1188.288
'0:04.418',1176.564
'0:04.422',1190.478
'0:04.426',1161.909
'0:04.430',1192.667
'0:04.434',1179.495
'0:04.438',1210.995
'0:04.441',1221.978
'0:04.445',1232.961
'0:04.449',1216.858
'0:04.453',1246.875
'0:04.457',1262.272
'0:04.461',1264.461
'0:04.465',1261.530
'0:04.469',1268.875
'0:04.473',1330.393
'0:04.477',1301.082
'0:04.480',1355.325
'0:04.484',1384.600
'0:04.488',1376.549
'0:04.492',1397.808
'0:04.496',1380.221
'0:04.500',1387.531
'0:04.504',1401.480
'0:04.508',1421.963
'0:04.512',1427.119
'0:04.516',1432.981
'0:04.520',1443.963
'0:04.523',1476.205
'0:04.527',1495.981
'0:04.531',1509.153
'0:04.535',1487.894
'0:04.539',1473.980
'0:04.543',1498.171
'0:04.547',1504.774
'0:04.551',1477.653
'0:04.555',1513.568
'0:04.559',1477.653
'0:04.563',1528.929
'0:04.566',1523.809
'0:04.570',1483.515
'0:04.574',1511.343
'0:04.578',1509.895
'0:04.582',1503.291
'0:04.586',1487.188
'0:04.590',1482.774
'0:04.594',1460.808
'0:04.598',1496.688
'0:04.602',1490.119
'0:04.605',1442.480
'0:04.609',1460.808
'0:04.613',1461.550
'0:04.617',1427.119
'0:04.621',1460.808
'0:04.625',1411.721
'0:04.629',1447.601
'0:04.633',1390.462
'0:04.637',1428.566
'0:04.641',1383.894
'0:04.645',1389.756
'0:04.648',1386.083
'0:04.652',1375.101
'0:04.656',1403.670
'0:04.660',1347.979
'0:04.664',1394.135
'0:04.668',1338.444
'0:04.672',1380.963
'0:04.676',1330.393
'0:04.680',1349.463
'0:04.684',1325.272
'0:04.688',1361.187
'0:04.691',1319.410
'0:04.695',1364.118
'0:04.699',1320.893
'0:04.703',1314.290
'0:04.707',1345.790
'0:04.711',1349.463
'0:04.715',1313.548
'0:04.719',1348.721
'0:04.723',1315.031
'0:04.727',1338.444
'0:04.730',1331.134
'0:04.734',1342.859
'0:04.738',1312.100
'0:04.742',1357.514
'0:04.746',1320.152
'0:04.750',1324.531
'0:04.754',1357.514
'0:04.758',1326.014
'0:04.762',1357.514
'0:04.766',1325.272
'0:04.770',1337.738
'0:04.773',1315.737
'0:04.777',1352.394
'0:04.781',1314.290
'0:04.785',1350.169
'0:04.789',1315.737
'0:04.793',1354.583
'0:04.797',1323.083
'0:04.801',1305.496
'0:04.805',1358.256
'0:04.809',1322.341
'0:04.813',1332.582
'0:04.816',1351.652
'0:04.820',1327.462
'0:04.824',1309.875
'0:04.828',1358.256
'0:04.832',1336.255
'0:04.836',1312.100
'0:04.840',1312.100
'0:04.844',1358.256
'0:04.848',1317.221
'0:04.852',1330.393
'0:04.855',1353.100
'0:04.859',1320.893
'0:04.863',1303.307
'0:04.867',1297.445
'0:04.871',1299.634
'0:04.875',1282.789
'0:04.879',1283.531
'0:04.883',1283.531
'0:04.887',1331.134
'0:04.891',1320.152
'0:04.895',1300.376
'0:04.898',1289.393
'0:04.902',1329.651
'0:04.906',1328.945
'0:04.910',1315.031
'0:04.914',1301.082
'0:04.918',1323.824
'0:04.922',1335.513
'0:04.926',1323.083
'0:04.930',1328.203
'0:04.934',1309.169
'0:04.938',1315.737
'0:04.941',1322.341
'0:04.945',1323.824
'0:04.949',1337.738
'0:04.953',1335.513
'0:04.957',1312.806
'0:04.961',1296.703
'0:04.965',1301.824
'0:04.969',1344.307
'0:04.973',1347.238
'0:04.977',1343.600
'0:04.980',1340.669
'0:04.984',1331.876
'0:04.988',1348.721
'0:04.992',1336.997
'0:04.996',1342.859
'0:05.000',1357.514
'0:05.004',1354.583
'0:05.008',1350.910
'0:05.012',1338.444
'0:05.016',1341.376
'0:05.020',1344.307
'0:05.023',1335.513
'0:05.027',1339.928
'0:05.031',1342.117
'0:05.035',1342.117
'0:05.039',1328.203
'0:05.043',1337.738
'0:05.047',1345.048
'0:05.051',1355.325
'0:05.055',1350.169
'0:05.059',1347.979
'0:05.063',1343.600
'0:05.066',1400.739
'0:05.070',1381.669
'0:05.074',1427.119
'0:05.078',1405.859
'0:05.082',1455.688
'0:05.086',1467.412
'0:05.090',1463.739
'0:05.094',1503.291
'0:05.098',1537.723
'0:05.102',1520.878
'0:05.105',1556.051
'0:05.109',1586.809
'0:05.113',1614.637
'0:05.117',1638.086
'0:05.121',1650.552
'0:05.125',1652.741
'0:05.129',1676.190
'0:05.133',1679.862
'0:05.137',1675.448
'0:05.141',1697.449
'0:05.145',1737.742
'0:05.148',1704.017
'0:05.152',1724.535
'0:05.156',1750.173
'0:05.160',1726.018
'0:05.164',1691.587
'0:05.168',1695.224
'0:05.172',1690.845
'0:05.176',1685.725
'0:05.180',1664.465
'0:05.184',1635.155
'0:05.188',1563.361
'0:05.191',1531.119
'0:05.195',1522.326
'0:05.199',1490.825
'0:05.203',1427.825
'0:05.207',1368.497
'0:05.211',1371.428
'0:05.215',1337.738
'0:05.219',1298.151
'0:05.223',1259.341
'0:05.227',1191.219
'0:05.230',1142.839
'0:05.234',1160.425
'0:05.238',1081.322
'0:05.242',1111.339
'0:05.246',1079.132
'0:05.250',1040.286
'0:05.254',1068.114
'0:05.258',1044.701
'0:05.262',1043.959
'0:05.266',1022.700
'0:05.270',1082.063
'0:05.273',1041.770
'0:05.277',1100.356
'0:05.281',1090.115
'0:05.285',1115.011
'0:05.289',1112.822
'0:05.293',1146.512
'0:05.297',1189.736
'0:05.301',1208.806
'0:05.305',1223.426
'0:05.309',1224.168
'0:05.313',1282.048
'0:05.316',1305.496
'0:05.320',1317.221
'0:05.324',1326.014
'0:05.328',1399.997
'0:05.332',1404.376
'0:05.336',1425.635
'0:05.340',1424.894
'0:05.344',1455.688
'0:05.348',1494.498
'0:05.352',1496.688
'0:05.355',1506.964
'0:05.359',1553.861
'0:05.363',1579.499
'0:05.367',1555.309
'0:05.371',1594.861
'0:05.375',1573.637
'0:05.379',1561.913
'0:05.383',1580.206
'0:05.387',1588.999
'0:05.391',1599.275
'0:05.395',1592.672
'0:05.398',1582.430
'0:05.402',1558.982
'0:05.406',1550.189
'0:05.410',1550.930
'0:05.414',1531.860
'0:05.418',1521.619
'0:05.422',1479.136
'0:05.426',1484.257
'0:05.430',1487.894
'0:05.434',1497.429
'0:05.438',1444.670
'0:05.441',1451.273
'0:05.445',1438.101
'0:05.449',1419.773
'0:05.453',1389.756
'0:05.457',1425.635
'0:05.461',1364.118
'0:05.465',1386.083
'0:05.469',1345.048
'0:05.473',1385.342
'0:05.477',1377.290
'0:05.480',1368.497
'0:05.484',1315.737
'0:05.488',1305.496
'0:05.492',1312.100
'0:05.496',1330.393
'0:05.500',1339.186
'0:05.504',1290.099
'0:05.508',1317.962
'0:05.512',1329.651
'0:05.516',1308.427
'0:05.520',1323.083
'0:05.523',1334.066
'0:05.527',1319.410
'0:05.531',1317.962
'0:05.535',1364.824
'0:05.539',1341.376
'0:05.543',1388.273
'0:05.547',1358.256
'0:05.551',1365.566
'0:05.555',1420.515
'0:05.559',1406.601
'0:05.563',1398.549
'0:05.566',1408.049
'0:05.570',1427.825
'0:05.574',1424.187
'0:05.578',1439.549
'0:05.582',1470.343
'0:05.586',1476.912
'0:05.590',1473.274
'0:05.594',1479.136
'0:05.598',1433.687
'0:05.602',1427.119
'0:05.605',1424.187
'0:05.609',1438.843
'0:05.613',1462.256
'0:05.617',1454.946
'0:05.621',1449.084
'0:05.625',1441.032
'0:05.629',1430.756
'0:05.633',1402.187
'0:05.637',1372.170
'0:05.641',1394.135
'0:05.645',1365.566
'0:05.648',1383.894
'0:05.652',1367.014
'0:05.656',1378.738
'0:05.660',1365.566
'0:05.664',1384.600
'0:05.668',1377.290
'0:05.672',1345.790
'0:05.676',1323.083
'0:05.680',1321.600
'0:05.684',1324.531
'0:05.688',1367.014
'0:05.691',1364.118
'0:05.695',1351.652
'0:05.699',1334.807
'0:05.703',1311.358
'0:05.707',1309.169
'0:05.711',1335.513
'0:05.715',1335.513
'0:05.719',1332.582
'0:05.723',1333.324
'0:05.727',1324.531
'0:05.730',1315.737
'0:05.734',1295.961
'0:05.738',1292.289
'0:05.742',1278.375
'0:05.746',1257.857
'0:05.750',1243.237
'0:05.754',1246.875
'0:05.758',1186.805
'0:05.762',1209.512
'0:05.766',1216.116
'0:05.770',1175.081
'0:05.773',1168.512
'0:05.777',1199.271
'0:05.781',1212.443
'0:05.785',1167.771
'0:05.789',1216.858
'0:05.793',1188.995
'0:05.797',1209.512
'0:05.801',1217.564
'0:05.805',1220.495
'0:05.809',1268.875
'0:05.813',1265.203
'0:05.816',1268.134
'0:05.820',1309.875
'0:05.824',1331.876
'0:05.828',1335.513
'0:05.832',1416.842
'0:05.836',1399.256
'0:05.840',1469.602
'0:05.844',1500.360
'0:05.848',1510.637
'0:05.852',1548.705
'0:05.855',1588.999
'0:05.859',1621.982
'0:05.863',1704.759
'0:05.867',1707.690
'0:05.871',1756.777
'0:05.875',1742.863
'0:05.879',1802.932
'0:05.883',1786.088
'0:05.887',1791.950
'0:05.891',1809.536
'0:05.895',1841.037
'0:05.898',1846.899
'0:05.902',1802.191
'0:05.906',1805.864
'0:05.910',1818.329
'0:05.914',1824.156
'0:05.918',1762.639
'0:05.922',1774.363
'0:05.926',1734.070
'0:05.930',1727.466
'0:05.934',1731.880
'0:05.938',1691.587
'0:05.941',1630.776
'0:05.945',1597.051
'0:05.949',1572.896
'0:05.953',1525.257
'0:05.957',1511.343
'0:05.961',1495.240
'0:05.965',1405.118
'0:05.969',1409.532
'0:05.973',1362.635
'0:05.977',1320.893
'0:05.980',1276.927
'0:05.984',1241.013
'0:05.988',1177.270
'0:05.992',1129.667
'0:05.996',1138.460
'0:06.000',1095.977
'0:06.004',1049.821
'0:06.008',1022.700
'0:06.012',1005.113
'0:06.016',994.872
'0:06.020',1019.769
'0:06.023',1010.976
'0:06.027',1026.373
'0:06.031',996.320
'0:06.035',998.545
'0:06.039',1038.839
'0:06.043',1060.804
'0:06.047',1038.839
'0:06.051',1055.683
'0:06.055',1094.494
'0:06.059',1128.219
'0:06.063',1132.598
'0:06.066',1140.649
'0:06.070',1191.219
'0:06.074',1236.634
'0:06.078',1235.150
'0:06.082',1282.048
'0:06.086',1323.083
'0:06.090',1363.376
'0:06.094',1369.238
'0:06.098',1381.669
'0:06.102',1417.584
'0:06.105',1471.791
'0:06.109',1498.912
'0:06.113',1506.964
'0:06.117',1561.913
'0:06.121',1544.326
'0:06.125',1583.878
'0:06.129',1566.292
'0:06.133',1613.931
'0:06.137',1617.568
'0:06.141',1611.000
'0:06.145',1614.637
'0:06.148',1608.775
'0:06.152',1551.636
'0:06.156',1551.636
'0:06.160',1581.689
'0:06.164',1528.929
'0:06.168',1516.499
'0:06.172',1520.136
'0:06.176',1476.205
'0:06.180',1493.050
'0:06.184',1459.325
'0:06.188',1418.325
'0:06.191',1451.273
'0:06.195',1426.377
'0:06.199',1418.325
'0:06.203',1383.152
'0:06.207',1353.100
'0:06.211',1361.187
'0:06.215',1372.170
'0:06.219',1314.290
'0:06.223',1339.928
'0:06.227',1345.048
'0:06.230',1336.997
'0:06.234',1296.703
'0:06.238',1325.272
'0:06.242',1312.100
'0:06.246',1297.445
'0:06.250',1324.531
'0:06.254',1312.806
'0:06.258',1289.393
'0:06.262',1312.806
'0:06.266',1339.928
'0:06.270',1350.910
'0:06.273',1303.307
'0:06.277',1315.737
'0:06.281',1323.824
'0:06.285',1350.169
'0:06.289',1369.238
'0:06.293',1356.031
'0:06.297',1361.893
'0:06.301',1356.773
'0:06.305',1339.928
'0:06.309',1335.513
'0:06.313',1340.669
'0:06.316',1356.031
'0:06.320',1382.411
'0:06.324',1399.997
'0:06.328',1391.204
'0:06.332',1389.014
'0:06.336',1361.893
'0:06.340',1398.549
'0:06.344',1415.394
'0:06.348',1383.152
'0:06.352',1366.307
'0:06.355',1419.773
'0:06.359',1389.014
'0:06.363',1375.101
'0:06.367',1404.376
'0:06.371',1429.308
'0:06.375',1424.187
'0:06.379',1404.376
'0:06.383',1394.135
'0:06.387',1382.411
'0:06.391',1421.256
'0:06.395',1427.825
'0:06.398',1389.756
'0:06.402',1409.532
'0:06.406',1381.669
'0:06.410',1422.704
'0:06.414',1381.669
'0:06.418',1403.670
'0:06.422',1367.014
'0:06.426',1388.273
'0:06.430',1358.962
'0:06.434',1407.307
'0:06.438',1361.893
'0:06.441',1398.549
'0:06.445',1367.014
'0:06.449',1342.859
'0:06.453',1384.600
'0:06.457',1366.307
'0:06.461',1328.945
'0:06.465',1347.238
'0:06.469',1342.859
'0:06.473',1356.031
'0:06.477',1356.773
'0:06.480',1350.169
'0:06.484',1333.324
'0:06.488',1308.427
'0:06.492',1293.030
'0:06.496',1323.083
'0:06.500',1326.014
'0:06.504',1282.048
'0:06.508',1287.168
'0:06.512',1276.185
'0:06.516',1276.927
'0:06.520',1274.738
'0:06.523',1302.565
'0:06.527',1298.151
'0:06.531',1305.496
'0:06.535',1282.789
'0:06.539',1259.341
'0:06.543',1293.030
'0:06.547',1319.410
'0:06.551',1282.789
'0:06.555',1303.307
'0:06.559',1347.979
'0:06.563',1339.186
'0:06.566',1346.531
'0:06.570',1385.342
'0:06.574',1370.686
'0:06.578',1369.945
'0:06.582',1414.653
'0:06.586',1453.463
'0:06.590',1420.515
'0:06.594',1485.705
'0:06.598',1457.877
'0:06.602',1498.171
'0:06.605',1517.205
'0:06.609',1547.999
'0:06.613',1567.033
'0:06.617',1608.069
'0:06.621',1602.913
'0:06.625',1613.931
'0:06.629',1650.552
'0:06.633',1661.534
'0:06.637',1689.362
'0:06.641',1728.949
'0:06.645',1763.381
'0:06.648',1745.794
'0:06.652',1743.605
'0:06.656',1770.691
'0:06.660',1759.708
'0:06.664',1808.795
'0:06.668',1777.294
'0:06.672',1804.380
'0:06.676',1764.087
'0:06.680',1784.604
'0:06.684',1729.655
'0:06.688',1741.380
'0:06.691',1676.931
'0:06.695',1654.931
'0:06.699',1624.913
'0:06.703',1589.741
'0:06.707',1522.326
'0:06.711',1497.429
'0:06.715',1487.188
'0:06.719',1419.032
'0:06.723',1369.238
'0:06.727',1331.876
'0:06.730',1297.445
'0:06.734',1251.289
'0:06.738',1219.789
'0:06.742',1186.805
'0:06.746',1156.047
'0:06.750',1117.201
'0:06.754',1066.666
'0:06.758',1071.045
'0:06.762',1049.080
'0:06.766',1024.889
'0:06.770',1041.028
'0:06.773',993.389
'0:06.777',1047.632
'0:06.781',1007.338
'0:06.785',1054.200
'0:06.789',1025.631
'0:06.793',1065.183
'0:06.797',1027.821
'0:06.801',1090.856
'0:06.805',1065.925
'0:06.809',1080.580
'0:06.813',1139.908
'0:06.816',1146.512
'0:06.820',1177.270
'0:06.824',1221.237
'0:06.828',1243.237
'0:06.832',1264.461
'0:06.836',1274.738
'0:06.840',1313.548
'0:06.844',1312.100
'0:06.848',1360.445
'0:06.852',1380.221
'0:06.855',1380.221
'0:06.859',1409.532
'0:06.863',1411.721
'0:06.867',1447.601
'0:06.871',1489.377
'0:06.875',1495.240
'0:06.879',1506.222
'0:06.883',1517.205
'0:06.887',1509.895
'0:06.891',1505.481
'0:06.895',1488.636
'0:06.898',1495.240
'0:06.902',1488.636
'0:06.906',1490.119
'0:06.910',1484.963
'0:06.914',1484.257
'0:06.918',1496.688
'0:06.922',1495.981
'0:06.926',1511.343
'0:06.930',1479.843
'0:06.934',1515.757
'0:06.938',1468.860
'0:06.941',1484.257
'0:06.945',1503.291
'0:06.949',1448.342
'0:06.953',1475.464
'0:06.957',1442.480
'0:06.961',1474.722
'0:06.965',1424.187
'0:06.969',1455.688
'0:06.973',1412.463
'0:06.977',1448.342
'0:06.980',1413.911
'0:06.984',1412.463
'0:06.988',1400.739
'0:06.992',1402.187
'0:06.996',1359.704
'0:07.000',1400.739
'0:07.004',1396.324
'0:07.008',1362.635
'0:07.012',1358.256
'0:07.016',1336.255
'0:07.020',1364.824
'0:07.023',1327.462
'0:07.027',1354.583
'0:07.031',1372.170
'0:07.035',1364.824
'0:07.039',1349.463
'0:07.043',1361.187
'0:07.047',1356.031
'0:07.051',1354.583
'0:07.055',1341.376
'0:07.059',1302.565
'0:07.063',1300.376
'0:07.066',1290.099
'0:07.070',1298.151
'0:07.074',1288.651
'0:07.078',1277.669
'0:07.082',1281.306
'0:07.086',1278.375
'0:07.090',1287.168
'0:07.094',1283.531
'0:07.098',1270.323
'0:07.102',1295.961
'0:07.105',1247.616
'0:07.109',1264.461
'0:07.113',1269.582
'0:07.117',1288.651
'0:07.121',1298.893
'0:07.125',1301.082
'0:07.129',1300.376
'0:07.133',1298.151
'0:07.137',1295.961
'0:07.141',1290.099
'0:07.145',1301.082
'0:07.148',1298.893
'0:07.152',1288.651
'0:07.156',1337.738
'0:07.160',1342.117
'0:07.164',1320.152
'0:07.168',1317.962
'0:07.172',1369.238
'0:07.176',1353.841
'0:07.180',1386.083
'0:07.184',1361.187
'0:07.188',1391.204
'0:07.191',1361.187
'0:07.195',1404.376
'0:07.199',1355.325
'0:07.203',1404.376
'0:07.207',1365.566
'0:07.211',1399.256
'0:07.215',1378.032
'0:07.219',1346.531
'0:07.223',1397.808
'0:07.227',1359.704
'0:07.230',1378.738
'0:07.234',1371.428
'0:07.238',1352.394
'0:07.242',1400.739
'0:07.246',1372.876
'0:07.250',1368.497
'0:07.254',1406.601
'0:07.258',1396.324
'0:07.262',1375.807
'0:07.266',1416.842
'0:07.270',1424.187
'0:07.273',1412.463
'0:07.277',1404.376
'0:07.281',1443.222
'0:07.285',1432.239
'0:07.289',1494.498
'0:07.293',1461.550
'0:07.297',1520.878
'0:07.301',1522.326
'0:07.305',1517.947
'0:07.309',1546.516
'0:07.313',1564.102
'0:07.316',1597.792
'0:07.320',1608.775
'0:07.324',1643.206
'0:07.328',1651.293
'0:07.332',1668.880
'0:07.336',1696.707
'0:07.340',1715.742
'0:07.344',1745.052
'0:07.348',1761.156
'0:07.352',1747.242
'0:07.355',1759.708
'0:07.359',1808.053
'0:07.363',1809.536
'0:07.367',1804.380
'0:07.371',1771.432
'0:07.375',1783.863
'0:07.379',1720.862
'0:07.383',1714.294
'0:07.387',1714.294
'0:07.391',1652.741
'0:07.395',1640.275
'0:07.398',1569.965
'0:07.402',1556.757
'0:07.406',1492.309
'0:07.410',1478.395
'0:07.414',1446.153
'0:07.418',1384.600
'0:07.422',1336.997
'0:07.426',1315.737
'0:07.430',1268.875
'0:07.434',1188.995
'0:07.438',1194.151
'0:07.441',1122.357
'0:07.445',1142.839
'0:07.449',1093.046
'0:07.453',1064.477
'0:07.457',1046.149
'0:07.461',1030.752
'0:07.465',1034.424
'0:07.469',1045.407
'0:07.473',1055.683
'0:07.477',1049.821
'0:07.480',1057.873
'0:07.484',1084.253
'0:07.488',1065.925
'0:07.492',1135.529
'0:07.496',1151.632
'0:07.500',1148.701
'0:07.504',1191.926
'0:07.508',1234.444
'0:07.512',1294.514
'0:07.516',1316.479
'0:07.520',1340.669
'0:07.523',1373.617
'0:07.527',1385.342
'0:07.531',1433.687
'0:07.535',1484.963
'0:07.539',1479.843
'0:07.543',1506.222
'0:07.547',1537.723
'0:07.551',1555.309
'0:07.555',1572.154
'0:07.559',1570.706
'0:07.563',1562.619
'0:07.566',1563.361
'0:07.570',1608.775
'0:07.574',1570.706
'0:07.578',1567.033
'0:07.582',1552.378
'0:07.586',1547.999
'0:07.590',1559.688
'0:07.594',1558.982
'0:07.598',1542.843
'0:07.602',1537.723
'0:07.605',1520.878
'0:07.609',1465.187
'0:07.613',1469.602
'0:07.617',1493.050
'0:07.621',1454.205
'0:07.625',1424.187
'0:07.629',1458.619
'0:07.633',1444.670
'0:07.637',1408.049
'0:07.641',1443.222
'0:07.645',1437.360
'0:07.648',1426.377
'0:07.652',1394.877
'0:07.656',1387.531
'0:07.660',1379.480
'0:07.664',1394.135
'0:07.668',1401.480
'0:07.672',1403.670
'0:07.676',1389.014
'0:07.680',1376.549
'0:07.684',1364.824
'0:07.688',1416.842
'0:07.691',1415.394
'0:07.695',1389.014
'0:07.699',1379.480
'0:07.703',1419.032
'0:07.707',1409.532
'0:07.711',1412.463
'0:07.715',1396.324
'0:07.719',1417.584
'0:07.723',1436.618
'0:07.727',1439.549
'0:07.730',1443.963
'0:07.734',1413.911
'0:07.738',1399.256
'0:07.742',1405.859
'0:07.746',1432.981
'0:07.750',1417.584
'0:07.754',1392.687
'0:07.758',1414.653
'0:07.762',1419.032
'0:07.766',1405.118
'0:07.770',1404.376
'0:07.773',1372.876
'0:07.777',1380.221
'0:07.781',1395.618
'0:07.785',1356.773
'0:07.789',1332.582
'0:07.793',1345.790
'0:07.797',1357.514
'0:07.801',1363.376
'0:07.805',1314.290
'0:07.809',1324.531
'0:07.813',1334.066
'0:07.816',1336.255
'0:07.820',1290.099
'0:07.824',1314.290
'0:07.828',1281.306
'0:07.832',1285.720
'0:07.836',1305.496
'0:07.840',1269.582
'0:07.844',1286.462
'0:07.848',1301.082
'0:07.852',1247.616
'0:07.855',1272.513
'0:07.859',1288.651
'0:07.863',1237.375
'0:07.867',1282.048
'0:07.871',1249.099
'0:07.875',1272.513
'0:07.879',1289.393
'0:07.883',1292.289
'0:07.887',1256.410
'0:07.891',1265.944
'0:07.895',1293.772
'0:07.898',1278.375
'0:07.902',1295.220
'0:07.906',1260.788
'0:07.910',1267.392
'0:07.914',1315.737
'0:07.918',1310.617
'0:07.922',1292.289
'0:07.926',1295.220
'0:07.930',1322.341
'0:07.934',1323.824
'0:07.938',1340.669
'0:07.941',1347.238
'0:07.945',1409.532
'0:07.949',1383.152
'0:07.953',1410.980
'0:07.957',1451.273
'0:07.961',1443.222
'0:07.965',1484.963
'0:07.969',1500.360
'0:07.973',1506.964
'0:07.977',1550.930
'0:07.980',1565.550
'0:07.984',1590.482
'0:07.988',1597.051
'0:07.992',1621.241
'0:07.996',1670.328
'0:08.000',1714.294
'0:08.004',1701.086
'0:08.008',1756.777
'0:08.012',1730.397
'0:08.016',1799.260
'0:08.020',1772.880
'0:08.023',1800.743
'0:08.027',1853.467
'0:08.031',1842.484
'0:08.035',1836.622
'0:08.039',1849.830
'0:08.043',1857.140
'0:08.047',1843.226
'0:08.051',1848.347
'0:08.055',1857.140
'0:08.059',1793.398
'0:08.063',1774.363
'0:08.066',1750.915
'0:08.070',1679.121
'0:08.074',1628.586
'0:08.078',1572.896
'0:08.082',1523.067
'0:08.086',1460.067
'0:08.090',1439.549
'0:08.094',1363.376
'0:08.098',1315.737
'0:08.102',1223.426
'0:08.105',1202.944
'0:08.109',1137.718
'0:08.113',1097.425
'0:08.117',1068.114
'0:08.121',1015.390
'0:08.125',962.630
'0:08.129',967.045
'0:08.133',925.268
'0:08.137',909.906
'0:08.141',931.130
'0:08.145',886.458
'0:08.148',939.923
'0:08.152',918.664
'0:08.156',915.733
'0:08.160',976.544
'0:08.164',1008.786
'0:08.168',1037.355
'0:08.172',1045.407
'0:08.176',1067.408
'0:08.180',1084.253
'0:08.184',1164.840
'0:08.188',1186.064
'0:08.191',1204.392
'0:08.195',1266.651
'0:08.199',1331.876
'0:08.203',1373.617
'0:08.207',1411.721
'0:08.211',1427.119
'0:08.215',1447.601
'0:08.219',1495.240
'0:08.223',1528.929
'0:08.227',1586.809
'0:08.230',1576.568
'0:08.234',1612.448
'0:08.238',1627.845
'0:08.242',1651.999
'0:08.246',1673.259
'0:08.250',1663.724
'0:08.254',1673.259
'0:08.258',1716.483
'0:08.262',1701.086
'0:08.266',1695.966
'0:08.270',1690.104
'0:08.273',1691.587
'0:08.277',1663.724
'0:08.281',1639.569
'0:08.285',1627.103
'0:08.289',1609.516
'0:08.293',1631.482
'0:08.297',1578.016
'0:08.301',1594.119
'0:08.305',1550.930
'0:08.309',1539.912
'0:08.313',1559.688
'0:08.316',1508.412
'0:08.320',1487.894
'0:08.324',1516.499
'0:08.328',1492.309
'0:08.332',1468.860
'0:08.336',1435.170
'0:08.340',1400.739
'0:08.344',1427.825
'0:08.348',1411.721
'0:08.352',1360.445
'0:08.355',1380.963
'0:08.359',1337.738
'0:08.363',1327.462
'0:08.367',1279.858
'0:08.371',1316.479
'0:08.375',1255.668
'0:08.379',1283.531
'0:08.383',1241.013
'0:08.387',1282.789
'0:08.391',1235.892
'0:08.395',1275.444
'0:08.398',1291.583
'0:08.402',1254.220
'0:08.406',1290.841
'0:08.410',1315.031
'0:08.414',1325.272
'0:08.418',1352.394
'0:08.422',1355.325
'0:08.426',1427.119
'0:08.430',1468.860
'0:08.434',1457.877
'0:08.438',1502.550
'0:08.441',1539.206
'0:08.445',1561.171
'0:08.449',1600.723
'0:08.453',1647.621
'0:08.457',1679.862
'0:08.461',1680.569
'0:08.465',1749.431
'0:08.469',1726.018
'0:08.473',1775.811
'0:08.477',1789.019
'0:08.480',1799.260
'0:08.484',1797.812
'0:08.488',1790.467
'0:08.492',1782.415
'0:08.496',1786.088
'0:08.500',1789.725
'0:08.504',1783.863
'0:08.508',1796.329
'0:08.512',1807.311
'0:08.516',1768.501
'0:08.520',1771.432
'0:08.523',1738.449
'0:08.527',1753.104
'0:08.531',1708.432
'0:08.535',1690.845
'0:08.539',1719.414
'0:08.543',1683.500
'0:08.547',1646.137
'0:08.551',1624.172
'0:08.555',1597.792
'0:08.559',1590.482
'0:08.563',1584.620
'0:08.566',1506.964
'0:08.570',1525.257
'0:08.574',1464.481
'0:08.578',1413.169
'0:08.582',1373.617
'0:08.586',1342.117
'0:08.590',1304.013
'0:08.594',1276.185
'0:08.598',1265.203
'0:08.602',1215.374
'0:08.605',1167.771
'0:08.609',1167.029
'0:08.613',1147.995
'0:08.617',1087.925
'0:08.621',1035.908
'0:08.625',1050.563
'0:08.629',986.821
'0:08.633',1008.786
'0:08.637',955.320
'0:08.641',978.769
'0:08.645',922.337
'0:08.648',965.562
'0:08.652',965.562
'0:08.656',969.234
'0:08.660',963.372
'0:08.664',964.114
'0:08.668',990.458
'0:08.672',995.614
'0:08.676',989.752
'0:08.680',1056.425
'0:08.684',1093.046
'0:08.688',1134.081
'0:08.691',1159.719
'0:08.695',1204.392
'0:08.699',1222.720
'0:08.703',1281.306
'0:08.707',1273.996
'0:08.711',1340.669
'0:08.715',1393.393
'0:08.719',1430.050
'0:08.723',1458.619
'0:08.727',1467.412
'0:08.730',1489.377
'0:08.734',1559.688
'0:08.738',1550.189
'0:08.742',1604.396
'0:08.746',1641.017
'0:08.750',1611.000
'0:08.754',1638.086
'0:08.758',1657.155
'0:08.762',1666.655
'0:08.766',1671.069
'0:08.770',1693.035
'0:08.773',1687.914
'0:08.777',1624.913
'0:08.781',1609.516
'0:08.785',1626.361
'0:08.789',1567.033
'0:08.793',1552.378
'0:08.797',1525.998
'0:08.801',1469.602
'0:08.805',1430.050
'0:08.809',1393.393
'0:08.813',1372.876
'0:08.816',1336.997
'0:08.820',1322.341
'0:08.824',1269.582
'0:08.828',1249.099
'0:08.832',1229.288
'0:08.836',1160.425
'0:08.840',1185.357
'0:08.844',1120.874
'0:08.848',1137.718
'0:08.852',1119.426
'0:08.855',1073.270
'0:08.859',1063.735
'0:08.863',1075.459
'0:08.867',1078.391
'0:08.871',1103.287
'0:08.875',1115.753
'0:08.879',1106.960
'0:08.883',1123.805
'0:08.887',1165.581
'0:08.891',1154.563
'0:08.895',1151.632
'0:08.898',1171.444
'0:08.902',1208.806
'0:08.906',1247.616
'0:08.910',1297.445
'0:08.914',1293.772
'0:08.918',1318.669
'0:08.922',1323.083
'0:08.926',1393.393
'0:08.930',1378.032
'0:08.934',1433.687
'0:08.938',1408.790
'0:08.941',1446.894
'0:08.945',1481.326
'0:08.949',1451.273
'0:08.953',1479.136
'0:08.957',1467.412
'0:08.961',1483.515
'0:08.965',1468.860
'0:08.969',1514.274
'0:08.973',1487.894
'0:08.977',1460.067
'0:08.980',1455.688
'0:08.984',1495.981
'0:08.988',1477.653
'0:08.992',1457.877
'0:08.996',1447.601
'0:09.000',1422.704
'0:09.004',1420.515
'0:09.008',1453.463
'0:09.012',1447.601
'0:09.016',1440.291
'0:09.020',1410.238
'0:09.023',1386.825
'0:09.027',1400.739
'0:09.031',1387.531
'0:09.035',1408.790
'0:09.039',1399.997
'0:09.043',1377.290
'0:09.047',1386.825
'0:09.051',1378.738
'0:09.055',1372.170
'0:09.059',1377.290
'0:09.063',1344.307
'0:09.066',1333.324
'0:09.070',1325.272
'0:09.074',1342.117
'0:09.078',1358.256
'0:09.082',1377.290
'0:09.086',1375.807
'0:09.090',1369.945
'0:09.094',1382.411
'0:09.098',1338.444
'0:09.102',1343.600
'0:09.105',1350.169
'0:09.109',1380.221
'0:09.113',1375.807
'0:09.117',1370.686
'0:09.121',1385.342
'0:09.125',1372.876
'0:09.129',1375.807
'0:09.133',1386.083
'0:09.137',1381.669
'0:09.141',1372.170
'0:09.145',1422.704
'0:09.148',1402.928
'0:09.152',1383.152
'0:09.156',1378.032
'0:09.160',1378.738
'0:09.164',1411.721
'0:09.168',1411.721
'0:09.172',1408.049
'0:09.176',1396.324
'0:09.180',1357.514
'0:09.184',1339.928
'0:09.188',1342.859
'0:09.191',1331.876
'0:09.195',1361.187
'0:09.199',1358.962
'0:09.203',1334.807
'0:09.207',1340.669
'0:09.211',1326.755
'0:09.215',1321.600
'0:09.219',1312.100
'0:09.223',1292.289
'0:09.227',1254.926
'0:09.230',1250.547
'0:09.234',1287.910
'0:09.238',1290.841
'0:09.242',1287.168
'0:09.246',1268.875
'0:09.250',1280.600
'0:09.254',1283.531
'0:09.258',1282.789
'0:09.262',1236.634
'0:09.266',1278.375
'0:09.270',1288.651
'0:09.273',1262.272
'0:09.277',1242.496
'0:09.281',1293.772
'0:09.285',1276.185
'0:09.289',1280.600
'0:09.293',1284.979
'0:09.297',1282.048
'0:09.301',1275.444
'0:09.305',1276.927
'0:09.309',1267.392
'0:09.313',1245.427
'0:09.316',1241.013
'0:09.320',1271.065
'0:09.324',1281.306
'0:09.328',1298.151
'0:09.332',1294.514
'0:09.336',1293.030
'0:09.340',1282.048
'0:09.344',1342.117
'0:09.348',1334.066
'0:09.352',1337.738
'0:09.355',1354.583
'0:09.359',1400.739
'0:09.363',1410.238
'0:09.367',1405.118
'0:09.371',1427.825
'0:09.375',1452.757
'0:09.379',1479.136
'0:09.383',1504.033
'0:09.387',1552.378
'0:09.391',1601.465
'0:09.395',1591.930
'0:09.398',1649.068
'0:09.402',1653.483
'0:09.406',1656.414
'0:09.410',1693.035
'0:09.414',1740.674
'0:09.418',1723.793
'0:09.422',1775.811
'0:09.426',1797.070
'0:09.430',1808.795
'0:09.434',1829.312
'0:09.438',1802.932
'0:09.441',1810.243
'0:09.445',1821.225
'0:09.449',1827.087
'0:09.453',1824.156
'0:09.457',1852.761
'0:09.461',1812.467
'0:09.465',1778.742
'0:09.469',1770.691
'0:09.473',1778.036
'0:09.477',1698.897
'0:09.480',1713.552
'0:09.484',1643.948
'0:09.488',1597.051
'0:09.492',1564.844
'0:09.496',1515.016
'0:09.500',1445.411
'0:09.504',1436.618
'0:09.508',1361.893
'0:09.512',1299.634
'0:09.516',1259.341
'0:09.520',1232.219
'0:09.523',1151.632
'0:09.527',1154.563
'0:09.531',1104.029
'0:09.535',1071.045
'0:09.539',1081.322
'0:09.543',1043.959
'0:09.547',1029.304
'0:09.551',1000.735
'0:09.555',989.010
'0:09.559',993.389
'0:09.563',1037.355
'0:09.566',1023.442
'0:09.570',1013.907
'0:09.574',1073.270
'0:09.578',1077.649
'0:09.582',1075.459
'0:09.586',1088.632
'0:09.590',1133.339
'0:09.594',1182.426
'0:09.598',1218.305
'0:09.602',1246.875
'0:09.605',1268.134
'0:09.609',1337.738
'0:09.613',1329.651
'0:09.617',1410.238
'0:09.621',1442.480
'0:09.625',1478.395
'0:09.629',1512.826
'0:09.633',1516.499
'0:09.637',1533.344
'0:09.641',1570.706
'0:09.645',1619.793
'0:09.648',1586.809
'0:09.652',1607.327
'0:09.656',1624.172
'0:09.660',1660.793
'0:09.664',1635.896
'0:09.668',1651.293
'0:09.672',1669.586
'0:09.676',1662.276
'0:09.680',1636.638
'0:09.684',1650.552
'0:09.688',1666.655
'0:09.691',1609.516
'0:09.695',1632.965
'0:09.699',1631.482
'0:09.703',1580.206
'0:09.707',1603.654
'0:09.711',1551.636
'0:09.715',1529.671
'0:09.719',1519.395
'0:09.723',1527.482
'0:09.727',1474.722
'0:09.730',1477.653
'0:09.734',1488.636
'0:09.738',1421.256
'0:09.742',1421.256
'0:09.746',1441.032
'0:09.750',1378.032
'0:09.754',1413.911
'0:09.758',1390.462
'0:09.762',1358.256
'0:09.766',1359.704
'0:09.770',1361.187
'0:09.773',1343.600
'0:09.777',1315.031
'0:09.781',1287.168
'0:09.785',1289.393
'0:09.789',1300.376
'0:09.793',1290.841
'0:09.797',1272.513
'0:09.801',1249.806
'0:09.805',1244.685
'0:09.809',1231.513
'0:09.813',1231.513
'0:09.816',1252.737
'0:09.820',1268.875
'0:09.824',1263.013
'0:09.828',1253.478
'0:09.832',1257.857
'0:09.836',1258.599
'0:09.840',1235.150
'0:09.844',1261.530
'0:09.848',1263.720
'0:09.852',1260.788
'0:09.855',1267.392
'0:09.859',1260.082
'0:09.863',1224.168
'0:09.867',1225.651
'0:09.871',1230.030
'0:09.875',1235.150
'0:09.879',1258.599
'0:09.883',1277.669
'0:09.887',1284.979
'0:09.891',1280.600
'0:09.895',1291.583
'0:09.898',1276.927
'0:09.902',1291.583
'0:09.906',1298.151
'0:09.910',1298.893
'0:09.914',1301.082
'0:09.918',1303.307
'0:09.922',1284.979
'0:09.926',1282.789
'0:09.930',1268.134
'0:09.934',1286.462
'0:09.938',1331.876
'0:09.941',1315.031
'0:09.945',1304.755
'0:09.949',1295.220
'0:09.953',1293.772
'0:09.957',1325.272
'0:09.961',1340.669
'0:09.965',1323.083
'0:09.969',1289.393
'0:09.973',1333.324
'0:09.977',1288.651
'0:09.980',1295.961
'0:09.984',1318.669
'0:09.988',1286.462
'0:09.992',1274.738
'0:09.996',1321.600
'0:10.000',1282.048
'0:10.004',1335.513
'0:10.008',1298.893
'0:10.012',1335.513
'0:10.016',1312.806
'0:10.020',1333.324
'0:10.023',1386.083
'0:10.027',1353.100
'0:10.031',1386.825
'0:10.035',1425.635
'0:10.039',1456.394
'0:10.043',1489.377
'0:10.047',1489.377
'0:10.051',1506.964
'0:10.055',1590.482
'0:10.059',1585.362
'0:10.063',1648.362
'0:10.066',1690.845
'0:10.070',1696.707
'0:10.074',1736.259
'0:10.078',1810.243
'0:10.082',1810.984
'0:10.086',1872.537
'0:10.090',1873.985
'0:10.094',1895.985
'0:10.098',1922.330
'0:10.102',1942.106
'0:10.105',1958.986
'0:10.109',1964.107
'0:10.113',1956.761
'0:10.117',1946.520
'0:10.121',1934.054
'0:10.125',1924.555
'0:10.129',1922.330
'0:10.133',1850.536
'0:10.137',1804.380
'0:10.141',1775.105
'0:10.145',1713.552
'0:10.148',1668.880
'0:10.152',1647.621
'0:10.156',1564.102
'0:10.160',1490.119
'0:10.164',1432.981
'0:10.168',1400.739
'0:10.172',1359.704
'0:10.176',1306.238
'0:10.180',1251.289
'0:10.184',1200.719
'0:10.188',1188.288
'0:10.191',1114.270
'0:10.195',1112.822
'0:10.199',1045.407
'0:10.203',1073.270
'0:10.207',1044.701
'0:10.211',1035.908
'0:10.215',1022.700
'0:10.219',1025.631
'0:10.223',1005.113
'0:10.227',1040.286
'0:10.230',1064.477
'0:10.234',1101.098
'0:10.238',1088.632
'0:10.242',1153.115
'0:10.246',1183.874
'0:10.250',1219.047
'0:10.254',1243.944
'0:10.258',1251.995
'0:10.262',1298.151
'0:10.266',1356.773
'0:10.270',1360.445
'0:10.273',1403.670
'0:10.277',1469.602
'0:10.281',1495.240
'0:10.285',1479.136
'0:10.289',1515.757
'0:10.293',1534.050
'0:10.297',1553.861
'0:10.301',1558.240
'0:10.305',1619.793
'0:10.309',1628.586
'0:10.313',1622.724
'0:10.316',1613.189
'0:10.320',1588.293
'0:10.324',1633.707
'0:10.328',1603.654
'0:10.332',1591.224
'0:10.336',1595.603
'0:10.340',1599.275
'0:10.344',1578.016
'0:10.348',1608.069
'0:10.352',1596.344
'0:10.355',1596.344
'0:10.359',1580.206
'0:10.363',1580.206
'0:10.367',1590.482
'0:10.371',1584.620
'0:10.375',1572.154
'0:10.379',1560.430
'0:10.383',1578.016
'0:10.387',1563.361
'0:10.391',1540.654
'0:10.395',1558.240
'0:10.398',1594.861
'0:10.402',1596.344
'0:10.406',1585.362
'0:10.410',1596.344
'0:10.414',1605.138
'0:10.418',1561.171
'0:10.422',1561.171
'0:10.426',1594.119
'0:10.430',1605.844
'0:10.434',1586.809
'0:10.438',1571.412
'0:10.441',1623.430
'0:10.445',1588.293
'0:10.449',1607.327
'0:10.453',1628.586
'0:10.457',1587.551
'0:10.461',1628.586
'0:10.465',1578.758
'0:10.469',1590.482
'0:10.473',1595.603
'0:10.477',1586.068
'0:10.480',1575.827
'0:10.484',1554.568
'0:10.488',1578.758
'0:10.492',1569.965
'0:10.496',1556.051
'0:10.500',1536.981
'0:10.504',1523.809
'0:10.508',1504.033
'0:10.512',1493.756
'0:10.516',1461.550
'0:10.520',1422.704
'0:10.523',1421.256
'0:10.527',1375.101
'0:10.531',1390.462
'0:10.535',1348.721
'0:10.539',1324.531
'0:10.543',1349.463
'0:10.547',1328.945
'0:10.551',1323.083
'0:10.555',1295.220
'0:10.559',1279.117
'0:10.563',1268.134
'0:10.566',1284.979
'0:10.570',1274.738
'0:10.574',1271.065
'0:10.578',1245.427
'0:10.582',1250.547
'0:10.586',1235.892
'0:10.590',1235.150
'0:10.594',1232.219
'0:10.598',1186.805
'0:10.602',1211.737
'0:10.605',1158.236
'0:10.609',1186.805
'0:10.613',1153.115
'0:10.617',1167.029
'0:10.621',1124.546
'0:10.625',1098.166
'0:10.629',1127.477
'0:10.633',1102.545
'0:10.637',1063.735
'0:10.641',1062.994
'0:10.645',1094.494
'0:10.648',1079.132
'0:10.652',1062.287
'0:10.656',1069.597
'0:10.660',1052.752
'0:10.664',1103.287
'0:10.668',1112.822
'0:10.672',1117.942
'0:10.676',1149.443
'0:10.680',1146.512
'0:10.684',1205.133
'0:10.688',1219.047
'0:10.691',1273.996
'0:10.695',1289.393
'0:10.699',1302.565
'0:10.703',1383.894
'0:10.707',1378.738
'0:10.711',1458.619
'0:10.715',1501.843
'0:10.719',1551.636
'0:10.723',1588.999
'0:10.727',1608.775
'0:10.730',1624.172
'0:10.734',1646.137
'0:10.738',1673.259
'0:10.742',1688.656
'0:10.746',1710.621
'0:10.750',1734.811
'0:10.754',1741.380
'0:10.758',1719.414
'0:10.762',1709.138
'0:10.766',1683.500
'0:10.770',1677.638
'0:10.773',1633.707
'0:10.777',1650.552
'0:10.781',1585.362
'0:10.785',1539.912
'0:10.789',1501.843
'0:10.793',1473.274
'0:10.797',1430.756
'0:10.801',1429.308
'0:10.805',1355.325
'0:10.809',1369.238
'0:10.813',1317.962
'0:10.816',1285.720
'0:10.820',1259.341
'0:10.824',1254.220
'0:10.828',1191.219
'0:10.832',1163.357
'0:10.836',1200.719
'0:10.840',1160.425
'0:10.844',1174.375
'0:10.848',1158.978
'0:10.852',1139.202
'0:10.855',1168.512
'0:10.859',1192.667
'0:10.863',1177.270
'0:10.867',1221.237
'0:10.871',1222.720
'0:10.875',1209.512
'0:10.879',1252.737
'0:10.883',1291.583
'0:10.887',1328.203
'0:10.891',1352.394
'0:10.895',1381.669
'0:10.898',1383.152
'0:10.902',1395.618
'0:10.906',1445.411
'0:10.910',1487.188
'0:10.914',1506.222
'0:10.918',1512.085
'0:10.922',1567.775
'0:10.926',1558.240
'0:10.930',1583.878
'0:10.934',1614.637
'0:10.938',1606.585
'0:10.941',1651.999
'0:10.945',1621.241
'0:10.949',1650.552
'0:10.953',1646.137
'0:10.957',1676.931
'0:10.961',1640.275
'0:10.965',1684.241
'0:10.969',1632.224
'0:10.973',1646.879
'0:10.977',1638.827
'0:10.980',1608.775
'0:10.984',1639.569
'0:10.988',1619.051
'0:10.992',1569.223
'0:10.996',1592.672
'0:11.000',1564.102
'0:11.004',1521.619
'0:11.008',1501.843
'0:11.012',1492.309
'0:11.016',1476.912
'0:11.020',1476.205
'0:11.023',1484.963
'0:11.027',1427.825
'0:11.031',1405.118
'0:11.035',1428.566
'0:11.039',1416.842
'0:11.043',1399.256
'0:11.047',1365.566
'0:11.051',1353.100
'0:11.055',1334.807
'0:11.059',1328.203
'0:11.063',1359.704
'0:11.066',1342.117
'0:11.070',1323.083
'0:11.074',1309.169
'0:11.078',1284.237
'0:11.082',1325.272
'0:11.086',1322.341
'0:11.090',1290.099
'0:11.094',1279.858
'0:11.098',1262.272
'0:11.102',1249.099
'0:11.105',1249.099
'0:11.109',1282.789
'0:11.113',1286.462
'0:11.117',1281.306
'0:11.121',1261.530
'0:11.125',1221.237
'0:11.129',1237.375
'0:11.133',1254.926
'0:11.137',1246.875
'0:11.141',1218.305
'0:11.145',1250.547
'0:11.148',1247.616
'0:11.152',1237.375
'0:11.156',1256.410
'0:11.160',1254.926
'0:11.164',1279.117
'0:11.168',1271.807
'0:11.172',1280.600
'0:11.176',1292.289
'0:11.180',1294.514
'0:11.184',1278.375
'0:11.188',1331.134
'0:11.191',1306.944
'0:11.195',1345.048
'0:11.199',1312.806
'0:11.203',1360.445
'0:11.207',1328.945
'0:11.211',1381.669
'0:11.215',1344.307
'0:11.219',1396.324
'0:11.223',1410.238
'0:11.227',1372.876
'0:11.230',1379.480
'0:11.234',1386.083
'0:11.238',1439.549
'0:11.242',1397.808
'0:11.246',1443.963
'0:11.250',1390.462
'0:11.254',1394.877
'0:11.258',1430.050
'0:11.262',1423.446
'0:11.266',1412.463
'0:11.270',1391.946
'0:11.273',1372.170
'0:11.277',1356.773
'0:11.281',1301.082
'0:11.285',1298.151
'0:11.289',1300.376
'0:11.293',1264.461
'0:11.297',1202.202
'0:11.301',1217.564
'0:11.305',1158.236
'0:11.309',1172.891
'0:11.313',1148.701
'0:11.316',1134.787
'0:11.320',1087.925
'0:11.324',1083.511
'0:11.328',1076.201
'0:11.332',1060.062
'0:11.336',1046.890
'0:11.340',1020.511
'0:11.344',1028.562
'0:11.348',1023.442
'0:11.352',1046.890
'0:11.355',1101.839
'0:11.359',1114.270
'0:11.363',1102.545
'0:11.367',1177.270
'0:11.371',1197.082
'0:11.375',1241.013
'0:11.379',1269.582
'0:11.383',1329.651
'0:11.387',1421.963
'0:11.391',1427.119
'0:11.395',1476.205
'0:11.398',1526.740
'0:11.402',1581.689
'0:11.406',1650.552
'0:11.410',1657.862
'0:11.414',1710.621
'0:11.418',1731.880
'0:11.422',1725.277
'0:11.426',1769.243
'0:11.430',1729.655
'0:11.434',1758.966
'0:11.438',1711.363
'0:11.441',1676.190
'0:11.445',1690.845
'0:11.449',1611.000
'0:11.453',1576.568
'0:11.457',1529.671
'0:11.461',1494.498
'0:11.465',1462.998
'0:11.469',1401.480
'0:11.473',1350.169
'0:11.477',1317.962
'0:11.480',1243.944
'0:11.484',1194.151
'0:11.488',1188.288
'0:11.492',1115.011
'0:11.496',1123.063
'0:11.500',1094.494
'0:11.504',1059.356
'0:11.508',1056.425
'0:11.512',1041.770
'0:11.516',1027.821
'0:11.520',1038.839
'0:11.523',1038.097
'0:11.527',1059.356
'0:11.531',1059.356
'0:11.535',1068.856
'0:11.539',1120.132
'0:11.543',1170.702
'0:11.547',1197.082
'0:11.551',1228.582
'0:11.555',1293.030
'0:11.559',1349.463
'0:11.563',1420.515
'0:11.566',1484.963
'0:11.570',1533.344
'0:11.574',1573.637
'0:11.578',1616.120
'0:11.582',1682.052
'0:11.586',1742.863
'0:11.590',1769.243
'0:11.594',1806.605
'0:11.598',1830.760
'0:11.602',1878.399
'0:11.605',1919.399
'0:11.609',1922.330
'0:11.613',1938.468
'0:11.617',1961.176
'0:11.621',1945.779
'0:11.625',1967.779
'0:11.629',1947.968
'0:11.633',1950.193
'0:11.637',1912.089
'0:11.641',1892.313
'0:11.645',1868.864
'0:11.648',1845.416
'0:11.652',1815.398
'0:11.656',1785.346
'0:11.660',1758.966
'0:11.664',1748.725
'0:11.668',1706.948
'0:11.672',1667.396
'0:11.676',1666.655
'0:11.680',1599.275
'0:11.684',1600.723
'0:11.688',1558.982
'0:11.691',1551.636
'0:11.695',1492.309
'0:11.699',1478.395
'0:11.703',1470.343
'0:11.707',1470.343
'0:11.711',1465.187
'0:11.715',1413.911
'0:11.719',1438.101
'0:11.723',1383.152
'0:11.727',1416.100
'0:11.730',1381.669
'0:11.734',1370.686
'0:11.738',1407.307
'0:11.742',1356.773
'0:11.746',1409.532
'0:11.750',1378.032
'0:11.754',1402.187
'0:11.758',1396.324
'0:11.762',1376.549
'0:11.766',1402.187
'0:11.770',1399.997
'0:11.773',1391.204
'0:11.777',1397.066
'0:11.781',1390.462
'0:11.785',1433.687
'0:11.789',1405.859
'0:11.793',1429.308
'0:11.797',1447.601
'0:11.801',1455.688
'0:11.805',1450.532
'0:11.809',1449.826
'0:11.813',1434.429
'0:11.816',1422.704
'0:11.820',1410.238
'0:11.824',1420.515
'0:11.828',1433.687
'0:11.832',1377.290
'0:11.836',1399.256
'0:11.840',1383.894
'0:11.844',1375.807
'0:11.848',1342.859
'0:11.852',1364.824
'0:11.855',1339.186
'0:11.859',1313.548
'0:11.863',1323.824
'0:11.867',1345.790
'0:11.871',1335.513
'0:11.875',1304.755
'0:11.879',1274.738
'0:11.883',1261.530
'0:11.887',1251.995
'0:11.891',1238.081
'0:11.895',1223.426
'0:11.898',1219.047
'0:11.902',1221.237
'0:11.906',1179.495
'0:11.910',1191.219
'0:11.914',1148.701
'0:11.918',1181.685
'0:11.922',1121.615
'0:11.926',1158.236
'0:11.930',1098.166
'0:11.934',1138.460
'0:11.938',1115.011
'0:11.941',1119.426
'0:11.945',1095.977
'0:11.949',1079.838
'0:11.953',1118.684
'0:11.957',1091.563
'0:11.961',1135.529
'0:11.965',1166.288
'0:11.969',1139.908
'0:11.973',1191.926
'0:11.977',1238.081
'0:11.980',1246.168
'0:11.984',1293.030
'0:11.988',1303.307
'0:11.992',1306.238
'0:11.996',1384.600
'0:12.000',1383.152
'0:12.004',1447.601
'0:12.008',1480.584
'0:12.012',1469.602
'0:12.016',1520.878
'0:12.020',1545.068
'0:12.023',1565.550
'0:12.027',1577.275
'0:12.031',1621.982
'0:12.035',1663.018
'0:12.039',1630.034
'0:12.043',1683.500
'0:12.047',1649.068
'0:12.051',1644.689
'0:12.055',1633.707
'0:12.059',1619.051
'0:12.063',1627.103
'0:12.066',1594.119
'0:12.070',1511.343
'0:12.074',1489.377
'0:12.078',1428.566
'0:12.082',1407.307
'0:12.086',1361.893
'0:12.090',1309.169
'0:12.094',1209.512
'0:12.098',1212.443
'0:12.102',1131.856
'0:12.105',1077.649
'0:12.109',1094.494
'0:12.113',1062.994
'0:12.117',1032.235
'0:12.121',988.269
'0:12.125',978.027
'0:12.129',947.269
'0:12.133',957.510
'0:12.137',971.424
'0:12.141',952.389
'0:12.145',963.372
'0:12.148',929.682
'0:12.152',941.407
'0:12.156',976.544
'0:12.160',1018.321
'0:12.164',1019.063
'0:12.168',1040.286
'0:12.172',1076.907
'0:12.176',1105.477
'0:12.180',1093.046
'0:12.184',1165.581
'0:12.188',1210.254
'0:12.191',1245.427
'0:12.195',1280.600
'0:12.199',1300.376
'0:12.203',1306.238
'0:12.207',1387.531
'0:12.211',1380.963
'0:12.215',1397.066
'0:12.219',1421.963
'0:12.223',1459.325
'0:12.227',1478.395
'0:12.230',1486.446
'0:12.234',1492.309
'0:12.238',1528.929
'0:12.242',1560.430
'0:12.246',1565.550
'0:12.250',1551.636
'0:12.254',1569.223
'0:12.258',1558.240
'0:12.262',1570.706
'0:12.266',1558.982
'0:12.270',1584.620
'0:12.273',1580.947
'0:12.277',1562.619
'0:12.281',1536.981
'0:12.285',1520.136
'0:12.289',1523.067
'0:12.293',1502.550
'0:12.297',1530.413
'0:12.301',1501.843
'0:12.305',1471.791
'0:12.309',1484.963
'0:12.313',1484.257
'0:12.316',1473.274
'0:12.320',1472.533
'0:12.324',1469.602
'0:12.328',1485.705
'0:12.332',1437.360
'0:12.336',1429.308
'0:12.340',1460.067
'0:12.344',1430.756
'0:12.348',1443.222
'0:12.352',1451.273
'0:12.355',1423.446
'0:12.359',1422.704
'0:12.363',1420.515
'0:12.367',1424.187
'0:12.371',1421.963
'0:12.375',1421.256
'0:12.379',1448.342
'0:12.383',1440.291
'0:12.387',1476.205
'0:12.391',1473.274
'0:12.395',1457.877
'0:12.398',1441.739
'0:12.402',1438.101
'0:12.406',1441.032
'0:12.410',1430.050
'0:12.414',1426.377
'0:12.418',1422.704
'0:12.422',1434.429
'0:12.426',1457.136
'0:12.430',1440.291
'0:12.434',1432.981
'0:12.438',1430.050
'0:12.441',1430.050
'0:12.445',1426.377
'0:12.449',1427.119
'0:12.453',1424.894
'0:12.457',1399.256
'0:12.461',1375.101
'0:12.465',1381.669
'0:12.469',1397.066
'0:12.473',1394.877
'0:12.477',1414.653
'0:12.480',1394.877
'0:12.484',1392.687
'0:12.488',1413.911
'0:12.492',1440.291
'0:12.496',1408.049
'0:12.500',1394.135
'0:12.504',1414.653
'0:12.508',1434.429
'0:12.512',1424.187
'0:12.516',1446.153
'0:12.520',1397.808
'0:12.523',1424.187
'0:12.527',1419.773
'0:12.531',1417.584
'0:12.535',1428.566
'0:12.539',1391.946
'0:12.543',1435.912
'0:12.547',1382.411
'0:12.551',1405.859
'0:12.555',1352.394
'0:12.559',1391.204
'0:12.563',1358.962
'0:12.566',1341.376
'0:12.570',1299.634
'0:12.574',1292.289
'0:12.578',1301.824
'0:12.582',1287.910
'0:12.586',1279.858
'0:12.590',1255.668
'0:12.594',1242.496
'0:12.598',1222.720
'0:12.602',1220.495
'0:12.605',1191.219
'0:12.609',1172.150
'0:12.613',1202.202
'0:12.617',1217.564
'0:12.621',1188.288
'0:12.625',1223.426
'0:12.629',1195.598
'0:12.633',1204.392
'0:12.637',1239.565
'0:12.641',1271.807
'0:12.645',1295.961
'0:12.648',1305.496
'0:12.652',1347.238
'0:12.656',1352.394
'0:12.660',1380.963
'0:12.664',1409.532
'0:12.668',1481.326
'0:12.672',1468.118
'0:12.676',1513.568
'0:12.680',1583.137
'0:12.684',1605.844
'0:12.688',1619.793
'0:12.691',1666.655
'0:12.695',1723.087
'0:12.699',1706.948
'0:12.703',1761.156
'0:12.707',1748.725
'0:12.711',1743.605
'0:12.715',1746.500
'0:12.719',1737.742
'0:12.723',1739.932
'0:12.727',1750.173
'0:12.730',1679.121
'0:12.734',1675.448
'0:12.738',1612.448
'0:12.742',1567.033
'0:12.746',1523.809
'0:12.750',1495.981
'0:12.754',1434.429
'0:12.758',1388.273
'0:12.762',1364.824
'0:12.766',1346.531
'0:12.770',1282.789
'0:12.773',1219.789
'0:12.777',1215.374
'0:12.781',1168.512
'0:12.785',1161.909
'0:12.789',1099.650
'0:12.793',1100.356
'0:12.797',1109.149
'0:12.801',1088.632
'0:12.805',1076.907
'0:12.809',1046.890
'0:12.813',1090.856
'0:12.816',1081.322
'0:12.820',1068.114
'0:12.824',1123.063
'0:12.828',1091.563
'0:12.832',1166.288
'0:12.836',1161.167
'0:12.840',1212.443
'0:12.844',1254.220
'0:12.848',1276.185
'0:12.852',1290.099
'0:12.855',1339.928
'0:12.859',1352.394
'0:12.863',1394.135
'0:12.867',1438.101
'0:12.871',1463.739
'0:12.875',1468.860
'0:12.879',1497.429
'0:12.883',1548.705
'0:12.887',1527.482
'0:12.891',1569.965
'0:12.895',1569.965
'0:12.898',1608.775
'0:12.902',1585.362
'0:12.906',1583.878
'0:12.910',1592.672
'0:12.914',1621.241
'0:12.918',1601.465
'0:12.922',1570.706
'0:12.926',1553.120
'0:12.930',1544.326
'0:12.934',1550.189
'0:12.938',1572.896
'0:12.941',1558.982
'0:12.945',1549.447
'0:12.949',1535.533
'0:12.953',1522.326
'0:12.957',1476.912
'0:12.961',1444.670
'0:12.965',1452.757
'0:12.969',1457.136
'0:12.973',1469.602
'0:12.977',1411.721
'0:12.980',1424.187
'0:12.984',1435.912
'0:12.988',1391.946
'0:12.992',1391.946
'0:12.996',1416.842
'0:13.000',1389.756
'0:13.004',1356.031
'0:13.008',1402.928
'0:13.012',1364.824
'0:13.016',1380.963
'0:13.020',1366.307
'0:13.023',1391.946
'0:13.027',1370.686
'0:13.031',1346.531
'0:13.035',1399.997
'0:13.039',1386.083
'0:13.043',1372.170
'0:13.047',1370.686
'0:13.051',1366.307
'0:13.055',1386.083
'0:13.059',1402.928
'0:13.063',1433.687
'0:13.066',1387.531
'0:13.070',1406.601
'0:13.074',1438.843
'0:13.078',1404.376
'0:13.082',1445.411
'0:13.086',1465.929
'0:13.090',1438.101
'0:13.094',1428.566
'0:13.098',1444.670
'0:13.102',1476.205
'0:13.105',1463.739
'0:13.109',1439.549
'0:13.113',1451.273
'0:13.117',1468.118
'0:13.121',1487.188
'0:13.125',1470.343
'0:13.129',1440.291
'0:13.133',1466.670
'0:13.137',1429.308
'0:13.141',1451.273
'0:13.145',1433.687
'0:13.148',1435.912
'0:13.152',1455.688
'0:13.156',1402.187
'0:13.160',1408.049
'0:13.164',1419.773
'0:13.168',1396.324
'0:13.172',1399.256
'0:13.176',1412.463
'0:13.180',1354.583
'0:13.184',1347.238
'0:13.188',1378.032
'0:13.191',1322.341
'0:13.195',1334.066
'0:13.199',1319.410
'0:13.203',1300.376
'0:13.207',1277.669
'0:13.211',1288.651
'0:13.215',1247.616
'0:13.219',1282.789
'0:13.223',1243.237
'0:13.227',1264.461
'0:13.230',1256.410
'0:13.234',1219.789
'0:13.238',1232.219
'0:13.242',1282.048
'0:13.246',1278.375
'0:13.250',1258.599
'0:13.254',1307.686
'0:13.258',1288.651
'0:13.262',1330.393
'0:13.266',1354.583
'0:13.270',1348.721
'0:13.273',1402.928
'0:13.277',1435.912
'0:13.281',1446.894
'0:13.285',1449.084
'0:13.289',1517.205
'0:13.293',1502.550
'0:13.297',1560.430
'0:13.301',1575.085
'0:13.305',1624.172
'0:13.309',1675.448
'0:13.313',1674.000
'0:13.316',1692.293
'0:13.320',1722.345
'0:13.324',1741.380
'0:13.328',1758.225
'0:13.332',1778.742
'0:13.336',1784.604
'0:13.340',1780.967
'0:13.344',1769.949
'0:13.348',1800.001
'0:13.352',1756.035
'0:13.355',1719.414
'0:13.359',1684.983
'0:13.363',1671.069
'0:13.367',1576.568
'0:13.371',1566.292
'0:13.375',1482.032
'0:13.379',1408.790
'0:13.383',1349.463
'0:13.387',1306.944
'0:13.391',1253.478
'0:13.395',1201.461
'0:13.398',1173.633
'0:13.402',1093.788
'0:13.406',1068.856
'0:13.410',1031.493
'0:13.414',989.752
'0:13.418',945.044
'0:13.422',931.872
'0:13.426',943.596
'0:13.430',939.923
'0:13.434',899.630
'0:13.438',879.112
'0:13.441',909.906
'0:13.445',943.596
'0:13.449',954.579
'0:13.453',950.906
'0:13.457',942.113
'0:13.461',995.614
'0:13.465',1007.338
'0:13.469',1062.287
'0:13.473',1049.080
'0:13.477',1096.719
'0:13.480',1151.632
'0:13.484',1180.201
'0:13.488',1219.789
'0:13.492',1254.220
'0:13.496',1284.979
'0:13.500',1284.237
'0:13.504',1368.497
'0:13.508',1400.739
'0:13.512',1413.169
'0:13.516',1426.377
'0:13.520',1495.240
'0:13.523',1525.998
'0:13.527',1556.051
'0:13.531',1557.499
'0:13.535',1556.757
'0:13.539',1586.809
'0:13.543',1619.793
'0:13.547',1583.878
'0:13.551',1617.568
'0:13.555',1636.638
'0:13.559',1598.534
'0:13.563',1615.379
'0:13.566',1593.413
'0:13.570',1637.344
'0:13.574',1629.292
'0:13.578',1597.051
'0:13.582',1590.482
'0:13.586',1632.965
'0:13.590',1602.913
'0:13.594',1583.137
'0:13.598',1572.154
'0:13.602',1574.344
'0:13.605',1593.413
'0:13.609',1602.913
'0:13.613',1594.861
'0:13.617',1556.757
'0:13.621',1537.723
'0:13.625',1520.136
'0:13.629',1508.412
'0:13.633',1494.498
'0:13.637',1480.584
'0:13.641',1486.446
'0:13.645',1468.118
'0:13.648',1452.757
'0:13.652',1408.049
'0:13.656',1419.773
'0:13.660',1356.031
'0:13.664',1363.376
'0:13.668',1313.548
'0:13.672',1332.582
'0:13.676',1280.600
'0:13.680',1252.737
'0:13.684',1227.840
'0:13.688',1224.168
'0:13.691',1232.219
'0:13.695',1212.443
'0:13.699',1148.701
'0:13.703',1170.702
'0:13.707',1116.495
'0:13.711',1148.701
'0:13.715',1097.425
'0:13.719',1091.563
'0:13.723',1121.615
'0:13.727',1104.029
'0:13.730',1056.425
'0:13.734',1102.545
'0:13.738',1073.976
'0:13.742',1044.701
'0:13.746',1092.304
'0:13.750',1065.183
'0:13.754',1033.683
'0:13.758',1086.442
'0:13.762',1053.494
'0:13.766',1083.511
'0:13.770',1065.183
'0:13.773',1093.788
'0:13.777',1094.494
'0:13.781',1084.994
'0:13.785',1121.615
'0:13.789',1150.184
'0:13.793',1119.426
'0:13.797',1123.805
'0:13.801',1149.443
'0:13.805',1173.633
'0:13.809',1198.530
'0:13.813',1219.047
'0:13.816',1227.840
'0:13.820',1243.237
'0:13.824',1252.737
'0:13.828',1258.599
'0:13.832',1268.134
'0:13.836',1269.582
'0:13.840',1257.151
'0:13.844',1242.496
'0:13.848',1291.583
'0:13.852',1307.686
'0:13.855',1296.703
'0:13.859',1276.927
'0:13.863',1326.014
'0:13.867',1331.876
'0:13.871',1322.341
'0:13.875',1359.704
'0:13.879',1361.893
'0:13.883',1411.721
'0:13.887',1456.394
'0:13.891',1453.463
'0:13.895',1464.481
'0:13.898',1495.981
'0:13.902',1536.981
'0:13.906',1605.844
'0:13.910',1635.896
'0:13.914',1624.913
'0:13.918',1668.138
'0:13.922',1683.500
'0:13.926',1702.569
'0:13.930',1711.363
'0:13.934',1737.742
'0:13.938',1715.742
'0:13.941',1702.569
'0:13.945',1720.156
'0:13.949',1665.949
'0:13.953',1656.414
'0:13.957',1640.275
'0:13.961',1591.930
'0:13.965',1540.654
'0:13.969',1503.291
'0:13.973',1468.118
'0:13.977',1401.480
'0:13.980',1340.669
'0:13.984',1301.824
'0:13.988',1276.185
'0:13.992',1256.410
'0:13.996',1179.495
'0:14.000',1187.547
'0:14.004',1114.270
'0:14.008',1135.529
'0:14.012',1081.322
'0:14.016',1043.959
'0:14.020',1051.269
'0:14.023',1073.976
'0:14.027',1073.976
'0:14.031',1063.735
'0:14.035',1068.114
'0:14.039',1084.994
'0:14.043',1084.253
'0:14.047',1148.701
'0:14.051',1159.719
'0:14.055',1183.874
'0:14.059',1254.926
'0:14.063',1307.686
'0:14.066',1315.031
'0:14.070',1394.877
'0:14.074',1418.325
'0:14.078',1471.049
'0:14.082',1489.377
'0:14.086',1527.482
'0:14.090',1575.085
'0:14.094',1645.431
'0:14.098',1661.534
'0:14.102',1676.190
'0:14.105',1709.880
'0:14.109',1736.259
'0:14.113',1761.897
'0:14.117',1790.467
'0:14.121',1843.226
'0:14.125',1819.777
'0:14.129',1816.105
'0:14.133',1832.950
'0:14.137',1817.588
'0:14.141',1808.795
'0:14.145',1813.915
'0:14.148',1795.587
'0:14.152',1780.225
'0:14.156',1765.570
'0:14.160',1755.294
'0:14.164',1728.949
'0:14.168',1747.984
'0:14.172',1732.587
'0:14.176',1663.724
'0:14.180',1684.983
'0:14.184',1624.913
'0:14.188',1622.724
'0:14.191',1594.119
'0:14.195',1589.741
'0:14.199',1551.636
'0:14.203',1523.809
'0:14.207',1504.774
'0:14.211',1523.809
'0:14.215',1457.877
'0:14.219',1465.929
'0:14.223',1454.205
'0:14.227',1438.843
'0:14.230',1410.980
'0:14.234',1430.756
'0:14.238',1398.549
'0:14.242',1450.532
'0:14.246',1399.997
'0:14.250',1453.463
'0:14.254',1406.601
'0:14.258',1450.532
'0:14.262',1408.049
'0:14.266',1462.256
'0:14.270',1427.119
'0:14.273',1465.929
'0:14.277',1462.256
'0:14.281',1424.187
'0:14.285',1436.618
'0:14.289',1430.756
'0:14.293',1435.170
'0:14.297',1441.032
'0:14.301',1435.912
'0:14.305',1438.843
'0:14.309',1446.153
'0:14.313',1487.894
'0:14.316',1484.963
'0:14.320',1484.257
'0:14.324',1484.963
'0:14.328',1471.049
'0:14.332',1469.602
'0:14.336',1444.670
'0:14.340',1415.394
'0:14.344',1405.118
'0:14.348',1398.549
'0:14.352',1416.842
'0:14.355',1373.617
'0:14.359',1385.342
'0:14.363',1400.739
'0:14.367',1361.187
'0:14.371',1339.186
'0:14.375',1359.704
'0:14.379',1337.738
'0:14.383',1306.238
'0:14.387',1281.306
'0:14.391',1279.858
'0:14.395',1258.599
'0:14.398',1257.857
'0:14.402',1220.495
'0:14.406',1233.702
'0:14.410',1238.823
'0:14.414',1221.978
'0:14.418',1185.357
'0:14.422',1152.374
'0:14.426',1152.374
'0:14.430',1170.702
'0:14.434',1150.926
'0:14.438',1125.994
'0:14.441',1149.443
'0:14.445',1105.477
'0:14.449',1147.253
'0:14.453',1125.994
'0:14.457',1131.856
'0:14.461',1168.512
'0:14.465',1183.874
'0:14.469',1175.081
'0:14.473',1209.512
'0:14.477',1224.168
'0:14.480',1238.081
'0:14.484',1257.151
'0:14.488',1276.927
'0:14.492',1282.048
'0:14.496',1264.461
'0:14.500',1331.134
'0:14.504',1315.737
'0:14.508',1369.945
'0:14.512',1375.101
'0:14.516',1366.307
'0:14.520',1392.687
'0:14.523',1416.100
'0:14.527',1443.222
'0:14.531',1465.929
'0:14.535',1484.963
'0:14.539',1517.947
'0:14.543',1530.413
'0:14.547',1558.240
'0:14.551',1550.930
'0:14.555',1602.206
'0:14.559',1575.085
'0:14.563',1607.327
'0:14.566',1576.568
'0:14.570',1591.930
'0:14.574',1553.120
'0:14.578',1577.275
'0:14.582',1531.119
'0:14.586',1490.825
'0:14.590',1462.256
'0:14.594',1467.412
'0:14.598',1439.549
'0:14.602',1351.652
'0:14.605',1370.686
'0:14.609',1287.910
'0:14.613',1297.445
'0:14.617',1238.823
'0:14.621',1209.512
'0:14.625',1189.736
'0:14.629',1169.219
'0:14.633',1151.632
'0:14.637',1141.391
'0:14.641',1142.839
'0:14.645',1099.650
'0:14.648',1098.166
'0:14.652',1069.597
'0:14.656',1036.614
'0:14.660',1082.063
'0:14.664',1030.045
'0:14.668',1076.907
'0:14.672',1060.062
'0:14.676',1034.424
'0:14.680',1078.391
'0:14.684',1078.391
'0:14.688',1123.063
'0:14.691',1102.545
'0:14.695',1163.357
'0:14.699',1139.202
'0:14.703',1166.288
'0:14.707',1192.667
'0:14.711',1249.806
'0:14.715',1271.065
'0:14.719',1289.393
'0:14.723',1326.755
'0:14.727',1384.600
'0:14.730',1395.618
'0:14.734',1435.170
'0:14.738',1489.377
'0:14.742',1473.274
'0:14.746',1517.205
'0:14.750',1546.516
'0:14.754',1550.189
'0:14.758',1557.499
'0:14.762',1611.706
'0:14.766',1598.534
'0:14.770',1614.637
'0:14.773',1627.103
'0:14.777',1669.586
'0:14.781',1638.827
'0:14.785',1664.465
'0:14.789',1650.552
'0:14.793',1627.103
'0:14.797',1654.224
'0:14.801',1627.103
'0:14.805',1600.723
'0:14.809',1639.569
'0:14.813',1601.465
'0:14.816',1568.481
'0:14.820',1550.930
'0:14.824',1559.688
'0:14.828',1536.981
'0:14.832',1519.395
'0:14.836',1488.636
'0:14.840',1473.980
'0:14.844',1473.274
'0:14.848',1487.188
'0:14.852',1459.325
'0:14.855',1438.101
'0:14.859',1397.808
'0:14.863',1414.653
'0:14.867',1369.945
'0:14.871',1402.928
'0:14.875',1363.376
'0:14.879',1367.755
'0:14.883',1370.686
'0:14.887',1347.979
'0:14.891',1323.083
'0:14.895',1353.841
'0:14.898',1316.479
'0:14.902',1351.652
'0:14.906',1330.393
'0:14.910',1300.376
'0:14.914',1338.444
'0:14.918',1339.186
'0:14.922',1302.565
'0:14.926',1300.376
'0:14.930',1335.513
'0:14.934',1335.513
'0:14.938',1294.514
'0:14.941',1341.376
'0:14.945',1322.341
'0:14.949',1316.479
'0:14.953',1316.479
'0:14.957',1341.376
'0:14.961',1345.790
'0:14.965',1350.169
'0:14.969',1312.806
'0:14.973',1337.738
'0:14.977',1358.256
'0:14.980',1333.324
'0:14.984',1341.376
'0:14.988',1375.807
'0:14.992',1352.394
'0:14.996',1359.704
'0:15.000',1385.342
'0:15.004',1405.859
'0:15.008',1376.549
'0:15.012',1367.014
'0:15.016',1394.135
'0:15.020',1428.566
'0:15.023',1402.928
'0:15.027',1397.066
'0:15.031',1434.429
'0:15.035',1383.894
'0:15.039',1432.239
'0:15.043',1389.014
'0:15.047',1424.187
'0:15.051',1372.170
'0:15.055',1405.118
'0:15.059',1369.945
'0:15.063',1376.549
'0:15.066',1381.669
'0:15.070',1337.738
'0:15.074',1359.704
'0:15.078',1342.117
'0:15.082',1294.514
'0:15.086',1307.686
'0:15.090',1303.307
'0:15.094',1307.686
'0:15.098',1306.238
'0:15.102',1299.634
'0:15.105',1258.599
'0:15.109',1268.875
'0:15.113',1293.772
'0:15.117',1279.117
'0:15.121',1266.651
'0:15.125',1254.220
'0:15.129',1315.031
'0:15.133',1301.082
'0:15.137',1291.583
'0:15.141',1355.325
'0:15.145',1334.807
'0:15.148',1375.807
'0:15.152',1422.704
'0:15.156',1427.825
'0:15.160',1455.688
'0:15.164',1536.275
'0:15.168',1527.482
'0:15.172',1591.224
'0:15.176',1620.499
'0:15.180',1643.206
'0:15.184',1668.880
'0:15.188',1672.517
'0:15.191',1707.690
'0:15.195',1751.656
'0:15.199',1714.294
'0:15.203',1729.655
'0:15.207',1751.656
'0:15.211',1691.587
'0:15.215',1701.828
'0:15.219',1657.155
'0:15.223',1645.431
'0:15.227',1657.862
'0:15.230',1598.534
'0:15.234',1547.999
'0:15.238',1509.895
'0:15.242',1477.653
'0:15.246',1466.670
'0:15.250',1427.119
'0:15.254',1385.342
'0:15.258',1364.118
'0:15.262',1357.514
'0:15.266',1313.548
'0:15.270',1296.703
'0:15.273',1267.392
'0:15.277',1211.737
'0:15.281',1191.926
'0:15.285',1193.409
'0:15.289',1172.150
'0:15.293',1157.494
'0:15.297',1131.150
'0:15.301',1116.495
'0:15.305',1101.098
'0:15.309',1093.788
'0:15.313',1101.839
'0:15.316',1113.563
'0:15.320',1120.132
'0:15.324',1150.926
'0:15.328',1166.288
'0:15.332',1208.806
'0:15.336',1227.099
'0:15.340',1286.462
'0:15.344',1287.168
'0:15.348',1349.463
'0:15.352',1364.824
'0:15.355',1365.566
'0:15.359',1419.773
'0:15.363',1447.601
'0:15.367',1454.205
'0:15.371',1531.860
'0:15.375',1507.706
'0:15.379',1536.275
'0:15.383',1545.068
'0:15.387',1557.499
'0:15.391',1565.550
'0:15.395',1575.827
'0:15.398',1584.620
'0:15.402',1593.413
'0:15.406',1593.413
'0:15.410',1595.603
'0:15.414',1594.861
'0:15.418',1598.534
'0:15.422',1596.344
'0:15.426',1579.499
'0:15.430',1575.085
'0:15.434',1547.999
'0:15.438',1553.120
'0:15.441',1569.965
'0:15.445',1513.568
'0:15.449',1536.981
'0:15.453',1474.722
'0:15.457',1497.429
'0:15.461',1442.480
'0:15.465',1432.981
'0:15.469',1460.808
'0:15.473',1437.360
'0:15.477',1443.222
'0:15.480',1435.912
'0:15.484',1395.618
'0:15.488',1370.686
'0:15.492',1380.221
'0:15.496',1406.601
'0:15.500',1402.187
'0:15.504',1410.238
'0:15.508',1361.187
'0:15.512',1364.118
'0:15.516',1363.376
'0:15.520',1358.962
'0:15.523',1361.187
'0:15.527',1365.566
'0:15.531',1370.686
'0:15.535',1377.290
'0:15.539',1402.187
'0:15.543',1401.480
'0:15.547',1416.100
'0:15.551',1424.894
'0:15.555',1439.549
'0:15.559',1444.670
'0:15.563',1445.411
'0:15.566',1438.101
'0:15.570',1430.756
'0:15.574',1427.119
'0:15.578',1437.360
'0:15.582',1422.704
'0:15.586',1427.825
'0:15.590',1440.291
'0:15.594',1386.083
'0:15.598',1377.290
'0:15.602',1345.790
'0:15.605',1368.497
'0:15.609',1335.513
'0:15.613',1288.651
'0:15.617',1274.738
'0:15.621',1277.669
'0:15.625',1263.720
'0:15.629',1194.151
'0:15.633',1193.409
'0:15.637',1209.512
'0:15.641',1165.581
'0:15.645',1158.978
'0:15.648',1125.994
'0:15.652',1153.115
'0:15.656',1121.615
'0:15.660',1092.304
'0:15.664',1118.684
'0:15.668',1078.391
'0:15.672',1114.270
'0:15.676',1071.787
'0:15.680',1047.632
'0:15.684',1096.719
'0:15.688',1073.976
'0:15.691',1043.959
'0:15.695',1097.425
'0:15.699',1090.115
'0:15.703',1076.201
'0:15.707',1110.632
'0:15.711',1106.960
'0:15.715',1129.667
'0:15.719',1140.649
'0:15.723',1150.184
'0:15.727',1158.236
'0:15.730',1194.857
'0:15.734',1241.013
'0:15.738',1263.720
'0:15.742',1288.651
'0:15.746',1309.875
'0:15.750',1320.152
'0:15.754',1326.755
'0:15.758',1334.807
'0:15.762',1408.049
'0:15.766',1386.825
'0:15.770',1465.929
'0:15.773',1452.015
'0:15.777',1495.240
'0:15.781',1562.619
'0:15.785',1582.430
'0:15.789',1604.396
'0:15.793',1671.775
'0:15.797',1660.793
'0:15.801',1714.294
'0:15.805',1761.897
'0:15.809',1774.363
'0:15.813',1792.656
'0:15.816',1838.812
'0:15.820',1869.606
'0:15.824',1855.692
'0:15.828',1848.347
'0:15.832',1849.088
'0:15.836',1833.691
'0:15.840',1846.157
'0:15.844',1810.243
'0:15.848',1778.036
'0:15.852',1761.156
'0:15.855',1768.501
'0:15.859',1684.241
'0:15.863',1682.052
'0:15.867',1643.948
'0:15.871',1577.275
'0:15.875',1544.326
'0:15.879',1525.257
'0:15.883',1484.963
'0:15.887',1425.635
'0:15.891',1369.238
'0:15.895',1306.944
'0:15.898',1298.151
'0:15.902',1268.875
'0:15.906',1248.358
'0:15.910',1170.702
'0:15.914',1142.839
'0:15.918',1151.632
'0:15.922',1156.047
'0:15.926',1100.356
'0:15.930',1131.150
'0:15.934',1117.942
'0:15.938',1098.908
'0:15.941',1147.253
'0:15.945',1161.909
'0:15.949',1180.201
'0:15.953',1151.632
'0:15.957',1175.081
'0:15.961',1196.340
'0:15.965',1235.892
'0:15.969',1268.134
'0:15.973',1285.720
'0:15.977',1301.082
'0:15.980',1330.393
'0:15.984',1371.428
'0:15.988',1423.446
'0:15.992',1410.980
'0:15.996',1435.170
'0:16.000',1483.515
'0:16.004',1484.257
'0:16.008',1482.032
'0:16.012',1525.257
'0:16.016',1525.257
'0:16.020',1520.878
'0:16.023',1510.637
'0:16.027',1518.688
'0:16.031',1548.705
'0:16.035',1542.843
'0:16.039',1534.050
'0:16.043',1528.929
'0:16.047',1471.791
'0:16.051',1483.515
'0:16.055',1499.619
'0:16.059',1439.549
'0:16.063',1476.912
'0:16.066',1416.100
'0:16.070',1453.463
'0:16.074',1393.393
'0:16.078',1432.239
'0:16.082',1396.324
'0:16.086',1379.480
'0:16.090',1407.307
'0:16.094',1361.893
'0:16.098',1394.135
'0:16.102',1372.876
'0:16.105',1391.946
'0:16.109',1348.721
'0:16.113',1391.204
'0:16.117',1339.186
'0:16.121',1379.480
'0:16.125',1390.462
'0:16.129',1355.325
'0:16.133',1404.376
'0:16.137',1364.118
'0:16.141',1388.273
'0:16.145',1387.531
'0:16.148',1409.532
'0:16.152',1382.411
'0:16.156',1374.359
'0:16.160',1402.928
'0:16.164',1367.755
'0:16.168',1412.463
'0:16.172',1377.290
'0:16.176',1392.687
'0:16.180',1367.014
'0:16.184',1383.894
'0:16.188',1369.238
'0:16.191',1361.187
'0:16.195',1361.893
'0:16.199',1337.738
'0:16.203',1342.859
'0:16.207',1342.117
'0:16.211',1321.600
'0:16.215',1282.789
'0:16.219',1306.944
'0:16.223',1312.806
'0:16.227',1287.910
'0:16.230',1288.651
'0:16.234',1286.462
'0:16.238',1297.445
'0:16.242',1276.927
'0:16.246',1270.323
'0:16.250',1253.478
'0:16.254',1254.926
'0:16.258',1265.203
'0:16.262',1313.548
'0:16.266',1272.513
'0:16.270',1288.651
'0:16.273',1313.548
'0:16.277',1300.376
'0:16.281',1283.531
'0:16.285',1323.083
'0:16.289',1283.531
'0:16.293',1292.289
'0:16.297',1305.496
'0:16.301',1278.375
'0:16.305',1257.857
'0:16.309',1290.099
'0:16.313',1280.600
'0:16.316',1242.496
'0:16.320',1216.858
'0:16.324',1259.341
'0:16.328',1232.219
'0:16.332',1235.892
'0:16.336',1232.219
'0:16.340',1216.116
'0:16.344',1210.995
'0:16.348',1239.565
'0:16.352',1243.944
'0:16.355',1247.616
'0:16.359',1248.358
'0:16.363',1261.530
'0:16.367',1265.203
'0:16.371',1299.634
'0:16.375',1298.893
'0:16.379',1285.720
'0:16.383',1355.325
'0:16.387',1345.048
'0:16.391',1382.411
'0:16.395',1410.238
'0:16.398',1429.308
'0:16.402',1441.739
'0:16.406',1484.963
'0:16.410',1500.360
'0:16.414',1504.774
'0:16.418',1519.395
'0:16.422',1542.843
'0:16.426',1557.499
'0:16.430',1561.171
'0:16.434',1567.033
'0:16.438',1568.481
'0:16.441',1565.550
'0:16.445',1553.861
'0:16.449',1575.085
'0:16.453',1550.930
'0:16.457',1520.878
'0:16.461',1529.671
'0:16.465',1474.722
'0:16.469',1463.739
'0:16.473',1410.238
'0:16.477',1406.601
'0:16.480',1369.238
'0:16.484',1358.256
'0:16.488',1320.152
'0:16.492',1288.651
'0:16.496',1276.185
'0:16.500',1273.996
'0:16.504',1243.944
'0:16.508',1194.151
'0:16.512',1183.874
'0:16.516',1164.098
'0:16.520',1193.409
'0:16.523',1182.426
'0:16.527',1137.012
'0:16.531',1132.598
'0:16.535',1169.960
'0:16.539',1179.495
'0:16.543',1137.012
'0:16.547',1191.926
'0:16.551',1188.995
'0:16.555',1227.840
'0:16.559',1245.427
'0:16.563',1249.099
'0:16.566',1238.081
'0:16.570',1312.100
'0:16.574',1287.168
'0:16.578',1335.513
'0:16.582',1386.825
'0:16.586',1400.739
'0:16.590',1382.411
'0:16.594',1403.670
'0:16.598',1426.377
'0:16.602',1444.670
'0:16.605',1444.670
'0:16.609',1449.826
'0:16.613',1454.946
'0:16.617',1461.550
'0:16.621',1468.118
'0:16.625',1510.637
'0:16.629',1500.360
'0:16.633',1468.118
'0:16.637',1458.619
'0:16.641',1473.980
'0:16.645',1498.912
'0:16.648',1479.136
'0:16.652',1441.032
'0:16.656',1452.015
'0:16.660',1452.015
'0:16.664',1479.136
'0:16.668',1449.826
'0:16.672',1454.205
'0:16.676',1435.170
'0:16.680',1457.136
'0:16.684',1415.394
'0:16.688',1461.550
'0:16.691',1414.653
'0:16.695',1430.050
'0:16.699',1438.843
'0:16.703',1424.894
'0:16.707',1458.619
'0:16.711',1424.187
'0:16.715',1432.981
'0:16.719',1441.032
'0:16.723',1442.480
'0:16.727',1468.860
'0:16.730',1460.808
'0:16.734',1512.826
'0:16.738',1493.050
'0:16.742',1491.567
'0:16.746',1515.757
'0:16.750',1550.189
'0:16.754',1540.654
'0:16.758',1546.516
'0:16.762',1594.861
'0:16.766',1567.775
'0:16.770',1607.327
'0:16.773',1573.637
'0:16.777',1627.103
'0:16.781',1589.741
'0:16.785',1599.982
'0:16.789',1631.482
'0:16.793',1603.654
'0:16.797',1615.379
'0:16.801',1633.707
'0:16.805',1592.672
'0:16.809',1598.534
'0:16.813',1586.068
'0:16.816',1556.051
'0:16.820',1564.844
'0:16.824',1514.274
'0:16.828',1489.377
'0:16.832',1473.274
'0:16.836',1445.411
'0:16.840',1425.635
'0:16.844',1399.256
'0:16.848',1409.532
'0:16.852',1358.962
'0:16.855',1353.100
'0:16.859',1312.100
'0:16.863',1320.893
'0:16.867',1253.478
'0:16.871',1224.168
'0:16.875',1217.564
'0:16.879',1202.944
'0:16.883',1176.564
'0:16.887',1112.822
'0:16.891',1134.081
'0:16.895',1065.925
'0:16.898',1093.046
'0:16.902',1029.304
'0:16.906',1068.114
'0:16.910',1022.700
'0:16.914',1003.666
'0:16.918',1010.976
'0:16.922',1008.045
'0:16.926',1058.615
'0:16.930',1079.838
'0:16.934',1068.856
'0:16.938',1122.357
'0:16.941',1117.201
'0:16.945',1130.408
'0:16.949',1180.201
'0:16.953',1220.495
'0:16.957',1257.857
'0:16.961',1289.393
'0:16.965',1345.048
'0:16.969',1338.444
'0:16.973',1413.169
'0:16.977',1446.894
'0:16.980',1473.274
'0:16.984',1500.360
'0:16.988',1552.378
'0:16.992',1622.724
'0:16.996',1649.068
'0:17.000',1690.104
'0:17.004',1717.225
'0:17.008',1753.846
'0:17.012',1795.587
'0:17.016',1835.881
'0:17.020',1849.088
'0:17.023',1873.243
'0:17.027',1867.381
'0:17.031',1868.123
'0:17.035',1865.191
'0:17.039',1841.037
'0:17.043',1821.967
'0:17.047',1797.070
'0:17.051',1758.966
'0:17.055',1730.397
'0:17.059',1700.380
'0:17.063',1677.638
'0:17.066',1584.620
'0:17.070',1535.533
'0:17.074',1498.912
'0:17.078',1475.464
'0:17.082',1385.342
'0:17.086',1365.566
'0:17.090',1301.082
'0:17.094',1260.788
'0:17.098',1243.944
'0:17.102',1195.598
'0:17.105',1163.357
'0:17.109',1104.770
'0:17.113',1051.269
'0:17.117',1067.408
'0:17.121',1000.735
'0:17.125',1032.235
'0:17.129',1001.476
'0:17.133',971.424
'0:17.137',960.441
'0:17.141',983.890
'0:17.145',997.803
'0:17.148',977.286
'0:17.152',983.890
'0:17.156',1038.839
'0:17.160',1071.045
'0:17.164',1084.994
'0:17.168',1090.856
'0:17.172',1153.857
'0:17.176',1198.530
'0:17.180',1217.564
'0:17.184',1240.306
'0:17.188',1282.789
'0:17.191',1321.600
'0:17.195',1355.325
'0:17.199',1357.514
'0:17.203',1430.756
'0:17.207',1449.084
'0:17.211',1476.205
'0:17.215',1503.291
'0:17.219',1501.102
'0:17.223',1558.982
'0:17.227',1588.293
'0:17.230',1551.636
'0:17.234',1579.499
'0:17.238',1623.430
'0:17.242',1586.809
'0:17.246',1617.568
'0:17.250',1594.119
'0:17.254',1633.707
'0:17.258',1583.878
'0:17.262',1622.724
'0:17.266',1580.947
'0:17.270',1603.654
'0:17.273',1558.982
'0:17.277',1551.636
'0:17.281',1569.965
'0:17.285',1552.378
'0:17.289',1531.119
'0:17.293',1512.085
'0:17.297',1443.963
'0:17.301',1452.015
'0:17.305',1444.670
'0:17.309',1376.549
'0:17.313',1405.118
'0:17.316',1350.169
'0:17.320',1335.513
'0:17.324',1334.807
'0:17.328',1304.013
'0:17.332',1269.582
'0:17.336',1290.841
'0:17.340',1281.306
'0:17.344',1278.375
'0:17.348',1282.789
'0:17.352',1271.807
'0:17.355',1271.807
'0:17.359',1275.444
'0:17.363',1273.996
'0:17.367',1274.738
'0:17.371',1247.616
'0:17.375',1230.030
'0:17.379',1229.288
'0:17.383',1269.582
'0:17.387',1284.237
'0:17.391',1263.013
'0:17.395',1254.220
'0:17.398',1238.823
'0:17.402',1287.910
'0:17.406',1277.669
'0:17.410',1271.807
'0:17.414',1251.995
'0:17.418',1243.944
'0:17.422',1234.444
'0:17.426',1276.185
'0:17.430',1282.789
'0:17.434',1279.858
'0:17.438',1268.134
'0:17.441',1248.358
'0:17.445',1235.892
'0:17.449',1235.892
'0:17.453',1220.495
'0:17.457',1231.513
'0:17.461',1232.961
'0:17.465',1243.944
'0:17.469',1258.599
'0:17.473',1254.926
'0:17.477',1239.565
'0:17.480',1247.616
'0:17.484',1191.219
'0:17.488',1179.495
'0:17.492',1191.219
'0:17.496',1212.443
'0:17.500',1150.926
'0:17.504',1183.133
'0:17.508',1137.012
'0:17.512',1116.495
'0:17.516',1139.908
'0:17.520',1119.426
'0:17.523',1106.960
'0:17.527',1065.925
'0:17.531',1094.494
'0:17.535',1072.528
'0:17.539',1066.666
'0:17.543',1027.821
'0:17.547',1082.063
'0:17.551',1043.218
'0:17.555',1101.098
'0:17.559',1120.874
'0:17.563',1115.753
'0:17.566',1159.719
'0:17.570',1193.409
'0:17.574',1235.150
'0:17.578',1249.099
'0:17.582',1328.203
'0:17.586',1334.807
'0:17.590',1393.393
'0:17.594',1461.550
'0:17.598',1495.240
'0:17.602',1593.413
'0:17.605',1598.534
'0:17.609',1680.569
'0:17.613',1723.087
'0:17.617',1751.656
'0:17.621',1781.673
'0:17.625',1858.623
'0:17.629',1872.537
'0:17.633',1858.623
'0:17.637',1865.933
'0:17.641',1898.175
'0:17.645',1855.692
'0:17.648',1879.847
'0:17.652',1853.467
'0:17.656',1798.518
'0:17.660',1761.156
'0:17.664',1731.880
'0:17.668',1712.069
'0:17.672',1668.880
'0:17.676',1632.965
'0:17.680',1573.637
'0:17.684',1523.067
'0:17.688',1518.688
'0:17.691',1451.273
'0:17.695',1397.808
'0:17.699',1363.376
'0:17.703',1358.256
'0:17.707',1345.048
'0:17.711',1295.220
'0:17.715',1257.857
'0:17.719',1287.910
'0:17.723',1235.892
'0:17.727',1262.272
'0:17.730',1226.357
'0:17.734',1220.495
'0:17.738',1257.151
'0:17.742',1265.944
'0:17.746',1245.427
'0:17.750',1282.789
'0:17.754',1301.824
'0:17.758',1284.979
'0:17.762',1332.582
'0:17.766',1310.617
'0:17.770',1350.910
'0:17.773',1381.669
'0:17.777',1369.238
'0:17.781',1416.100
'0:17.785',1437.360
'0:17.789',1476.912
'0:17.793',1472.533
'0:17.797',1475.464
'0:17.801',1507.706
'0:17.805',1516.499
'0:17.809',1554.568
'0:17.813',1535.533
'0:17.816',1587.551
'0:17.820',1567.775
'0:17.824',1582.430
'0:17.828',1567.033
'0:17.832',1599.275
'0:17.836',1586.068
'0:17.840',1557.499
'0:17.844',1591.224
'0:17.848',1565.550
'0:17.852',1541.395
'0:17.855',1522.326
'0:17.859',1564.102
'0:17.863',1530.413
'0:17.867',1502.550
'0:17.871',1494.498
'0:17.875',1491.567
'0:17.879',1485.705
'0:17.883',1501.843
'0:17.887',1482.774
'0:17.891',1473.980
'0:17.895',1457.136
'0:17.898',1462.998
'0:17.902',1453.463
'0:17.906',1443.963
'0:17.910',1403.670
'0:17.914',1385.342
'0:17.918',1400.739
'0:17.922',1420.515
'0:17.926',1367.014
'0:17.930',1377.290
'0:17.934',1390.462
'0:17.938',1375.101
'0:17.941',1386.083
'0:17.945',1386.083
'0:17.949',1403.670
'0:17.953',1417.584
'0:17.957',1408.049
'0:17.961',1406.601
'0:17.965',1426.377
'0:17.969',1430.050
'0:17.973',1406.601
'0:17.977',1436.618
'0:17.980',1441.032
'0:17.984',1452.015
'0:17.988',1448.342
'0:17.992',1430.050
'0:17.996',1423.446
'0:18.000',1404.376
'0:18.004',1403.670
'0:18.008',1412.463
'0:18.012',1413.911
'0:18.016',1394.877
'0:18.020',1382.411
'0:18.023',1376.549
'0:18.027',1369.238
'0:18.031',1368.497
'0:18.035',1364.824
'0:18.039',1377.290
'0:18.043',1369.238
'0:18.047',1368.497
'0:18.051',1315.031
'0:18.055',1306.944
'0:18.059',1327.462
'0:18.063',1335.513
'0:18.066',1278.375
'0:18.070',1286.462
'0:18.074',1304.755
'0:18.078',1264.461
'0:18.082',1298.151
'0:18.086',1250.547
'0:18.090',1283.531
'0:18.094',1262.272
'0:18.098',1233.702
'0:18.102',1251.995
'0:18.105',1282.048
'0:18.109',1263.013
'0:18.113',1274.738
'0:18.117',1272.513
'0:18.121',1273.996
'0:18.125',1270.323
'0:18.129',1263.013
'0:18.133',1248.358
'0:18.137',1217.564
'0:18.141',1229.288
'0:18.145',1209.512
'0:18.148',1207.323
'0:18.152',1206.581
'0:18.156',1207.323
'0:18.160',1211.737
'0:18.164',1219.047
'0:18.168',1216.116
'0:18.172',1221.237
'0:18.176',1263.013
'0:18.180',1278.375
'0:18.184',1289.393
'0:18.188',1259.341
'0:18.191',1318.669
'0:18.195',1285.720
'0:18.199',1352.394
'0:18.203',1343.600
'0:18.207',1343.600
'0:18.211',1388.273
'0:18.215',1438.101
'0:18.219',1438.101
'0:18.223',1464.481
'0:18.227',1493.050
'0:18.230',1567.033
'0:18.234',1591.224
'0:18.238',1595.603
'0:18.242',1598.534
'0:18.246',1664.465
'0:18.250',1640.275
'0:18.254',1677.638
'0:18.258',1678.379
'0:18.262',1660.793
'0:18.266',1639.569
'0:18.270',1651.999
'0:18.273',1611.000
'0:18.277',1630.776
'0:18.281',1595.603
'0:18.285',1556.757
'0:18.289',1544.326
'0:18.293',1513.568
'0:18.297',1427.119
'0:18.301',1406.601
'0:18.305',1354.583
'0:18.309',1316.479
'0:18.313',1317.221
'0:18.316',1237.375
'0:18.320',1194.857
'0:18.324',1167.771
'0:18.328',1164.840
'0:18.332',1114.270
'0:18.336',1120.874
'0:18.340',1058.615
'0:18.344',1090.856
'0:18.348',1022.700
'0:18.352',1062.994
'0:18.355',1029.304
'0:18.359',1024.889
'0:18.363',1025.631
'0:18.367',1002.924
'0:18.371',1015.390
'0:18.375',1039.545
'0:18.379',1042.476
'0:18.383',1020.511
'0:18.387',1076.201
'0:18.391',1046.890
'0:18.395',1102.545
'0:18.398',1119.426
'0:18.402',1167.771
'0:18.406',1194.151
'0:18.410',1221.237
'0:18.414',1230.771
'0:18.418',1281.306
'0:18.422',1304.013
'0:18.426',1334.807
'0:18.430',1349.463
'0:18.434',1377.290
'0:18.438',1419.032
'0:18.441',1417.584
'0:18.445',1487.894
'0:18.449',1470.343
'0:18.453',1519.395
'0:18.457',1493.756
'0:18.461',1536.275
'0:18.465',1525.257
'0:18.469',1534.792
'0:18.473',1566.292
'0:18.477',1575.827
'0:18.480',1602.206
'0:18.484',1583.878
'0:18.488',1591.224
'0:18.492',1597.792
'0:18.496',1616.862
'0:18.500',1623.430
'0:18.504',1605.138
'0:18.508',1613.189
'0:18.512',1621.982
'0:18.516',1621.241
'0:18.520',1597.792
'0:18.523',1638.086
'0:18.527',1627.845
'0:18.531',1594.119
'0:18.535',1600.723
'0:18.539',1638.086
'0:18.543',1631.482
'0:18.547',1623.430
'0:18.551',1602.913
'0:18.555',1586.809
'0:18.559',1588.293
'0:18.563',1603.654
'0:18.566',1583.137
'0:18.570',1561.171
'0:18.574',1563.361
'0:18.578',1574.344
'0:18.582',1567.033
'0:18.586',1556.051
'0:18.590',1506.964
'0:18.594',1529.671
'0:18.598',1540.654
'0:18.602',1496.688
'0:18.605',1491.567
'0:18.609',1495.981
'0:18.613',1506.964
'0:18.617',1520.878
'0:18.621',1481.326
'0:18.625',1459.325
'0:18.629',1486.446
'0:18.633',1459.325
'0:18.637',1443.222
'0:18.641',1430.050
'0:18.645',1452.757
'0:18.648',1432.981
'0:18.652',1424.894
'0:18.656',1416.842
'0:18.660',1401.480
'0:18.664',1362.635
'0:18.668',1374.359
'0:18.672',1359.704
'0:18.676',1356.773
'0:18.680',1350.169
'0:18.684',1342.859
'0:18.688',1331.134
'0:18.691',1328.945
'0:18.695',1320.893
'0:18.699',1323.083
'0:18.703',1304.013
'0:18.707',1301.824
'0:18.711',1285.720
'0:18.715',1273.254
'0:18.719',1322.341
'0:18.723',1312.100
'0:18.727',1289.393
'0:18.730',1280.600
'0:18.734',1278.375
'0:18.738',1271.065
'0:18.742',1274.738
'0:18.746',1212.443
'0:18.750',1230.030
'0:18.754',1216.116
'0:18.758',1170.702
'0:18.762',1205.133
'0:18.766',1139.908
'0:18.770',1165.581
'0:18.773',1122.357
'0:18.777',1163.357
'0:18.781',1117.201
'0:18.785',1149.443
'0:18.789',1130.408
'0:18.793',1109.891
'0:18.797',1121.615
'0:18.801',1109.891
'0:18.805',1119.426
'0:18.809',1165.581
'0:18.813',1123.805
'0:18.816',1163.357
'0:18.820',1207.323
'0:18.824',1212.443
'0:18.828',1245.427
'0:18.832',1251.289
'0:18.836',1321.600
'0:18.840',1333.324
'0:18.844',1369.238
'0:18.848',1419.773
'0:18.852',1448.342
'0:18.855',1475.464
'0:18.859',1517.947
'0:18.863',1558.240
'0:18.867',1605.138
'0:18.871',1651.293
'0:18.875',1671.775
'0:18.879',1684.241
'0:18.883',1737.001
'0:18.887',1704.017
'0:18.891',1734.070
'0:18.895',1726.018
'0:18.898',1684.241
'0:18.902',1663.018
'0:18.906',1649.068
'0:18.910',1619.051
'0:18.914',1561.913
'0:18.918',1523.809
'0:18.922',1501.843
'0:18.926',1491.567
'0:18.930',1398.549
'0:18.934',1393.393
'0:18.938',1327.462
'0:18.941',1283.531
'0:18.945',1232.961
'0:18.949',1199.271
'0:18.953',1167.029
'0:18.957',1156.788
'0:18.961',1166.288
'0:18.965',1094.494
'0:18.969',1074.718
'0:18.973',1115.011
'0:18.977',1079.132
'0:18.980',1087.184
'0:18.984',1088.632
'0:18.988',1084.994
'0:18.992',1062.994
'0:18.996',1117.942
'0:19.000',1136.271
'0:19.004',1137.012
'0:19.008',1178.754
'0:19.012',1173.633
'0:19.016',1237.375
'0:19.020',1256.410
'0:19.023',1301.824
'0:19.027',1323.083
'0:19.031',1339.928
'0:19.035',1401.480
'0:19.039',1443.222
'0:19.043',1429.308
'0:19.047',1467.412
'0:19.051',1525.998
'0:19.055',1529.671
'0:19.059',1591.224
'0:19.063',1599.275
'0:19.066',1584.620
'0:19.070',1616.862
'0:19.074',1620.499
'0:19.078',1638.086
'0:19.082',1640.275
'0:19.086',1638.827
'0:19.090',1635.155
'0:19.094',1656.414
'0:19.098',1621.982
'0:19.102',1627.845
'0:19.105',1615.379
'0:19.109',1637.344
'0:19.113',1591.224
'0:19.117',1569.223
'0:19.121',1600.723
'0:19.125',1570.706
'0:19.129',1530.413
'0:19.133',1511.343
'0:19.137',1495.981
'0:19.141',1499.619
'0:19.145',1501.102
'0:19.148',1490.825
'0:19.152',1477.653
'0:19.156',1428.566
'0:19.160',1413.169
'0:19.164',1400.739
'0:19.168',1392.687
'0:19.172',1399.997
'0:19.176',1375.101
'0:19.180',1350.169
'0:19.184',1378.738
'0:19.188',1369.945
'0:19.191',1324.531
'0:19.195',1324.531
'0:19.199',1355.325
'0:19.203',1312.100
'0:19.207',1347.979
'0:19.211',1331.876
'0:19.215',1334.807
'0:19.219',1370.686
'0:19.223',1337.738
'0:19.227',1340.669
'0:19.230',1380.221
'0:19.234',1397.066
'0:19.238',1399.997
'0:19.242',1378.738
'0:19.246',1372.170
'0:19.250',1391.204
'0:19.254',1426.377
'0:19.258',1393.393
'0:19.262',1378.738
'0:19.266',1387.531
'0:19.270',1391.946
'0:19.273',1407.307
'0:19.277',1410.980
'0:19.281',1411.721
'0:19.285',1386.083
'0:19.289',1353.841
'0:19.293',1358.962
'0:19.297',1397.066
'0:19.301',1347.238
'0:19.305',1358.962
'0:19.309',1362.635
'0:19.313',1381.669
'0:19.316',1326.755
'0:19.320',1349.463
'0:19.324',1379.480
'0:19.328',1345.790
'0:19.332',1370.686
'0:19.336',1344.307
'0:19.340',1379.480
'0:19.344',1347.979
'0:19.348',1325.272
'0:19.352',1331.134
'0:19.355',1369.945
'0:19.359',1315.031
'0:19.363',1361.187
'0:19.367',1344.307
'0:19.371',1325.272
'0:19.375',1335.513
'0:19.379',1324.531
'0:19.383',1306.944
'0:19.387',1332.582
'0:19.391',1336.997
'0:19.395',1308.427
'0:19.398',1345.048
'0:19.402',1353.100
'0:19.406',1341.376
'0:19.410',1341.376
'0:19.414',1383.152
'0:19.418',1412.463
'0:19.422',1430.756
'0:19.426',1430.756
'0:19.430',1416.100
'0:19.434',1465.187
'0:19.438',1494.498
'0:19.441',1474.722
'0:19.445',1506.964
'0:19.449',1523.067
'0:19.453',1545.774
'0:19.457',1568.481
'0:19.461',1597.792
'0:19.465',1590.482
'0:19.469',1607.327
'0:19.473',1638.827
'0:19.477',1649.068
'0:19.480',1666.655
'0:19.484',1684.983
'0:19.488',1739.932
'0:19.492',1764.828
'0:19.496',1737.001
'0:19.500',1748.725
'0:19.504',1783.863
'0:19.508',1746.500
'0:19.512',1751.656
'0:19.516',1762.639
'0:19.520',1743.605
'0:19.523',1734.070
'0:19.527',1709.880
'0:19.531',1649.810
'0:19.535',1627.103
'0:19.539',1578.016
'0:19.543',1574.344
'0:19.547',1485.705
'0:19.551',1462.998
'0:19.555',1437.360
'0:19.559',1369.945
'0:19.563',1328.945
'0:19.566',1260.788
'0:19.570',1260.788
'0:19.574',1181.685
'0:19.578',1180.943
'0:19.582',1166.288
'0:19.586',1137.012
'0:19.590',1111.339
'0:19.594',1038.097
'0:19.598',1031.493
'0:19.602',1052.011
'0:19.605',1046.149
'0:19.609',988.269
'0:19.613',1032.976
'0:19.617',990.458
'0:19.621',1028.562
'0:19.625',1030.752
'0:19.629',1051.269
'0:19.633',1024.183
'0:19.637',1076.907
'0:19.641',1109.149
'0:19.645',1131.150
'0:19.648',1153.857
'0:19.652',1162.650
'0:19.656',1191.219
'0:19.660',1225.651
'0:19.664',1251.995
'0:19.668',1249.099
'0:19.672',1259.341
'0:19.676',1317.962
'0:19.680',1360.445
'0:19.684',1379.480
'0:19.688',1383.894
'0:19.691',1399.997
'0:19.695',1453.463
'0:19.699',1457.877
'0:19.703',1463.739
'0:19.707',1476.912
'0:19.711',1479.136
'0:19.715',1484.257
'0:19.719',1500.360
'0:19.723',1524.550
'0:19.727',1550.930
'0:19.730',1531.860
'0:19.734',1523.809
'0:19.738',1517.947
'0:19.742',1535.533
'0:19.746',1535.533
'0:19.750',1524.550
'0:19.754',1531.860
'0:19.758',1534.792
'0:19.762',1507.706
'0:19.766',1498.912
'0:19.770',1497.429
'0:19.773',1470.343
'0:19.777',1447.601
'0:19.781',1457.877
'0:19.785',1471.049
'0:19.789',1471.791
'0:19.793',1467.412
'0:19.797',1463.739
'0:19.801',1449.826
'0:19.805',1454.946
'0:19.809',1410.238
'0:19.813',1402.928
'0:19.816',1438.101
'0:19.820',1417.584
'0:19.824',1393.393
'0:19.828',1407.307
'0:19.832',1426.377
'0:19.836',1441.032
'0:19.840',1437.360
'0:19.844',1435.170
'0:19.848',1405.118
'0:19.852',1373.617
'0:19.855',1372.170
'0:19.859',1363.376
'0:19.863',1372.170
'0:19.867',1389.756
'0:19.871',1376.549
'0:19.875',1347.238
'0:19.879',1311.358
'0:19.883',1323.824
'0:19.887',1331.876
'0:19.891',1284.979
'0:19.895',1254.926
'0:19.898',1290.099
'0:19.902',1257.857
'0:19.906',1213.185
'0:19.910',1209.512
'0:19.914',1211.737
'0:19.918',1219.047
'0:19.922',1193.409
'0:19.926',1192.667
'0:19.930',1186.805
'0:19.934',1180.201
'0:19.938',1122.357
'0:19.941',1118.684
'0:19.945',1134.787
'0:19.949',1128.219
'0:19.953',1125.994
'0:19.957',1125.994
'0:19.961',1150.184
'0:19.965',1149.443
'0:19.969',1147.995
'0:19.973',1110.632
'0:19.977',1144.322
'0:19.980',1137.012
'0:19.984',1139.908
'0:19.988',1121.615
'0:19.992',1129.667
'0:19.996',1112.822
'0:20.000',1110.632
'0:20.004',1091.563
'0:20.008',1093.788
'0:20.012',1097.425
'0:20.016',1147.995
'0:20.020',1162.650
'0:20.023',1153.857
'0:20.027',1175.081
'0:20.031',1185.357
'0:20.035',1169.960
'0:20.039',1187.547
'0:20.043',1198.530
'0:20.047',1196.340
'0:20.051',1257.151
'0:20.055',1250.547
'0:20.059',1284.237
'0:20.063',1283.531
'0:20.066',1326.755
'0:20.070',1373.617
'0:20.074',1401.480
'0:20.078',1425.635
'0:20.082',1460.067
'0:20.086',1456.394
'0:20.090',1527.482
'0:20.094',1538.464
'0:20.098',1576.568
'0:20.102',1620.499
'0:20.105',1659.345
'0:20.109',1702.569
'0:20.113',1751.656
'0:20.117',1769.243
'0:20.121',1827.087
'0:20.125',1819.777
'0:20.129',1832.950
'0:20.133',1868.864
'0:20.137',1824.898
'0:20.141',1838.105
'0:20.145',1824.898
'0:20.148',1805.122
'0:20.152',1776.553
'0:20.156',1749.431
'0:20.160',1757.518
'0:20.164',1721.604
'0:20.168',1644.689
'0:20.172',1651.293
'0:20.176',1590.482
'0:20.180',1527.482
'0:20.184',1482.774
'0:20.188',1438.843
'0:20.191',1426.377
'0:20.195',1387.531
'0:20.199',1358.962
'0:20.203',1301.824
'0:20.207',1251.289
'0:20.211',1230.030
'0:20.215',1224.168
'0:20.219',1223.426
'0:20.223',1180.943
'0:20.227',1202.202
'0:20.230',1150.184
'0:20.234',1194.857
'0:20.238',1195.598
'0:20.242',1188.995
'0:20.246',1212.443
'0:20.250',1231.513
'0:20.254',1243.944
'0:20.258',1264.461
'0:20.262',1298.151
'0:20.266',1324.531
'0:20.270',1303.307
'0:20.273',1331.876
'0:20.277',1359.704
'0:20.281',1389.756
'0:20.285',1443.963
'0:20.289',1491.567
'0:20.293',1508.412
'0:20.297',1492.309
'0:20.301',1535.533
'0:20.305',1564.102
'0:20.309',1552.378
'0:20.313',1576.568
'0:20.316',1585.362
'0:20.320',1604.396
'0:20.324',1634.413
'0:20.328',1663.018
'0:20.332',1666.655
'0:20.336',1651.999
'0:20.340',1660.793
'0:20.344',1644.689
'0:20.348',1631.482
'0:20.352',1634.413
'0:20.355',1625.655
'0:20.359',1633.707
'0:20.363',1643.948
'0:20.367',1586.809
'0:20.371',1591.930
'0:20.375',1600.723
'0:20.379',1539.912
'0:20.383',1530.413
'0:20.387',1544.326
'0:20.391',1500.360
'0:20.395',1468.118
'0:20.398',1500.360
'0:20.402',1480.584
'0:20.406',1457.136
'0:20.410',1408.790
'0:20.414',1398.549
'0:20.418',1427.825
'0:20.422',1382.411
'0:20.426',1386.083
'0:20.430',1410.980
'0:20.434',1359.704
'0:20.438',1379.480
'0:20.441',1373.617
'0:20.445',1406.601
'0:20.449',1361.893
'0:20.453',1383.894
'0:20.457',1375.101
'0:20.461',1410.980
'0:20.465',1373.617
'0:20.469',1398.549
'0:20.473',1432.981
'0:20.477',1397.066
'0:20.480',1406.601
'0:20.484',1407.307
'0:20.488',1425.635
'0:20.492',1446.894
'0:20.496',1488.636
'0:20.500',1462.998
'0:20.504',1465.187
'0:20.508',1491.567
'0:20.512',1514.274
'0:20.516',1467.412
'0:20.520',1484.257
'0:20.523',1497.429
'0:20.527',1513.568
'0:20.531',1504.774
'0:20.535',1492.309
'0:20.539',1474.722
'0:20.543',1441.032
'0:20.547',1456.394
'0:20.551',1468.118
'0:20.555',1412.463
'0:20.559',1423.446
'0:20.563',1427.825
'0:20.566',1383.152
'0:20.570',1344.307
'0:20.574',1375.807
'0:20.578',1332.582
'0:20.582',1295.961
'0:20.586',1282.789
'0:20.590',1291.583
'0:20.594',1270.323
'0:20.598',1245.427
'0:20.602',1184.616
'0:20.605',1201.461
'0:20.609',1131.856
'0:20.613',1162.650
'0:20.617',1120.874
'0:20.621',1093.046
'0:20.625',1055.683
'0:20.629',1082.769
'0:20.633',1057.131
'0:20.637',1057.131
'0:20.641',1035.166
'0:20.645',993.389
'0:20.648',1024.889
'0:20.652',1023.442
'0:20.656',1010.976
'0:20.660',978.769
'0:20.664',1019.769
'0:20.668',994.131
'0:20.672',1058.615
'0:20.676',1039.545
'0:20.680',1101.839
'0:20.684',1072.528
'0:20.688',1109.891
'0:20.691',1141.391
'0:20.695',1159.719
'0:20.699',1230.030
'0:20.703',1263.720
'0:20.707',1313.548
'0:20.711',1317.221
'0:20.715',1334.807
'0:20.719',1377.290
'0:20.723',1431.497
'0:20.727',1478.395
'0:20.730',1495.240
'0:20.734',1570.706
'0:20.738',1559.688
'0:20.742',1608.775
'0:20.746',1646.879
'0:20.750',1690.845
'0:20.754',1704.017
'0:20.758',1702.569
'0:20.762',1720.156
'0:20.766',1756.777
'0:20.770',1733.328
'0:20.773',1754.587
'0:20.777',1755.294
'0:20.781',1723.793
'0:20.785',1698.897
'0:20.789',1677.638
'0:20.793',1647.621
'0:20.797',1624.172
'0:20.801',1588.999
'0:20.805',1536.275
'0:20.809',1534.792
'0:20.813',1452.015
'0:20.816',1392.687
'0:20.820',1349.463
'0:20.824',1312.806
'0:20.828',1300.376
'0:20.832',1235.150
'0:20.836',1183.874
'0:20.840',1136.271
'0:20.844',1102.545
'0:20.848',1088.632
'0:20.852',1035.166
'0:20.855',1035.166
'0:20.859',1014.648
'0:20.863',1007.338
'0:20.867',974.355
'0:20.871',945.786
'0:20.875',985.338
'0:20.879',983.148
'0:20.883',945.044
'0:20.887',1005.855
'0:20.891',975.096
'0:20.895',1025.631
'0:20.898',999.251
'0:20.902',1056.425
'0:20.906',1099.650
'0:20.910',1131.150
'0:20.914',1161.167
'0:20.918',1186.805
'0:20.922',1220.495
'0:20.926',1248.358
'0:20.930',1325.272
'0:20.934',1331.876
'0:20.938',1367.755
'0:20.941',1444.670
'0:20.945',1498.171
'0:20.949',1548.705
'0:20.953',1569.223
'0:20.957',1597.792
'0:20.961',1645.431
'0:20.965',1677.638
'0:20.969',1689.362
'0:20.973',1710.621
'0:20.977',1739.932
'0:20.980',1774.363
'0:20.984',1788.277
'0:20.988',1789.019
'0:20.992',1800.743
'0:20.996',1811.726
'0:21.000',1837.364
'0:21.004',1856.398
'0:21.008',1848.347
'0:21.012',1844.674
'0:21.016',1813.174
'0:21.020',1789.019
'0:21.023',1772.174
'0:21.027',1757.518
'0:21.031',1740.674
'0:21.035',1733.328
'0:21.039',1714.294
'0:21.043',1721.604
'0:21.047',1675.448
'0:21.051',1685.725
'0:21.055',1616.862
'0:21.059',1614.637
'0:21.063',1620.499
'0:21.066',1564.102
'0:21.070',1590.482
'0:21.074',1527.482
'0:21.078',1530.413
'0:21.082',1520.878
'0:21.086',1506.964
'0:21.090',1459.325
'0:21.094',1449.084
'0:21.098',1480.584
'0:21.102',1462.998
'0:21.105',1432.239
'0:21.109',1407.307
'0:21.113',1393.393
'0:21.117',1392.687
'0:21.121',1376.549
'0:21.125',1356.031
'0:21.129',1357.514
'0:21.133',1383.152
'0:21.137',1375.101
'0:21.141',1369.945
'0:21.145',1324.531
'0:21.148',1307.686
'0:21.152',1328.945
'0:21.156',1326.755
'0:21.160',1312.100
'0:21.164',1312.806
'0:21.168',1309.875
'0:21.172',1281.306
'0:21.176',1327.462
'0:21.180',1316.479
'0:21.184',1285.720
'0:21.188',1304.013
'0:21.191',1335.513
'0:21.195',1293.030
'0:21.199',1310.617
'0:21.203',1350.910
'0:21.207',1301.082
'0:21.211',1326.014
'0:21.215',1349.463
'0:21.219',1335.513
'0:21.223',1329.651
'0:21.227',1342.117
'0:21.230',1316.479
'0:21.234',1318.669
'0:21.238',1331.876
'0:21.242',1331.876
'0:21.246',1300.376
'0:21.250',1315.737
'0:21.254',1281.306
'0:21.258',1251.289
'0:21.262',1235.892
'0:21.266',1218.305
'0:21.270',1210.995
'0:21.273',1217.564
'0:21.277',1208.064
'0:21.281',1212.443
'0:21.285',1178.012
'0:21.289',1154.563
'0:21.293',1167.771
'0:21.297',1169.219
'0:21.301',1112.080
'0:21.305',1129.667
'0:21.309',1149.443
'0:21.313',1141.391
'0:21.316',1095.977
'0:21.320',1117.201
'0:21.324',1149.443
'0:21.328',1110.632
'0:21.332',1152.374
'0:21.336',1180.943
'0:21.340',1191.219
'0:21.344',1193.409
'0:21.348',1233.702
'0:21.352',1263.720
'0:21.355',1315.737
'0:21.359',1328.945
'0:21.363',1382.411
'0:21.367',1449.084
'0:21.371',1479.136
'0:21.375',1533.344
'0:21.379',1559.688
'0:21.383',1580.206
'0:21.387',1665.207
'0:21.391',1654.931
'0:21.395',1718.673
'0:21.398',1701.086
'0:21.402',1708.432
'0:21.406',1726.724
'0:21.410',1730.397
'0:21.414',1743.605
'0:21.418',1738.449
'0:21.422',1678.379
'0:21.426',1683.500
'0:21.430',1676.931
'0:21.434',1627.845
'0:21.438',1567.775
'0:21.441',1527.482
'0:21.445',1509.153
'0:21.449',1463.739
'0:21.453',1460.808
'0:21.457',1414.653
'0:21.461',1359.704
'0:21.465',1362.635
'0:21.469',1286.462
'0:21.473',1279.858
'0:21.477',1274.738
'0:21.480',1252.737
'0:21.484',1234.444
'0:21.488',1216.116
'0:21.492',1193.409
'0:21.496',1134.081
'0:21.500',1176.564
'0:21.504',1123.063
'0:21.508',1152.374
'0:21.512',1169.219
'0:21.516',1131.856
'0:21.520',1144.322
'0:21.523',1169.219
'0:21.527',1209.512
'0:21.531',1200.013
'0:21.535',1231.513
'0:21.539',1251.995
'0:21.543',1243.944
'0:21.547',1307.686
'0:21.551',1313.548
'0:21.555',1320.152
'0:21.559',1362.635
'0:21.563',1397.808
'0:21.566',1447.601
'0:21.570',1469.602
'0:21.574',1455.688
'0:21.578',1477.653
'0:21.582',1525.998
'0:21.586',1548.705
'0:21.590',1539.206
'0:21.594',1580.947
'0:21.598',1569.223
'0:21.602',1588.293
'0:21.605',1613.931
'0:21.609',1578.758
'0:21.613',1582.430
'0:21.617',1624.913
'0:21.621',1572.896
'0:21.625',1587.551
'0:21.629',1587.551
'0:21.633',1575.085
'0:21.637',1561.913
'0:21.641',1550.930
'0:21.645',1514.274
'0:21.648',1555.309
'0:21.652',1500.360
'0:21.656',1533.344
'0:21.660',1515.016
'0:21.664',1475.464
'0:21.668',1459.325
'0:21.672',1427.119
'0:21.676',1435.170
'0:21.680',1441.739
'0:21.684',1441.032
'0:21.688',1386.083
'0:21.691',1422.704
'0:21.695',1397.066
'0:21.699',1372.170
'0:21.703',1408.790
'0:21.707',1355.325
'0:21.711',1369.945
'0:21.715',1402.187
'0:21.719',1375.101
'0:21.723',1367.755
'0:21.727',1372.170
'0:21.730',1369.945
'0:21.734',1420.515
'0:21.738',1421.963
'0:21.742',1424.187
'0:21.746',1418.325
'0:21.750',1414.653
'0:21.754',1445.411
'0:21.758',1472.533
'0:21.762',1460.067
'0:21.766',1468.118
'0:21.770',1506.964
'0:21.773',1467.412
'0:21.777',1472.533
'0:21.781',1521.619
'0:21.785',1489.377
'0:21.789',1492.309
'0:21.793',1542.137
'0:21.797',1545.068
'0:21.801',1547.257
'0:21.805',1534.792
'0:21.809',1528.188
'0:21.813',1517.205
'0:21.816',1522.326
'0:21.820',1528.929
'0:21.824',1485.705
'0:21.828',1480.584
'0:21.832',1452.757
'0:21.836',1442.480
'0:21.840',1434.429
'0:21.844',1440.291
'0:21.848',1408.049
'0:21.852',1441.739
'0:21.855',1408.790
'0:21.859',1383.152
'0:21.863',1375.807
'0:21.867',1394.135
'0:21.871',1357.514
'0:21.875',1326.014
'0:21.879',1328.945
'0:21.883',1301.082
'0:21.887',1292.289
'0:21.891',1298.893
'0:21.895',1305.496
'0:21.898',1249.806
'0:21.902',1289.393
'0:21.906',1278.375
'0:21.910',1265.944
'0:21.914',1248.358
'0:21.918',1238.823
'0:21.922',1221.978
'0:21.926',1243.944
'0:21.930',1216.858
'0:21.934',1216.858
'0:21.938',1241.754
'0:21.941',1227.840
'0:21.945',1232.219
'0:21.949',1277.669
'0:21.953',1262.272
'0:21.957',1259.341
'0:21.961',1317.221
'0:21.965',1305.496
'0:21.969',1298.893
'0:21.973',1315.737
'0:21.977',1330.393
'0:21.980',1350.169
'0:21.984',1417.584
'0:21.988',1426.377
'0:21.992',1417.584
'0:21.996',1476.205
'0:22.000',1469.602
'0:22.004',1527.482
'0:22.008',1518.688
'0:22.012',1583.878
'0:22.016',1560.430
'0:22.020',1582.430
'0:22.023',1605.138
'0:22.027',1664.465
'0:22.031',1696.707
'0:22.035',1703.311
'0:22.039',1712.811
'0:22.043',1727.466
'0:22.047',1710.621
'0:22.051',1693.035
'0:22.055',1682.793
'0:22.059',1665.207
'0:22.063',1654.224
'0:22.066',1630.776
'0:22.070',1634.413
'0:22.074',1571.412
'0:22.078',1551.636
'0:22.082',1554.568
'0:22.086',1493.050
'0:22.090',1443.222
'0:22.094',1413.911
'0:22.098',1381.669
'0:22.102',1361.893
'0:22.105',1353.841
'0:22.109',1273.254
'0:22.113',1277.669
'0:22.117',1244.685
'0:22.121',1194.857
'0:22.125',1175.081
'0:22.129',1187.547
'0:22.133',1147.253
'0:22.137',1147.995
'0:22.141',1108.408
'0:22.145',1136.271
'0:22.148',1128.925
'0:22.152',1104.770
'0:22.156',1126.736
'0:22.160',1148.701
'0:22.164',1159.719
'0:22.168',1171.444
'0:22.172',1186.805
'0:22.176',1186.805
'0:22.180',1201.461
'0:22.184',1226.357
'0:22.188',1220.495
'0:22.191',1293.772
'0:22.195',1272.513
'0:22.199',1342.859
'0:22.203',1350.910
'0:22.207',1350.169
'0:22.211',1399.997
'0:22.215',1401.480
'0:22.219',1416.100
'0:22.223',1392.687
'0:22.227',1404.376
'0:22.230',1415.394
'0:22.234',1421.256
'0:22.238',1430.756
'0:22.242',1442.480
'0:22.246',1493.050
'0:22.250',1477.653
'0:22.254',1462.998
'0:22.258',1476.912
'0:22.262',1515.016
'0:22.266',1488.636
'0:22.270',1482.032
'0:22.273',1471.049
'0:22.277',1498.912
'0:22.281',1503.291
'0:22.285',1476.912
'0:22.289',1464.481
'0:22.293',1454.946
'0:22.297',1450.532
'0:22.301',1454.205
'0:22.305',1437.360
'0:22.309',1437.360
'0:22.313',1423.446
'0:22.316',1430.756
'0:22.320',1402.928
'0:22.324',1367.014
'0:22.328',1412.463
'0:22.332',1372.876
'0:22.336',1369.238
'0:22.340',1395.618
'0:22.344',1344.307
'0:22.348',1366.307
'0:22.352',1391.946
'0:22.355',1348.721
'0:22.359',1385.342
'0:22.363',1346.531
'0:22.367',1349.463
'0:22.371',1389.756
'0:22.375',1340.669
'0:22.379',1370.686
'0:22.383',1390.462
'0:22.387',1364.118
'0:22.391',1360.445
'0:22.395',1381.669
'0:22.398',1396.324
'0:22.402',1374.359
'0:22.406',1362.635
'0:22.410',1352.394
'0:22.414',1369.945
'0:22.418',1391.204
'0:22.422',1347.238
'0:22.426',1377.290
'0:22.430',1365.566
'0:22.434',1326.755
'0:22.438',1361.187
'0:22.441',1304.755
'0:22.445',1317.221
'0:22.449',1330.393
'0:22.453',1294.514
'0:22.457',1282.048
'0:22.461',1278.375
'0:22.465',1263.013
'0:22.469',1266.651
'0:22.473',1250.547
'0:22.477',1244.685
'0:22.480',1216.116
'0:22.484',1205.133
'0:22.488',1194.857
'0:22.492',1165.581
'0:22.496',1204.392
'0:22.500',1206.581
'0:22.504',1192.667
'0:22.508',1159.719
'0:22.512',1213.927
'0:22.516',1202.202
'0:22.520',1175.081
'0:22.523',1208.064
'0:22.527',1247.616
'0:22.531',1242.496
'0:22.535',1230.771
'0:22.539',1273.996
'0:22.543',1290.841
'0:22.547',1268.875
'0:22.551',1318.669
'0:22.555',1295.961
'0:22.559',1325.272
'0:22.563',1368.497
'0:22.566',1358.256
'0:22.570',1340.669
'0:22.574',1352.394
'0:22.578',1362.635
'0:22.582',1387.531
'0:22.586',1402.928
'0:22.590',1433.687
'0:22.594',1446.153
'0:22.598',1455.688
'0:22.602',1464.481
'0:22.605',1472.533
'0:22.609',1444.670
'0:22.613',1438.101
'0:22.617',1452.015
'0:22.621',1454.205
'0:22.625',1455.688
'0:22.629',1489.377
'0:22.633',1522.326
'0:22.637',1504.774
'0:22.641',1512.085
'0:22.645',1501.102
'0:22.648',1504.774
'0:22.652',1524.550
'0:22.656',1544.326
'0:22.660',1534.050
'0:22.664',1550.189
'0:22.668',1569.965
'0:22.672',1608.775
'0:22.676',1600.723
'0:22.680',1616.120
'0:22.684',1625.655
'0:22.688',1613.931
'0:22.691',1668.880
'0:22.695',1627.845
'0:22.699',1683.500
'0:22.703',1645.431
'0:22.707',1641.017
'0:22.711',1676.190
'0:22.715',1653.483
'0:22.719',1639.569
'0:22.723',1665.207
'0:22.727',1608.069
'0:22.730',1628.586
'0:22.734',1575.827
'0:22.738',1604.396
'0:22.742',1536.275
'0:22.746',1525.257
'0:22.750',1494.498
'0:22.754',1466.670
'0:22.758',1425.635
'0:22.762',1397.808
'0:22.766',1367.014
'0:22.770',1355.325
'0:22.773',1359.704
'0:22.777',1293.772
'0:22.781',1308.427
'0:22.785',1273.254
'0:22.789',1238.081
'0:22.793',1236.634
'0:22.797',1216.858
'0:22.801',1191.926
'0:22.805',1197.082
'0:22.809',1189.736
'0:22.813',1173.633
'0:22.816',1194.151
'0:22.820',1200.013
'0:22.824',1207.323
'0:22.828',1214.633
'0:22.832',1218.305
'0:22.836',1221.237
'0:22.840',1241.754
'0:22.844',1241.754
'0:22.848',1312.100
'0:22.852',1283.531
'0:22.855',1347.238
'0:22.859',1380.963
'0:22.863',1362.635
'0:22.867',1385.342
'0:22.871',1407.307
'0:22.875',1430.756
'0:22.879',1452.757
'0:22.883',1470.343
'0:22.887',1494.498
'0:22.891',1547.257
'0:22.895',1545.774
'0:22.898',1532.602
'0:22.902',1526.740
'0:22.906',1533.344
'0:22.910',1550.930
'0:22.914',1583.878
'0:22.918',1566.292
'0:22.922',1547.999
'0:22.926',1547.257
'0:22.930',1578.758
'0:22.934',1546.516
'0:22.938',1520.136
'0:22.941',1510.637
'0:22.945',1505.481
'0:22.949',1487.188
'0:22.953',1467.412
'0:22.957',1455.688
'0:22.961',1449.084
'0:22.965',1451.273
'0:22.969',1438.101
'0:22.973',1441.739
'0:22.977',1428.566
'0:22.980',1362.635
'0:22.984',1371.428
'0:22.988',1386.083
'0:22.992',1328.203
'0:22.996',1340.669
'0:23.000',1342.117
'0:23.004',1356.773
'0:23.008',1306.238
'0:23.012',1331.134
'0:23.016',1356.773
'0:23.020',1320.152
'0:23.023',1339.186
'0:23.027',1361.187
'0:23.031',1325.272
'0:23.035',1374.359
'0:23.039',1344.307
'0:23.043',1353.100
'0:23.047',1397.808
'0:23.051',1353.100
'0:23.055',1369.238
'0:23.059',1388.273
'0:23.063',1424.894
'0:23.066',1407.307
'0:23.070',1394.877
'0:23.074',1402.928
'0:23.078',1434.429
'0:23.082',1441.739
'0:23.086',1459.325
'0:23.090',1464.481
'0:23.094',1463.739
'0:23.098',1465.187
'0:23.102',1454.946
'0:23.105',1426.377
'0:23.109',1408.790
'0:23.113',1421.256
'0:23.117',1434.429
'0:23.121',1389.014
'0:23.125',1409.532
'0:23.129',1358.256
'0:23.133',1381.669
'0:23.137',1341.376
'0:23.141',1321.600
'0:23.145',1348.721
'0:23.148',1312.806
'0:23.152',1279.117
'0:23.156',1279.858
'0:23.160',1290.841
'0:23.164',1276.927
'0:23.168',1257.857
'0:23.172',1260.788
'0:23.176',1201.461
'0:23.180',1188.288
'0:23.184',1206.581
'0:23.188',1217.564
'0:23.191',1166.288
'0:23.195',1202.202
'0:23.199',1165.581
'0:23.203',1177.270
'0:23.207',1125.994
'0:23.211',1145.770
'0:23.215',1172.150
'0:23.219',1171.444
'0:23.223',1180.201
'0:23.227',1186.805
'0:23.230',1196.340
'0:23.234',1211.737
'0:23.238',1211.737
'0:23.242',1224.168
'0:23.246',1241.754
'0:23.250',1254.926
'0:23.254',1271.065
'0:23.258',1322.341
'0:23.262',1342.859
'0:23.266',1350.169
'0:23.270',1335.513
'0:23.273',1394.135
'0:23.277',1383.152
'0:23.281',1404.376
'0:23.285',1432.981
'0:23.289',1462.256
'0:23.293',1504.774
'0:23.297',1526.740
'0:23.301',1550.930
'0:23.305',1553.120
'0:23.309',1586.809
'0:23.313',1646.879
'0:23.316',1641.758
'0:23.320',1651.293
'0:23.324',1703.311
'0:23.328',1678.379
'0:23.332',1728.949
'0:23.336',1698.897
'0:23.340',1730.397
'0:23.344',1694.518
'0:23.348',1695.966
'0:23.352',1693.776
'0:23.355',1703.311
'0:23.359',1638.827
'0:23.363',1622.724
'0:23.367',1633.707
'0:23.371',1601.465
'0:23.375',1540.654
'0:23.379',1507.706
'0:23.383',1503.291
'0:23.387',1458.619
'0:23.391',1424.894
'0:23.395',1432.981
'0:23.398',1373.617
'0:23.402',1369.238
'0:23.406',1366.307
'0:23.410',1328.945
'0:23.414',1304.755
'0:23.418',1307.686
'0:23.422',1299.634
'0:23.426',1276.185
'0:23.430',1245.427
'0:23.434',1258.599
'0:23.438',1282.048
