'Elapsed time','wrist_ppg'
'hh:mm:ss.mmm','mV'
'0:00.000',1799.270
'0:00.004',1793.418
'0:00.008',1844.688
'0:00.012',1825.629
'0:00.016',1820.516
'0:00.020',1854.942
'0:00.023',1839.575
'0:00.027',1831.508
'0:00.031',1850.539
'0:00.035',1849.090
'0:00.039',1865.196
'0:00.043',1831.508
'0:00.047',1864.457
'0:00.051',1836.621
'0:00.055',1797.793
'0:00.059',1826.368
'0:00.063',1791.204
'0:00.066',1755.301
'0:00.070',1735.532
'0:00.074',1717.950
'0:00.078',1693.778
'0:00.082',1675.458
'0:00.086',1687.899
'0:00.090',1634.442
'0:00.094',1605.130
'0:00.098',1605.868
'0:00.102',1561.899
'0:00.105',1528.950
'0:00.109',1534.802
'0:00.113',1519.407
'0:00.117',1487.169
'0:00.121',1468.138
'0:00.125',1421.243
'0:00.129',1392.669
'0:00.133',1421.243
'0:00.137',1358.243
'0:00.141',1390.482
'0:00.145',1358.982
'0:00.148',1391.931
'0:00.152',1386.079
'0:00.156',1340.661
'0:00.160',1377.302
'0:00.164',1361.907
'0:00.168',1363.357
'0:00.172',1384.603
'0:00.176',1413.915
'0:00.180',1373.638
'0:00.184',1378.751
'0:00.188',1429.310
'0:00.191',1434.423
'0:00.195',1424.169
'0:00.199',1430.759
'0:00.203',1421.982
'0:00.207',1421.243
'0:00.211',1364.095
'0:00.215',1384.603
'0:00.219',1350.177
'0:00.223',1353.103
'0:00.227',1302.572
'0:00.230',1323.079
'0:00.234',1269.595
'0:00.238',1232.955
'0:00.242',1197.080
'0:00.246',1183.162
'0:00.250',1164.841
'0:00.254',1104.767
'0:00.258',1086.447
'0:00.262',1051.283
'0:00.266',1010.268
'0:00.270',996.350
'0:00.273',980.217
'0:00.277',954.568
'0:00.281',948.717
'0:00.285',931.135
'0:00.289',911.365
'0:00.293',921.619
'0:00.297',942.127
'0:00.301',956.045
'0:00.305',972.150
'0:00.309',975.815
'0:00.313',970.701
'0:00.316',1047.619
'0:00.320',1075.455
'0:00.324',1065.939
'0:00.328',1114.283
'0:00.332',1160.439
'0:00.336',1178.021
'0:00.340',1257.154
'0:00.344',1252.751
'0:00.348',1329.669
'0:00.352',1316.490
'0:00.355',1383.892
'0:00.359',1419.056
'0:00.363',1422.720
'0:00.367',1423.431
'0:00.371',1490.833
'0:00.375',1456.407
'0:00.379',1517.958
'0:00.383',1479.841
'0:00.387',1520.884
'0:00.391',1512.817
'0:00.395',1488.646
'0:00.398',1528.212
'0:00.402',1491.571
'0:00.406',1477.653
'0:00.410',1499.638
'0:00.414',1474.728
'0:00.418',1452.743
'0:00.422',1447.630
'0:00.426',1457.146
'0:00.430',1430.759
'0:00.434',1386.079
'0:00.438',1375.087
'0:00.441',1369.236
'0:00.445',1398.548
'0:00.449',1339.923
'0:00.453',1369.236
'0:00.457',1387.556
'0:00.461',1343.587
'0:00.465',1342.849
'0:00.469',1367.759
'0:00.473',1408.802
'0:00.477',1420.505
'0:00.480',1402.185
'0:00.484',1399.997
'0:00.488',1424.169
'0:00.492',1448.341
'0:00.496',1516.481
'0:00.500',1530.399
'0:00.504',1518.669
'0:00.508',1593.399
'0:00.512',1570.704
'0:00.516',1600.727
'0:00.520',1621.235
'0:00.523',1646.884
'0:00.527',1665.942
'0:00.531',1684.973
'0:00.535',1723.090
'0:00.539',1717.950
'0:00.543',1734.793
'0:00.547',1753.852
'0:00.551',1750.926
'0:00.555',1770.696
'0:00.559',1794.868
'0:00.563',1757.516
'0:00.566',1758.965
'0:00.570',1765.555
'0:00.574',1752.375
'0:00.578',1751.637
'0:00.582',1780.211
'0:00.586',1738.458
'0:00.590',1715.762
'0:00.594',1701.844
'0:00.598',1709.145
'0:00.602',1717.950
'0:00.605',1665.204
'0:00.609',1632.966
'0:00.613',1661.540
'0:00.617',1624.899
'0:00.621',1577.294
'0:00.625',1559.712
'0:00.629',1547.243
'0:00.633',1527.474
'0:00.637',1503.302
'0:00.641',1485.720
'0:00.645',1479.130
'0:00.648',1452.005
'0:00.652',1462.259
'0:00.656',1406.587
'0:00.660',1446.153
'0:00.664',1420.505
'0:00.668',1396.333
'0:00.672',1370.685
'0:00.676',1345.775
'0:00.680',1386.079
'0:00.684',1357.505
'0:00.688',1320.154
'0:00.691',1323.079
'0:00.695',1336.997
'0:00.699',1293.767
'0:00.703',1276.923
'0:00.707',1291.580
'0:00.711',1298.169
'0:00.715',1257.865
'0:00.719',1298.908
'0:00.723',1246.162
'0:00.727',1297.431
'0:00.730',1247.611
'0:00.734',1301.095
'0:00.738',1260.080
'0:00.742',1294.505
'0:00.746',1312.826
'0:00.750',1317.939
'0:00.754',1279.111
'0:00.758',1282.064
'0:00.762',1289.365
'0:00.766',1316.490
'0:00.770',1328.193
'0:00.773',1311.349
'0:00.777',1291.580
'0:00.781',1287.915
'0:00.785',1289.365
'0:00.789',1295.244
'0:00.793',1336.997
'0:00.797',1333.333
'0:00.801',1311.349
'0:00.805',1346.513
'0:00.809',1332.595
'0:00.813',1289.365
'0:00.816',1310.611
'0:00.820',1326.744
'0:00.824',1319.415
'0:00.828',1263.005
'0:00.832',1280.587
'0:00.836',1256.416
'0:00.840',1249.087
'0:00.844',1276.185
'0:00.848',1232.955
'0:00.852',1267.408
'0:00.855',1222.701
'0:00.859',1263.005
'0:00.863',1231.505
'0:00.867',1218.326
'0:00.871',1273.998
'0:00.875',1263.005
'0:00.879',1235.169
'0:00.883',1293.029
'0:00.887',1279.111
'0:00.891',1254.201
'0:00.895',1295.982
'0:00.898',1276.185
'0:00.902',1279.111
'0:00.906',1325.267
'0:00.910',1296.693
'0:00.914',1301.833
'0:00.918',1326.005
'0:00.922',1318.677
'0:00.926',1334.072
'0:00.930',1317.228
'0:00.934',1344.325
'0:00.938',1354.579
'0:00.941',1324.556
'0:00.945',1347.251
'0:00.949',1377.302
'0:00.953',1339.923
'0:00.957',1330.408
'0:00.961',1348.728
'0:00.965',1358.243
'0:00.969',1375.825
'0:00.973',1320.154
'0:00.977',1309.900
'0:00.980',1325.267
'0:00.984',1296.693
'0:00.988',1284.990
'0:00.992',1288.654
'0:00.996',1243.236
'0:01.000',1233.693
'0:01.004',1219.037
'0:01.008',1186.088
'0:01.012',1172.170
'0:01.016',1160.439
'0:01.020',1145.783
'0:01.023',1157.513
'0:01.027',1116.470
'0:01.031',1082.045
'0:01.035',1100.365
'0:01.039',1071.053
'0:01.043',1063.014
'0:01.047',1083.521
'0:01.051',1086.447
'0:01.055',1082.783
'0:01.059',1072.529
'0:01.063',1022.709
'0:01.066',1058.611
'0:01.070',1016.119
'0:01.074',1063.724
'0:01.078',1040.291
'0:01.082',1058.611
'0:01.086',1046.881
'0:01.090',1030.775
'0:01.094',1063.724
'0:01.098',1088.635
'0:01.102',1086.447
'0:01.105',1120.873
'0:01.109',1150.185
'0:01.113',1180.209
'0:01.117',1181.685
'0:01.121',1268.857
'0:01.125',1273.259
'0:01.129',1344.325
'0:01.133',1405.849
'0:01.137',1440.302
'0:01.141',1545.056
'0:01.145',1569.227
'0:01.148',1627.852
'0:01.152',1719.426
'0:01.156',1800.008
'0:01.160',1826.368
'0:01.164',1919.418
'0:01.168',1983.895
'0:01.172',2030.762
'0:01.176',2068.140
'0:01.180',2115.746
'0:01.184',2134.804
'0:01.188',2166.304
'0:01.191',2197.066
'0:01.195',2209.535
'0:01.199',2232.968
'0:01.203',2253.476
'0:01.207',2221.976
'0:01.211',2219.789
'0:01.215',2211.722
'0:01.219',2171.418
'0:01.223',2161.902
'0:01.227',2123.074
'0:01.230',2076.180
'0:01.234',2004.402
'0:01.238',1927.485
'0:01.242',1876.188
'0:01.246',1806.598
'0:01.250',1734.793
'0:01.254',1682.047
'0:01.258',1644.696
'0:01.262',1553.122
'0:01.266',1481.317
'0:01.270',1435.900
'0:01.273',1419.056
'0:01.277',1334.810
'0:01.281',1291.580
'0:01.285',1294.505
'0:01.289',1263.005
'0:01.293',1231.505
'0:01.297',1217.587
'0:01.301',1207.334
'0:01.305',1193.416
'0:01.309',1200.005
'0:01.313',1194.865
'0:01.316',1204.408
'0:01.320',1208.072
'0:01.324',1198.529
'0:01.328',1206.595
'0:01.332',1231.505
'0:01.336',1220.513
'0:01.340',1219.775
'0:01.344',1246.162
'0:01.348',1267.408
'0:01.352',1290.103
'0:01.355',1298.169
'0:01.359',1309.162
'0:01.363',1320.892
'0:01.367',1326.005
'0:01.371',1311.349
'0:01.375',1298.908
'0:01.379',1290.841
'0:01.383',1300.357
'0:01.387',1312.826
'0:01.391',1315.751
'0:01.395',1328.193
'0:01.398',1322.341
'0:01.402',1268.857
'0:01.406',1262.267
'0:01.410',1285.728
'0:01.414',1304.021
'0:01.418',1303.310
'0:01.422',1282.064
'0:01.426',1246.900
'0:01.430',1256.416
'0:01.434',1253.490
'0:01.438',1259.341
'0:01.441',1219.037
'0:01.445',1220.513
'0:01.449',1222.701
'0:01.453',1159.701
'0:01.457',1165.580
'0:01.461',1106.217
'0:01.465',1088.635
'0:01.469',1060.799
'0:01.473',1083.521
'0:01.477',1058.611
'0:01.480',1054.947
'0:01.484',1042.478
'0:01.488',1036.627
'0:01.492',1003.650
'0:01.496',1058.611
'0:01.500',1034.439
'0:01.504',1052.021
'0:01.508',1100.365
'0:01.512',1102.553
'0:01.516',1159.701
'0:01.520',1211.709
'0:01.523',1202.931
'0:01.527',1242.498
'0:01.531',1290.841
'0:01.535',1363.357
'0:01.539',1377.302
'0:01.543',1440.302
'0:01.547',1504.751
'0:01.551',1517.220
'0:01.555',1528.950
'0:01.559',1579.481
'0:01.563',1578.032
'0:01.566',1616.122
'0:01.570',1638.817
'0:01.574',1616.122
'0:01.578',1661.540
'0:01.582',1662.278
'0:01.586',1635.153
'0:01.590',1609.532
'0:01.594',1605.130
'0:01.598',1620.524
'0:01.602',1569.227
'0:01.605',1541.392
'0:01.609',1528.212
'0:01.613',1517.958
'0:01.617',1441.751
'0:01.621',1448.341
'0:01.625',1402.923
'0:01.629',1357.505
'0:01.633',1325.267
'0:01.637',1310.611
'0:01.641',1254.201
'0:01.645',1244.685
'0:01.648',1245.423
'0:01.652',1178.021
'0:01.656',1196.341
'0:01.660',1169.244
'0:01.664',1188.275
'0:01.668',1203.670
'0:01.672',1185.349
'0:01.676',1211.709
'0:01.680',1245.423
'0:01.684',1248.349
'0:01.688',1308.423
'0:01.691',1341.400
'0:01.695',1402.185
'0:01.699',1397.071
'0:01.703',1449.817
'0:01.707',1519.407
'0:01.711',1539.204
'0:01.715',1552.384
'0:01.719',1632.966
'0:01.723',1628.563
'0:01.727',1657.876
'0:01.730',1682.047
'0:01.734',1721.614
'0:01.738',1720.137
'0:01.742',1723.801
'0:01.746',1742.860
'0:01.750',1780.211
'0:01.754',1756.778
'0:01.758',1740.672
'0:01.762',1728.204
'0:01.766',1730.391
'0:01.770',1723.090
'0:01.773',1734.793
'0:01.777',1686.450
'0:01.781',1678.383
'0:01.785',1681.309
'0:01.789',1630.040
'0:01.793',1609.532
'0:01.797',1614.645
'0:01.801',1570.704
'0:01.805',1536.251
'0:01.809',1534.802
'0:01.813',1507.704
'0:01.816',1477.653
'0:01.820',1465.212
'0:01.824',1479.130
'0:01.828',1454.220
'0:01.832',1423.431
'0:01.836',1443.966
'0:01.840',1441.013
'0:01.844',1399.997
'0:01.848',1409.513
'0:01.852',1378.013
'0:01.855',1418.318
'0:01.859',1371.423
'0:01.863',1383.892
'0:01.867',1405.138
'0:01.871',1398.548
'0:01.875',1371.423
'0:01.879',1405.849
'0:01.883',1389.005
'0:01.887',1397.810
'0:01.891',1408.802
'0:01.895',1381.677
'0:01.898',1369.236
'0:01.902',1410.989
'0:01.906',1377.302
'0:01.910',1397.071
'0:01.914',1361.907
'0:01.918',1390.482
'0:01.922',1364.095
'0:01.926',1330.408
'0:01.930',1361.907
'0:01.934',1332.595
'0:01.938',1339.923
'0:01.941',1317.939
'0:01.945',1321.603
'0:01.949',1276.185
'0:01.953',1320.154
'0:01.957',1312.826
'0:01.961',1298.908
'0:01.965',1284.990
'0:01.969',1266.669
'0:01.973',1257.154
'0:01.977',1241.021
'0:01.980',1218.326
'0:01.984',1220.513
'0:01.988',1212.447
'0:01.992',1199.267
'0:01.996',1189.013
'0:02.000',1189.752
'0:02.004',1225.654
'0:02.008',1209.521
'0:02.012',1202.931
'0:02.016',1207.334
'0:02.020',1210.998
'0:02.023',1213.923
'0:02.027',1203.670
'0:02.031',1182.423
'0:02.035',1175.834
'0:02.039',1179.498
'0:02.043',1190.490
'0:02.047',1191.201
'0:02.051',1189.013
'0:02.055',1182.423
'0:02.059',1203.670
'0:02.063',1205.119
'0:02.066',1220.513
'0:02.070',1235.169
'0:02.074',1254.939
'0:02.078',1262.267
'0:02.082',1322.341
'0:02.086',1358.982
'0:02.090',1367.759
'0:02.094',1419.794
'0:02.098',1452.005
'0:02.102',1504.751
'0:02.105',1572.153
'0:02.109',1598.540
'0:02.113',1602.204
'0:02.117',1632.227
'0:02.121',1680.598
'0:02.125',1657.137
'0:02.129',1651.286
'0:02.133',1654.212
'0:02.137',1670.317
'0:02.141',1630.040
'0:02.145',1658.614
'0:02.148',1598.540
'0:02.152',1620.524
'0:02.156',1578.032
'0:02.160',1534.063
'0:02.164',1492.310
'0:02.168',1453.482
'0:02.172',1438.825
'0:02.176',1387.556
'0:02.180',1334.072
'0:02.184',1305.497
'0:02.188',1301.833
'0:02.191',1271.072
'0:02.195',1216.111
'0:02.199',1172.170
'0:02.203',1194.127
'0:02.207',1140.670
'0:02.211',1117.209
'0:02.215',1087.185
'0:02.219',1090.111
'0:02.223',1117.947
'0:02.227',1095.252
'0:02.230',1079.857
'0:02.234',1106.217
'0:02.238',1078.381
'0:02.242',1125.275
'0:02.246',1144.334
'0:02.250',1112.095
'0:02.254',1163.365
'0:02.258',1178.021
'0:02.262',1156.775
'0:02.266',1198.529
'0:02.270',1243.947
'0:02.273',1259.341
'0:02.277',1230.767
'0:02.281',1263.005
'0:02.285',1292.318
'0:02.289',1293.029
'0:02.293',1338.474
'0:02.297',1349.439
'0:02.301',1368.497
'0:02.305',1408.064
'0:02.309',1435.161
'0:02.313',1450.556
'0:02.316',1501.087
'0:02.320',1512.817
'0:02.324',1516.481
'0:02.328',1590.473
'0:02.332',1581.696
'0:02.336',1624.899
'0:02.340',1649.809
'0:02.344',1687.899
'0:02.348',1713.547
'0:02.352',1704.770
'0:02.355',1709.883
'0:02.359',1723.090
'0:02.363',1743.598
'0:02.367',1786.090
'0:02.371',1794.868
'0:02.375',1792.680
'0:02.379',1775.836
'0:02.383',1760.442
'0:02.387',1762.629
'0:02.391',1788.278
'0:02.395',1772.172
'0:02.398',1767.770
'0:02.402',1753.114
'0:02.406',1706.219
'0:02.410',1681.309
'0:02.414',1654.950
'0:02.418',1668.130
'0:02.422',1611.720
'0:02.426',1578.743
'0:02.430',1594.138
'0:02.434',1531.138
'0:02.438',1498.899
'0:02.441',1495.235
'0:02.445',1475.466
'0:02.449',1462.997
'0:02.453',1392.669
'0:02.457',1372.161
'0:02.461',1397.071
'0:02.465',1356.056
'0:02.469',1317.228
'0:02.473',1339.923
'0:02.477',1308.423
'0:02.480',1301.095
'0:02.484',1299.646
'0:02.488',1308.423
'0:02.492',1278.400
'0:02.496',1271.072
'0:02.500',1249.826
'0:02.504',1273.998
'0:02.508',1288.654
'0:02.512',1293.767
'0:02.516',1289.365
'0:02.520',1284.990
'0:02.523',1278.400
'0:02.527',1282.775
'0:02.531',1337.736
'0:02.535',1315.751
'0:02.539',1331.146
'0:02.543',1360.431
'0:02.547',1338.474
'0:02.551',1364.095
'0:02.555',1408.802
'0:02.559',1368.497
'0:02.563',1394.884
'0:02.566',1409.513
'0:02.570',1405.138
'0:02.574',1427.833
'0:02.578',1380.966
'0:02.582',1401.474
'0:02.586',1414.653
'0:02.590',1371.423
'0:02.594',1340.661
'0:02.598',1368.497
'0:02.602',1317.939
'0:02.605',1273.998
'0:02.609',1295.244
'0:02.613',1260.080
'0:02.617',1230.029
'0:02.621',1195.603
'0:02.625',1145.045
'0:02.629',1081.306
'0:02.633',1099.627
'0:02.637',1023.447
'0:02.641',1052.760
'0:02.645',1008.053
'0:02.648',976.553
'0:02.652',1019.783
'0:02.656',1011.717
'0:02.660',978.029
'0:02.664',1036.627
'0:02.668',1004.389
'0:02.672',1068.865
'0:02.676',1071.791
'0:02.680',1116.470
'0:02.684',1143.595
'0:02.688',1182.423
'0:02.691',1188.275
'0:02.695',1233.693
'0:02.699',1270.333
'0:02.703',1293.029
'0:02.707',1323.079
'0:02.711',1398.548
'0:02.715',1435.900
'0:02.719',1436.638
'0:02.723',1444.677
'0:02.727',1468.138
'0:02.730',1496.712
'0:02.734',1550.196
'0:02.738',1562.638
'0:02.742',1558.974
'0:02.746',1531.138
'0:02.750',1534.802
'0:02.754',1534.063
'0:02.758',1534.802
'0:02.762',1529.661
'0:02.766',1517.220
'0:02.770',1553.122
'0:02.773',1528.212
'0:02.777',1504.751
'0:02.781',1502.563
'0:02.785',1497.423
'0:02.789',1477.653
'0:02.793',1416.841
'0:02.797',1438.825
'0:02.801',1393.407
'0:02.805',1353.841
'0:02.809',1358.982
'0:02.813',1339.923
'0:02.816',1359.720
'0:02.820',1332.595
'0:02.824',1308.423
'0:02.828',1320.154
'0:02.832',1340.661
'0:02.836',1342.849
'0:02.840',1310.611
'0:02.844',1364.833
'0:02.848',1341.400
'0:02.852',1372.161
'0:02.855',1410.989
'0:02.859',1410.989
'0:02.863',1435.161
'0:02.867',1436.638
'0:02.871',1465.212
'0:02.875',1541.392
'0:02.879',1552.384
'0:02.883',1567.778
'0:02.887',1587.548
'0:02.891',1628.563
'0:02.895',1645.434
'0:02.898',1679.860
'0:02.902',1703.294
'0:02.906',1737.719
'0:02.910',1725.278
'0:02.914',1753.114
'0:02.918',1748.711
'0:02.922',1758.965
'0:02.926',1761.918
'0:02.930',1763.368
'0:02.934',1754.590
'0:02.938',1746.524
'0:02.941',1742.860
'0:02.945',1728.942
'0:02.949',1723.090
'0:02.953',1705.508
'0:02.957',1688.637
'0:02.961',1721.614
'0:02.965',1676.934
'0:02.969',1645.434
'0:02.973',1654.950
'0:02.977',1665.204
'0:02.980',1604.391
'0:02.984',1614.645
'0:02.988',1590.473
'0:02.992',1576.556
'0:02.996',1595.614
'0:03.000',1551.645
'0:03.004',1517.958
'0:03.008',1540.653
'0:03.012',1487.169
'0:03.016',1509.892
'0:03.020',1498.899
'0:03.023',1480.579
'0:03.027',1462.997
'0:03.031',1441.013
'0:03.035',1418.318
'0:03.039',1410.989
'0:03.043',1410.989
'0:03.047',1348.728
'0:03.051',1367.759
'0:03.055',1375.825
'0:03.059',1367.759
'0:03.063',1360.431
'0:03.066',1309.162
'0:03.070',1306.236
'0:03.074',1317.228
'0:03.078',1339.923
'0:03.082',1336.259
'0:03.086',1315.013
'0:03.090',1277.662
'0:03.094',1313.564
'0:03.098',1320.892
'0:03.102',1263.744
'0:03.105',1282.775
'0:03.109',1301.833
'0:03.113',1257.865
'0:03.117',1279.849
'0:03.121',1294.505
'0:03.125',1251.275
'0:03.129',1273.259
'0:03.133',1271.783
'0:03.137',1271.783
'0:03.141',1311.349
'0:03.145',1297.431
'0:03.148',1269.595
'0:03.152',1304.021
'0:03.156',1311.349
'0:03.160',1291.580
'0:03.164',1334.072
'0:03.168',1311.349
'0:03.172',1308.423
'0:03.176',1341.400
'0:03.180',1321.603
'0:03.184',1317.939
'0:03.188',1296.693
'0:03.191',1315.013
'0:03.195',1331.146
'0:03.199',1311.349
'0:03.203',1298.169
'0:03.207',1335.521
'0:03.211',1312.087
'0:03.215',1309.162
'0:03.219',1315.751
'0:03.223',1316.490
'0:03.227',1310.611
'0:03.230',1270.333
'0:03.234',1233.693
'0:03.238',1259.341
'0:03.242',1210.259
'0:03.246',1224.916
'0:03.250',1183.162
'0:03.254',1171.431
'0:03.258',1175.095
'0:03.262',1214.662
'0:03.266',1210.998
'0:03.270',1192.677
'0:03.273',1186.826
'0:03.277',1243.947
'0:03.281',1219.037
'0:03.285',1275.447
'0:03.289',1316.490
'0:03.293',1347.251
'0:03.297',1363.357
'0:03.301',1381.677
'0:03.305',1389.005
'0:03.309',1449.079
'0:03.313',1475.466
'0:03.316',1462.997
'0:03.320',1483.505
'0:03.324',1515.743
'0:03.328',1550.196
'0:03.332',1504.751
'0:03.336',1550.907
'0:03.340',1506.228
'0:03.344',1546.532
'0:03.348',1504.751
'0:03.352',1472.540
'0:03.355',1492.310
'0:03.359',1454.958
'0:03.363',1399.997
'0:03.367',1393.407
'0:03.371',1367.759
'0:03.375',1284.990
'0:03.379',1287.177
'0:03.383',1232.244
'0:03.387',1207.334
'0:03.391',1190.490
'0:03.395',1128.939
'0:03.398',1084.260
'0:03.402',1031.514
'0:03.406',1045.432
'0:03.410',1005.127
'0:03.414',977.291
'0:03.418',965.561
'0:03.422',949.455
'0:03.426',905.487
'0:03.430',882.791
'0:03.434',920.143
'0:03.438',946.529
'0:03.441',925.283
'0:03.445',964.111
'0:03.449',1000.725
'0:03.453',1020.521
'0:03.457',1032.963
'0:03.461',1101.842
'0:03.465',1172.170
'0:03.469',1220.513
'0:03.473',1252.751
'0:03.477',1302.572
'0:03.480',1332.595
'0:03.484',1383.154
'0:03.488',1475.466
'0:03.492',1482.794
'0:03.496',1553.122
'0:03.500',1595.614
'0:03.504',1598.540
'0:03.508',1632.227
'0:03.512',1659.352
'0:03.516',1728.942
'0:03.520',1700.368
'0:03.523',1729.680
'0:03.527',1737.008
'0:03.531',1725.278
'0:03.535',1730.391
'0:03.539',1765.555
'0:03.543',1725.278
'0:03.547',1739.934
'0:03.551',1723.090
'0:03.555',1724.540
'0:03.559',1699.629
'0:03.563',1690.852
'0:03.566',1672.532
'0:03.570',1613.907
'0:03.574',1617.571
'0:03.578',1625.637
'0:03.582',1567.040
'0:03.586',1599.989
'0:03.590',1542.868
'0:03.594',1542.868
'0:03.598',1574.368
'0:03.602',1524.548
'0:03.605',1554.571
'0:03.609',1541.392
'0:03.613',1518.669
'0:03.617',1542.868
'0:03.621',1506.228
'0:03.625',1515.743
'0:03.629',1526.735
'0:03.633',1494.497
'0:03.637',1491.571
'0:03.641',1487.907
'0:03.645',1493.786
'0:03.648',1471.064
'0:03.652',1463.735
'0:03.656',1427.095
'0:03.660',1416.841
'0:03.664',1391.931
'0:03.668',1387.556
'0:03.672',1402.923
'0:03.676',1372.900
'0:03.680',1374.349
'0:03.684',1309.900
'0:03.688',1347.251
'0:03.691',1299.646
'0:03.695',1290.103
'0:03.699',1273.998
'0:03.703',1268.857
'0:03.707',1290.841
'0:03.711',1306.947
'0:03.715',1284.990
'0:03.719',1273.259
'0:03.723',1307.685
'0:03.727',1295.982
'0:03.730',1274.736
'0:03.734',1317.939
'0:03.738',1284.990
'0:03.742',1276.185
'0:03.746',1325.267
'0:03.750',1298.908
'0:03.754',1281.326
'0:03.758',1324.556
'0:03.762',1289.365
'0:03.766',1316.490
'0:03.770',1263.744
'0:03.773',1297.431
'0:03.777',1254.939
'0:03.781',1254.201
'0:03.785',1261.529
'0:03.789',1235.169
'0:03.793',1217.587
'0:03.797',1182.423
'0:03.801',1219.775
'0:03.805',1213.185
'0:03.809',1200.744
'0:03.813',1205.119
'0:03.816',1180.947
'0:03.820',1142.857
'0:03.824',1154.588
'0:03.828',1159.701
'0:03.832',1109.170
'0:03.836',1120.135
'0:03.840',1076.193
'0:03.844',1024.896
'0:03.848',1015.381
'0:03.852',1032.963
'0:03.855',1010.978
'0:03.859',999.275
'0:03.863',1000.014
'0:03.867',1004.389
'0:03.871',999.275
'0:03.875',1016.857
'0:03.879',1005.127
'0:03.883',1072.529
'0:03.887',1063.014
'0:03.891',1123.799
'0:03.895',1190.490
'0:03.898',1230.029
'0:03.902',1255.677
'0:03.906',1336.997
'0:03.910',1343.587
'0:03.914',1411.728
'0:03.918',1468.138
'0:03.922',1527.474
'0:03.926',1586.809
'0:03.930',1671.794
'0:03.934',1725.278
'0:03.938',1768.508
'0:03.941',1801.457
'0:03.945',1795.606
'0:03.949',1863.746
'0:03.953',1860.793
'0:03.957',1852.016
'0:03.961',1852.754
'0:03.965',1890.844
'0:03.969',1841.762
'0:03.973',1832.246
'0:03.977',1848.352
'0:03.980',1802.196
'0:03.984',1750.926
'0:03.988',1739.196
'0:03.992',1686.450
'0:03.996',1638.106
'0:04.000',1617.571
'0:04.004',1556.048
'0:04.008',1547.243
'0:04.012',1476.204
'0:04.016',1422.720
'0:04.020',1385.341
'0:04.023',1368.497
'0:04.027',1298.169
'0:04.031',1295.244
'0:04.035',1260.080
'0:04.039',1236.619
'0:04.043',1217.587
'0:04.047',1206.595
'0:04.051',1202.193
'0:04.055',1195.603
'0:04.059',1205.857
'0:04.063',1257.154
'0:04.066',1282.064
'0:04.070',1289.365
'0:04.074',1291.580
'0:04.078',1337.736
'0:04.082',1335.521
'0:04.086',1384.603
'0:04.090',1443.228
'0:04.094',1481.317
'0:04.098',1477.653
'0:04.102',1509.892
'0:04.105',1578.032
'0:04.109',1578.032
'0:04.113',1590.473
'0:04.117',1635.153
'0:04.121',1665.942
'0:04.125',1695.227
'0:04.129',1713.547
'0:04.133',1701.106
'0:04.137',1714.286
'0:04.141',1734.055
'0:04.145',1730.391
'0:04.148',1730.391
'0:04.152',1726.727
'0:04.156',1723.090
'0:04.160',1723.090
'0:04.164',1728.942
'0:04.168',1720.137
'0:04.172',1737.719
'0:04.176',1704.032
'0:04.180',1679.122
'0:04.184',1685.712
'0:04.188',1687.188
'0:04.191',1652.735
'0:04.195',1681.309
'0:04.199',1622.712
'0:04.203',1633.704
'0:04.207',1616.122
'0:04.211',1576.556
'0:04.215',1572.153
'0:04.219',1574.368
'0:04.223',1546.532
'0:04.227',1510.630
'0:04.230',1499.638
'0:04.234',1530.399
'0:04.238',1520.145
'0:04.242',1482.056
'0:04.246',1451.294
'0:04.250',1465.923
'0:04.254',1487.169
'0:04.258',1471.802
'0:04.262',1446.892
'0:04.266',1447.630
'0:04.270',1449.817
'0:04.273',1435.900
'0:04.277',1440.302
'0:04.281',1414.653
'0:04.285',1390.482
'0:04.289',1377.302
'0:04.293',1413.915
'0:04.297',1371.423
'0:04.301',1386.079
'0:04.305',1404.400
'0:04.309',1367.759
'0:04.313',1389.743
'0:04.316',1386.818
'0:04.320',1353.103
'0:04.324',1386.079
'0:04.328',1348.728
'0:04.332',1391.931
'0:04.336',1350.915
'0:04.340',1361.907
'0:04.344',1368.497
'0:04.348',1345.775
'0:04.352',1307.685
'0:04.355',1312.087
'0:04.359',1291.580
'0:04.363',1320.154
'0:04.367',1290.103
'0:04.371',1248.349
'0:04.375',1259.341
'0:04.379',1264.482
'0:04.383',1220.513
'0:04.387',1224.177
'0:04.391',1256.416
'0:04.395',1227.841
'0:04.398',1231.505
'0:04.402',1253.490
'0:04.406',1238.095
'0:04.410',1216.111
'0:04.414',1243.236
'0:04.418',1270.333
'0:04.422',1263.005
'0:04.426',1263.005
'0:04.430',1260.080
'0:04.434',1260.080
'0:04.438',1256.416
'0:04.441',1239.572
'0:04.445',1251.275
'0:04.449',1250.537
'0:04.453',1233.693
'0:04.457',1219.037
'0:04.461',1208.072
'0:04.465',1201.455
'0:04.469',1199.267
'0:04.473',1191.201
'0:04.477',1185.349
'0:04.480',1180.209
'0:04.484',1170.693
'0:04.488',1181.685
'0:04.492',1210.259
'0:04.496',1224.177
'0:04.500',1227.103
'0:04.504',1220.513
'0:04.508',1287.915
'0:04.512',1266.669
'0:04.516',1317.228
'0:04.520',1375.087
'0:04.523',1391.220
'0:04.527',1427.833
'0:04.531',1443.228
'0:04.535',1469.587
'0:04.539',1488.646
'0:04.543',1455.669
'0:04.547',1465.923
'0:04.551',1520.884
'0:04.555',1488.646
'0:04.559',1487.169
'0:04.563',1520.145
'0:04.566',1484.243
'0:04.570',1454.958
'0:04.574',1481.317
'0:04.578',1429.310
'0:04.582',1394.884
'0:04.586',1389.743
'0:04.590',1396.333
'0:04.594',1322.341
'0:04.598',1324.556
'0:04.602',1318.677
'0:04.605',1255.677
'0:04.609',1241.021
'0:04.613',1254.201
'0:04.617',1208.783
'0:04.621',1179.498
'0:04.625',1156.037
'0:04.629',1149.447
'0:04.633',1132.603
'0:04.637',1118.685
'0:04.641',1104.029
'0:04.645',1108.431
'0:04.648',1109.170
'0:04.652',1117.947
'0:04.656',1127.463
'0:04.660',1120.873
'0:04.664',1167.029
'0:04.668',1195.603
'0:04.672',1195.603
'0:04.676',1184.611
'0:04.680',1249.826
'0:04.684',1256.416
'0:04.688',1315.013
'0:04.691',1299.646
'0:04.695',1364.095
'0:04.699',1397.810
'0:04.703',1408.802
'0:04.707',1451.294
'0:04.711',1518.669
'0:04.715',1530.399
'0:04.719',1577.294
'0:04.723',1617.571
'0:04.727',1645.434
'0:04.730',1694.516
'0:04.734',1734.055
'0:04.738',1745.047
'0:04.742',1747.262
'0:04.746',1783.137
'0:04.750',1816.114
'0:04.754',1798.532
'0:04.758',1796.344
'0:04.762',1808.047
'0:04.766',1819.039
'0:04.770',1834.434
'0:04.773',1783.137
'0:04.777',1807.336
'0:04.781',1803.672
'0:04.785',1780.950
'0:04.789',1755.301
'0:04.793',1768.508
'0:04.797',1728.204
'0:04.801',1762.629
'0:04.805',1747.973
'0:04.809',1733.344
'0:04.813',1676.196
'0:04.816',1673.981
'0:04.820',1694.516
'0:04.824',1634.442
'0:04.828',1619.786
'0:04.832',1625.637
'0:04.836',1599.989
'0:04.840',1580.958
'0:04.844',1578.743
'0:04.848',1567.040
'0:04.852',1532.614
'0:04.855',1509.153
'0:04.859',1509.892
'0:04.863',1505.489
'0:04.867',1488.646
'0:04.871',1443.966
'0:04.875',1399.997
'0:04.879',1385.341
'0:04.883',1414.653
'0:04.887',1348.728
'0:04.891',1358.982
'0:04.895',1321.603
'0:04.898',1319.415
'0:04.902',1337.736
'0:04.906',1294.505
'0:04.910',1338.474
'0:04.914',1296.693
'0:04.918',1335.521
'0:04.922',1289.365
'0:04.926',1328.931
'0:04.930',1323.079
'0:04.934',1314.275
'0:04.938',1312.826
'0:04.941',1327.482
'0:04.945',1353.841
'0:04.949',1315.751
'0:04.953',1358.243
'0:04.957',1317.228
'0:04.961',1357.505
'0:04.965',1321.603
'0:04.969',1338.474
'0:04.973',1323.079
'0:04.977',1321.603
'0:04.980',1315.013
'0:04.984',1311.349
'0:04.988',1269.595
'0:04.992',1305.497
'0:04.996',1298.169
'0:05.000',1269.595
'0:05.004',1248.349
'0:05.008',1238.834
'0:05.012',1224.177
'0:05.016',1234.431
'0:05.020',1224.916
'0:05.023',1232.244
'0:05.027',1230.029
'0:05.031',1225.654
'0:05.035',1176.545
'0:05.039',1182.423
'0:05.043',1214.662
'0:05.047',1193.416
'0:05.051',1157.513
'0:05.055',1186.826
'0:05.059',1125.275
'0:05.063',1150.924
'0:05.066',1106.955
'0:05.070',1075.455
'0:05.074',1081.306
'0:05.078',1030.037
'0:05.082',1004.389
'0:05.086',1010.268
'0:05.090',982.404
'0:05.094',978.768
'0:05.098',989.022
'0:05.102',989.022
'0:05.105',1005.127
'0:05.109',1006.604
'0:05.113',1010.978
'0:05.117',1061.537
'0:05.121',1035.178
'0:05.125',1104.029
'0:05.129',1118.685
'0:05.133',1126.013
'0:05.137',1175.834
'0:05.141',1219.775
'0:05.145',1229.318
'0:05.148',1239.572
'0:05.152',1305.497
'0:05.156',1315.013
'0:05.160',1331.146
'0:05.164',1362.646
'0:05.168',1395.595
'0:05.172',1429.310
'0:05.176',1454.220
'0:05.180',1483.505
'0:05.184',1539.204
'0:05.188',1536.989
'0:05.191',1542.868
'0:05.195',1586.071
'0:05.199',1590.473
'0:05.203',1573.630
'0:05.207',1614.645
'0:05.211',1570.704
'0:05.215',1568.489
'0:05.219',1607.317
'0:05.223',1564.825
'0:05.227',1572.891
'0:05.230',1563.376
'0:05.234',1569.966
'0:05.238',1520.884
'0:05.242',1537.727
'0:05.246',1515.743
'0:05.250',1515.032
'0:05.254',1504.751
'0:05.258',1476.204
'0:05.262',1471.064
'0:05.266',1495.974
'0:05.270',1513.556
'0:05.273',1509.153
'0:05.277',1530.399
'0:05.281',1535.540
'0:05.285',1528.950
'0:05.289',1523.810
'0:05.293',1529.661
'0:05.297',1547.243
'0:05.301',1557.497
'0:05.305',1577.294
'0:05.309',1591.950
'0:05.313',1591.212
'0:05.316',1622.712
'0:05.320',1666.680
'0:05.324',1660.063
'0:05.328',1690.852
'0:05.332',1712.098
'0:05.336',1689.376
'0:05.340',1701.844
'0:05.344',1731.129
'0:05.348',1758.254
'0:05.352',1749.450
'0:05.355',1742.860
'0:05.359',1797.082
'0:05.363',1770.696
'0:05.367',1773.622
'0:05.371',1762.629
'0:05.375',1799.270
'0:05.379',1782.426
'0:05.383',1741.383
'0:05.387',1772.883
'0:05.391',1741.383
'0:05.395',1706.958
'0:05.398',1700.368
'0:05.402',1717.950
'0:05.406',1687.899
'0:05.410',1652.735
'0:05.414',1635.891
'0:05.418',1658.614
'0:05.422',1623.450
'0:05.426',1595.614
'0:05.430',1564.825
'0:05.434',1565.563
'0:05.438',1526.735
'0:05.441',1516.481
'0:05.445',1539.204
'0:05.449',1479.841
'0:05.453',1514.294
'0:05.457',1493.786
'0:05.461',1449.079
'0:05.465',1454.958
'0:05.469',1472.540
'0:05.473',1440.302
'0:05.477',1416.841
'0:05.480',1432.235
'0:05.484',1419.056
'0:05.488',1411.728
'0:05.492',1445.415
'0:05.496',1435.161
'0:05.500',1408.802
'0:05.504',1406.587
'0:05.508',1409.513
'0:05.512',1452.005
'0:05.516',1414.653
'0:05.520',1397.071
'0:05.523',1421.243
'0:05.527',1436.638
'0:05.531',1433.712
'0:05.535',1424.907
'0:05.539',1414.653
'0:05.543',1402.185
'0:05.547',1389.005
'0:05.551',1342.138
'0:05.555',1347.990
'0:05.559',1340.661
'0:05.563',1348.728
'0:05.566',1282.064
'0:05.570',1315.013
'0:05.574',1260.080
'0:05.578',1283.513
'0:05.582',1230.029
'0:05.586',1230.029
'0:05.590',1216.111
'0:05.594',1195.603
'0:05.598',1189.752
'0:05.602',1187.537
'0:05.605',1179.498
'0:05.609',1200.744
'0:05.613',1198.529
'0:05.617',1198.529
'0:05.621',1195.603
'0:05.625',1193.416
'0:05.629',1200.005
'0:05.633',1190.490
'0:05.637',1183.162
'0:05.641',1200.744
'0:05.645',1205.857
'0:05.648',1200.005
'0:05.652',1230.767
'0:05.656',1178.759
'0:05.660',1219.037
'0:05.664',1185.349
'0:05.668',1208.783
'0:05.672',1205.857
'0:05.676',1170.693
'0:05.680',1208.072
'0:05.684',1186.826
'0:05.688',1157.513
'0:05.691',1202.931
'0:05.695',1189.752
'0:05.699',1162.627
'0:05.703',1209.521
'0:05.707',1211.709
'0:05.711',1193.416
'0:05.715',1235.908
'0:05.719',1254.939
'0:05.723',1284.990
'0:05.727',1280.587
'0:05.730',1307.685
'0:05.734',1316.490
'0:05.738',1345.064
'0:05.742',1418.318
'0:05.746',1405.849
'0:05.750',1427.095
'0:05.754',1496.712
'0:05.758',1498.899
'0:05.762',1484.243
'0:05.766',1547.981
'0:05.770',1511.368
'0:05.773',1542.130
'0:05.777',1531.138
'0:05.781',1564.825
'0:05.785',1531.138
'0:05.789',1523.071
'0:05.793',1493.048
'0:05.797',1473.989
'0:05.801',1471.064
'0:05.805',1467.399
'0:05.809',1429.310
'0:05.813',1372.161
'0:05.816',1340.661
'0:05.820',1341.400
'0:05.824',1327.482
'0:05.828',1249.826
'0:05.832',1271.072
'0:05.836',1227.103
'0:05.840',1184.611
'0:05.844',1159.701
'0:05.848',1143.595
'0:05.852',1151.662
'0:05.855',1159.701
'0:05.859',1145.783
'0:05.863',1141.381
'0:05.867',1145.783
'0:05.871',1149.447
'0:05.875',1147.259
'0:05.879',1147.998
'0:05.883',1151.662
'0:05.887',1157.513
'0:05.891',1172.881
'0:05.895',1206.595
'0:05.898',1232.244
'0:05.902',1260.080
'0:05.906',1287.915
'0:05.910',1293.767
'0:05.914',1304.759
'0:05.918',1337.736
'0:05.922',1399.997
'0:05.926',1402.923
'0:05.930',1435.900
'0:05.934',1438.825
'0:05.938',1505.489
'0:05.941',1506.228
'0:05.945',1497.423
'0:05.949',1556.048
'0:05.953',1570.704
'0:05.957',1568.489
'0:05.961',1604.391
'0:05.965',1591.950
'0:05.969',1574.368
'0:05.973',1605.130
'0:05.977',1590.473
'0:05.980',1602.204
'0:05.984',1619.786
'0:05.988',1579.481
'0:05.992',1614.645
'0:05.996',1605.868
'0:06.000',1551.645
'0:06.004',1550.196
'0:06.008',1583.884
'0:06.012',1535.540
'0:06.016',1576.556
'0:06.020',1534.063
'0:06.023',1549.458
'0:06.027',1575.079
'0:06.031',1541.392
'0:06.035',1578.032
'0:06.039',1553.833
'0:06.043',1585.360
'0:06.047',1549.458
'0:06.051',1590.473
'0:06.055',1544.317
'0:06.059',1547.243
'0:06.063',1584.622
'0:06.066',1532.614
'0:06.070',1572.891
'0:06.074',1517.220
'0:06.078',1529.661
'0:06.082',1515.032
'0:06.086',1525.997
'0:06.090',1528.950
'0:06.094',1491.571
'0:06.098',1458.595
'0:06.102',1449.079
'0:06.105',1448.341
'0:06.109',1438.087
'0:06.113',1424.907
'0:06.117',1419.056
'0:06.121',1413.177
'0:06.125',1411.728
'0:06.129',1430.759
'0:06.133',1424.907
'0:06.137',1427.095
'0:06.141',1454.220
'0:06.145',1460.810
'0:06.148',1462.259
'0:06.152',1448.341
'0:06.156',1473.989
'0:06.160',1467.399
'0:06.164',1452.005
'0:06.168',1444.677
'0:06.172',1443.966
'0:06.176',1453.482
'0:06.180',1454.958
'0:06.184',1436.638
'0:06.188',1435.900
'0:06.191',1421.243
'0:06.195',1366.310
'0:06.199',1341.400
'0:06.203',1361.169
'0:06.207',1293.029
'0:06.211',1306.236
'0:06.215',1230.029
'0:06.219',1198.529
'0:06.223',1174.357
'0:06.227',1158.252
'0:06.230',1152.373
'0:06.234',1081.306
'0:06.238',1062.275
'0:06.242',1028.560
'0:06.246',1028.560
'0:06.250',1015.381
'0:06.254',989.732
'0:06.258',987.545
'0:06.262',980.217
'0:06.266',989.022
'0:06.270',986.068
'0:06.273',987.545
'0:06.277',994.135
'0:06.281',999.275
'0:06.285',994.873
'0:06.289',991.947
'0:06.293',975.104
'0:06.297',1031.514
'0:06.301',1013.932
'0:06.305',1061.537
'0:06.309',1036.627
'0:06.313',1098.888
'0:06.316',1084.260
'0:06.320',1126.013
'0:06.324',1163.365
'0:06.328',1201.455
'0:06.332',1274.736
'0:06.336',1272.521
'0:06.340',1349.439
'0:06.344',1372.161
'0:06.348',1445.415
'0:06.352',1443.966
'0:06.355',1493.048
'0:06.359',1564.114
'0:06.363',1561.899
'0:06.367',1641.032
'0:06.371',1638.817
'0:06.375',1676.196
'0:06.379',1710.622
'0:06.383',1744.309
'0:06.387',1773.622
'0:06.391',1833.696
'0:06.395',1854.203
'0:06.398',1844.688
'0:06.402',1890.844
'0:06.406',1875.449
'0:06.410',1879.852
'0:06.414',1890.106
'0:06.418',1857.867
'0:06.422',1870.336
'0:06.426',1852.754
'0:06.430',1800.746
'0:06.434',1802.196
'0:06.438',1756.778
'0:06.441',1738.458
'0:06.445',1676.196
'0:06.449',1619.786
'0:06.453',1607.317
'0:06.457',1531.876
'0:06.461',1536.251
'0:06.465',1491.571
'0:06.469',1422.720
'0:06.473',1416.841
'0:06.477',1368.497
'0:06.480',1336.997
'0:06.484',1322.341
'0:06.488',1364.833
'0:06.492',1320.154
'0:06.496',1339.923
'0:06.500',1370.685
'0:06.504',1358.982
'0:06.508',1356.056
'0:06.512',1396.333
'0:06.516',1432.235
'0:06.520',1455.669
'0:06.523',1498.899
'0:06.527',1524.548
'0:06.531',1559.712
'0:06.535',1562.638
'0:06.539',1582.407
'0:06.543',1609.532
'0:06.547',1643.958
'0:06.551',1655.688
'0:06.555',1695.965
'0:06.559',1714.286
'0:06.563',1758.254
'0:06.566',1773.622
'0:06.570',1764.106
'0:06.574',1756.040
'0:06.578',1795.606
'0:06.582',1779.500
'0:06.586',1798.532
'0:06.590',1795.606
'0:06.594',1788.278
'0:06.598',1758.254
'0:06.602',1735.532
'0:06.605',1741.383
'0:06.609',1734.055
'0:06.613',1721.614
'0:06.617',1675.458
'0:06.621',1654.212
'0:06.625',1626.376
'0:06.629',1627.852
'0:06.633',1610.270
'0:06.637',1552.384
'0:06.641',1539.204
'0:06.645',1510.630
'0:06.648',1499.638
'0:06.652',1462.997
'0:06.656',1443.228
'0:06.660',1428.571
'0:06.664',1445.415
'0:06.668',1441.013
'0:06.672',1400.736
'0:06.676',1421.243
'0:06.680',1386.079
'0:06.684',1406.587
'0:06.688',1361.907
'0:06.691',1383.154
'0:06.695',1407.325
'0:06.699',1367.021
'0:06.703',1383.892
'0:06.707',1408.064
'0:06.711',1359.720
'0:06.715',1372.161
'0:06.719',1410.989
'0:06.723',1408.064
'0:06.727',1408.064
'0:06.730',1400.736
'0:06.734',1422.720
'0:06.738',1419.056
'0:06.742',1417.579
'0:06.746',1432.235
'0:06.750',1419.794
'0:06.754',1385.341
'0:06.758',1387.556
'0:06.762',1394.884
'0:06.766',1407.325
'0:06.770',1432.235
'0:06.773',1431.497
'0:06.777',1405.138
'0:06.781',1372.161
'0:06.785',1362.646
'0:06.789',1368.497
'0:06.793',1387.556
'0:06.797',1336.259
'0:06.801',1362.646
'0:06.805',1321.603
'0:06.809',1356.056
'0:06.813',1323.079
'0:06.816',1321.603
'0:06.820',1309.162
'0:06.824',1300.357
'0:06.828',1320.892
'0:06.832',1275.447
'0:06.836',1287.177
'0:06.840',1312.826
'0:06.844',1295.244
'0:06.848',1270.333
'0:06.852',1321.603
'0:06.855',1302.572
'0:06.859',1292.318
'0:06.863',1284.990
'0:06.867',1262.267
'0:06.871',1301.095
'0:06.875',1279.849
'0:06.879',1257.154
'0:06.883',1246.900
'0:06.887',1271.072
'0:06.891',1266.669
'0:06.895',1257.154
'0:06.898',1243.947
'0:06.902',1224.916
'0:06.906',1219.775
'0:06.910',1208.783
'0:06.914',1197.080
'0:06.918',1183.162
'0:06.922',1133.342
'0:06.926',1128.939
'0:06.930',1137.006
'0:06.934',1075.455
'0:06.938',1093.775
'0:06.941',1094.513
'0:06.945',1098.178
'0:06.949',1054.947
'0:06.953',1061.537
'0:06.957',1085.709
'0:06.961',1065.939
'0:06.965',1072.529
'0:06.969',1100.365
'0:06.973',1079.119
'0:06.977',1109.881
'0:06.980',1145.045
'0:06.984',1139.193
'0:06.988',1181.685
'0:06.992',1218.326
'0:06.996',1240.283
'0:07.000',1248.349
'0:07.004',1246.900
'0:07.008',1288.654
'0:07.012',1333.333
'0:07.016',1315.013
'0:07.020',1382.415
'0:07.023',1364.833
'0:07.027',1415.392
'0:07.031',1394.146
'0:07.035',1388.267
'0:07.039',1398.548
'0:07.043',1403.661
'0:07.047',1396.333
'0:07.051',1426.384
'0:07.055',1419.794
'0:07.059',1399.259
'0:07.063',1377.302
'0:07.066',1373.638
'0:07.070',1358.243
'0:07.074',1319.415
'0:07.078',1315.013
'0:07.082',1263.744
'0:07.086',1265.193
'0:07.090',1237.357
'0:07.094',1205.119
'0:07.098',1172.170
'0:07.102',1160.439
'0:07.105',1142.119
'0:07.109',1134.080
'0:07.113',1145.783
'0:07.117',1151.662
'0:07.121',1146.521
'0:07.125',1172.170
'0:07.129',1186.088
'0:07.133',1192.677
'0:07.137',1204.408
'0:07.141',1289.365
'0:07.145',1284.990
'0:07.148',1350.915
'0:07.152',1416.130
'0:07.156',1445.415
'0:07.160',1542.868
'0:07.164',1559.712
'0:07.168',1610.981
'0:07.172',1662.278
'0:07.176',1728.204
'0:07.180',1786.801
'0:07.184',1832.246
'0:07.188',1825.629
'0:07.191',1865.934
'0:07.195',1876.926
'0:07.199',1921.606
'0:07.203',1933.336
'0:07.207',1918.680
'0:07.211',1894.508
'0:07.215',1908.426
'0:07.219',1891.582
'0:07.223',1866.672
'0:07.227',1830.770
'0:07.230',1838.836
'0:07.234',1784.614
'0:07.238',1754.590
'0:07.242',1702.555
'0:07.246',1674.719
'0:07.250',1663.016
'0:07.254',1599.989
'0:07.258',1591.950
'0:07.262',1547.243
'0:07.266',1508.415
'0:07.270',1501.825
'0:07.273',1501.087
'0:07.277',1438.087
'0:07.281',1440.302
'0:07.285',1447.630
'0:07.289',1428.571
'0:07.293',1380.966
'0:07.297',1367.021
'0:07.301',1386.079
'0:07.305',1390.482
'0:07.309',1343.587
'0:07.313',1335.521
'0:07.316',1349.439
'0:07.320',1293.767
'0:07.324',1301.095
'0:07.328',1262.267
'0:07.332',1286.439
'0:07.336',1256.416
'0:07.340',1209.521
'0:07.344',1194.127
'0:07.348',1206.595
'0:07.352',1213.923
'0:07.355',1196.341
'0:07.359',1178.021
'0:07.363',1182.423
'0:07.367',1173.619
'0:07.371',1158.252
'0:07.375',1169.955
'0:07.379',1172.881
'0:07.383',1184.611
'0:07.387',1193.416
'0:07.391',1204.408
'0:07.395',1216.111
'0:07.398',1204.408
'0:07.402',1223.439
'0:07.406',1232.955
'0:07.410',1257.865
'0:07.414',1266.669
'0:07.418',1324.556
'0:07.422',1294.505
'0:07.426',1316.490
'0:07.430',1375.087
'0:07.434',1339.185
'0:07.438',1394.146
'0:07.441',1410.251
'0:07.445',1418.318
'0:07.449',1412.466
'0:07.453',1413.177
'0:07.457',1413.915
'0:07.461',1410.989
'0:07.465',1413.177
'0:07.469',1408.802
'0:07.473',1446.892
'0:07.477',1457.884
'0:07.480',1430.048
'0:07.484',1408.064
'0:07.488',1407.325
'0:07.492',1443.228
'0:07.496',1445.415
'0:07.500',1427.833
'0:07.504',1407.325
'0:07.508',1437.376
'0:07.512',1417.579
'0:07.516',1400.736
'0:07.520',1391.220
'0:07.523',1361.907
'0:07.527',1332.595
'0:07.531',1293.767
'0:07.535',1282.775
'0:07.539',1295.982
'0:07.543',1232.955
'0:07.547',1256.416
'0:07.551',1213.923
'0:07.555',1171.431
'0:07.559',1193.416
'0:07.563',1173.619
'0:07.566',1190.490
'0:07.570',1173.619
'0:07.574',1174.357
'0:07.578',1221.252
'0:07.582',1183.162
'0:07.586',1252.751
'0:07.590',1236.619
'0:07.594',1301.833
'0:07.598',1309.900
'0:07.602',1315.013
'0:07.605',1364.833
'0:07.609',1421.982
'0:07.613',1446.892
'0:07.617',1459.333
'0:07.621',1482.794
'0:07.625',1554.571
'0:07.629',1564.825
'0:07.633',1594.876
'0:07.637',1639.555
'0:07.641',1650.548
'0:07.645',1631.489
'0:07.648',1686.450
'0:07.652',1646.884
'0:07.656',1660.801
'0:07.660',1698.891
'0:07.664',1646.145
'0:07.668',1684.973
'0:07.672',1654.212
'0:07.676',1616.860
'0:07.680',1598.540
'0:07.684',1621.235
'0:07.688',1591.950
'0:07.691',1572.153
'0:07.695',1520.884
'0:07.699',1500.376
'0:07.703',1507.704
'0:07.707',1495.235
'0:07.711',1467.399
'0:07.715',1481.317
'0:07.719',1419.056
'0:07.723',1432.235
'0:07.727',1452.743
'0:07.730',1441.751
'0:07.734',1405.138
'0:07.738',1440.302
'0:07.742',1416.130
'0:07.746',1413.915
'0:07.750',1447.630
'0:07.754',1476.915
'0:07.758',1491.571
'0:07.762',1457.146
'0:07.766',1484.243
'0:07.770',1534.802
'0:07.773',1516.481
'0:07.777',1548.720
'0:07.781',1570.704
'0:07.785',1580.958
'0:07.789',1594.138
'0:07.793',1621.973
'0:07.797',1658.614
'0:07.801',1649.809
'0:07.805',1640.294
'0:07.809',1648.360
'0:07.813',1649.809
'0:07.816',1653.473
'0:07.820',1688.637
'0:07.824',1652.735
'0:07.828',1694.516
'0:07.832',1647.622
'0:07.836',1686.450
'0:07.840',1667.391
'0:07.844',1627.852
'0:07.848',1622.712
'0:07.852',1649.071
'0:07.855',1587.548
'0:07.859',1606.606
'0:07.863',1561.899
'0:07.867',1586.071
'0:07.871',1528.950
'0:07.875',1536.989
'0:07.879',1522.333
'0:07.883',1506.228
'0:07.887',1509.153
'0:07.891',1517.958
'0:07.895',1498.899
'0:07.898',1459.333
'0:07.902',1452.005
'0:07.906',1465.923
'0:07.910',1444.677
'0:07.914',1413.915
'0:07.918',1447.630
'0:07.922',1402.185
'0:07.926',1441.013
'0:07.930',1387.556
'0:07.934',1407.325
'0:07.938',1405.138
'0:07.941',1394.884
'0:07.945',1384.603
'0:07.949',1402.185
'0:07.953',1419.794
'0:07.957',1404.400
'0:07.961',1366.310
'0:07.965',1380.966
'0:07.969',1399.259
'0:07.973',1370.685
'0:07.977',1397.071
'0:07.980',1368.497
'0:07.984',1378.013
'0:07.988',1356.767
'0:07.992',1345.775
'0:07.996',1375.087
'0:08.000',1342.138
'0:08.004',1359.720
'0:08.008',1354.579
'0:08.012',1311.349
'0:08.016',1356.056
'0:08.020',1338.474
'0:08.023',1311.349
'0:08.027',1298.908
'0:08.031',1301.095
'0:08.035',1345.775
'0:08.039',1328.931
'0:08.043',1304.021
'0:08.047',1317.939
'0:08.051',1347.251
'0:08.055',1312.087
'0:08.059',1345.775
'0:08.063',1331.146
'0:08.066',1334.810
'0:08.070',1328.193
'0:08.074',1324.556
'0:08.078',1313.564
'0:08.082',1304.021
'0:08.086',1312.826
'0:08.090',1353.841
'0:08.094',1339.185
'0:08.098',1316.490
'0:08.102',1354.579
'0:08.105',1325.267
'0:08.109',1306.236
'0:08.113',1354.579
'0:08.117',1348.728
'0:08.121',1328.193
'0:08.125',1300.357
'0:08.129',1310.611
'0:08.133',1290.103
'0:08.137',1311.349
'0:08.141',1284.251
'0:08.145',1275.447
'0:08.148',1261.529
'0:08.152',1248.349
'0:08.156',1232.955
'0:08.160',1200.005
'0:08.164',1166.291
'0:08.168',1180.947
'0:08.172',1185.349
'0:08.176',1157.513
'0:08.180',1129.677
'0:08.184',1156.775
'0:08.188',1183.873
'0:08.191',1197.791
'0:08.195',1163.365
'0:08.199',1171.431
'0:08.203',1210.259
'0:08.207',1257.865
'0:08.211',1276.923
'0:08.215',1277.662
'0:08.219',1271.072
'0:08.223',1322.341
'0:08.227',1323.818
'0:08.230',1341.400
'0:08.234',1376.564
'0:08.238',1408.064
'0:08.242',1396.333
'0:08.246',1431.497
'0:08.250',1394.884
'0:08.254',1402.185
'0:08.258',1397.810
'0:08.262',1437.376
'0:08.266',1385.341
'0:08.270',1398.548
'0:08.273',1413.915
'0:08.277',1397.071
'0:08.281',1356.767
'0:08.285',1382.415
'0:08.289',1330.408
'0:08.293',1328.193
'0:08.297',1326.005
'0:08.301',1325.267
'0:08.305',1298.169
'0:08.309',1257.154
'0:08.313',1293.767
'0:08.316',1267.408
'0:08.320',1278.400
'0:08.324',1262.267
'0:08.328',1246.162
'0:08.332',1289.365
'0:08.336',1295.244
'0:08.340',1298.908
'0:08.344',1304.759
'0:08.348',1300.357
'0:08.352',1310.611
'0:08.355',1306.947
'0:08.359',1329.669
'0:08.363',1363.357
'0:08.367',1343.587
'0:08.371',1402.923
'0:08.375',1402.185
'0:08.379',1420.505
'0:08.383',1457.146
'0:08.387',1436.638
'0:08.391',1458.595
'0:08.395',1479.841
'0:08.398',1477.653
'0:08.402',1481.317
'0:08.406',1485.720
'0:08.410',1491.571
'0:08.414',1483.505
'0:08.418',1479.130
'0:08.422',1493.048
'0:08.426',1515.032
'0:08.430',1507.704
'0:08.434',1447.630
'0:08.438',1460.810
'0:08.441',1479.130
'0:08.445',1421.243
'0:08.449',1465.212
'0:08.453',1410.251
'0:08.457',1447.630
'0:08.461',1404.400
'0:08.465',1448.341
'0:08.469',1411.728
'0:08.473',1437.376
'0:08.477',1434.423
'0:08.480',1419.794
'0:08.484',1433.712
'0:08.488',1460.810
'0:08.492',1451.294
'0:08.496',1453.482
'0:08.500',1496.712
'0:08.504',1453.482
'0:08.508',1463.735
'0:08.512',1505.489
'0:08.516',1455.669
'0:08.520',1495.974
'0:08.523',1470.325
'0:08.527',1478.392
'0:08.531',1457.146
'0:08.535',1471.802
'0:08.539',1409.513
'0:08.543',1414.653
'0:08.547',1391.220
'0:08.551',1377.302
'0:08.555',1360.431
'0:08.559',1372.900
'0:08.563',1317.939
'0:08.566',1337.736
'0:08.570',1296.693
'0:08.574',1287.915
'0:08.578',1271.783
'0:08.582',1304.759
'0:08.586',1279.849
'0:08.590',1254.939
'0:08.594',1253.490
'0:08.598',1271.072
'0:08.602',1265.931
'0:08.605',1264.482
'0:08.609',1304.021
'0:08.613',1295.244
'0:08.617',1291.580
'0:08.621',1339.923
'0:08.625',1301.833
'0:08.629',1356.767
'0:08.633',1320.892
'0:08.637',1350.915
'0:08.641',1380.228
'0:08.645',1350.915
'0:08.648',1353.841
'0:08.652',1381.677
'0:08.656',1409.513
'0:08.660',1375.087
'0:08.664',1397.810
'0:08.668',1402.185
'0:08.672',1424.907
'0:08.676',1428.571
'0:08.680',1442.489
'0:08.684',1446.153
'0:08.688',1438.087
'0:08.691',1402.923
'0:08.695',1435.161
'0:08.699',1449.079
'0:08.703',1409.513
'0:08.707',1408.802
'0:08.711',1418.318
'0:08.715',1442.489
'0:08.719',1402.923
'0:08.723',1395.595
'0:08.727',1394.884
'0:08.730',1427.095
'0:08.734',1363.357
'0:08.738',1370.685
'0:08.742',1346.513
'0:08.746',1350.177
'0:08.750',1315.751
'0:08.754',1276.923
'0:08.758',1259.341
'0:08.762',1232.955
'0:08.766',1211.709
'0:08.770',1145.783
'0:08.773',1116.470
'0:08.777',1110.619
'0:08.781',1118.685
'0:08.785',1127.463
'0:08.789',1118.685
'0:08.793',1090.111
'0:08.797',1136.267
'0:08.801',1162.627
'0:08.805',1178.021
'0:08.809',1198.529
'0:08.813',1219.037
'0:08.816',1205.857
'0:08.820',1276.923
'0:08.824',1273.998
'0:08.828',1345.064
'0:08.832',1343.587
'0:08.836',1378.013
'0:08.840',1421.982
'0:08.844',1443.228
'0:08.848',1527.474
'0:08.852',1511.368
'0:08.855',1536.989
'0:08.859',1593.399
'0:08.863',1624.899
'0:08.867',1587.548
'0:08.871',1610.981
'0:08.875',1631.489
'0:08.879',1628.563
'0:08.883',1591.212
'0:08.887',1605.130
'0:08.891',1558.235
'0:08.895',1558.974
'0:08.898',1532.614
'0:08.902',1487.169
'0:08.906',1496.712
'0:08.910',1480.579
'0:08.914',1402.185
'0:08.918',1408.064
'0:08.922',1352.392
'0:08.926',1372.161
'0:08.930',1319.415
'0:08.934',1319.415
'0:08.938',1321.603
'0:08.941',1287.915
'0:08.945',1261.529
'0:08.949',1301.095
'0:08.953',1305.497
'0:08.957',1286.439
'0:08.961',1330.408
'0:08.965',1304.759
'0:08.969',1351.654
'0:08.973',1394.884
'0:08.977',1427.095
'0:08.980',1439.564
'0:08.984',1457.146
'0:08.988',1451.294
'0:08.992',1522.333
'0:08.996',1537.727
'0:09.000',1549.458
'0:09.004',1554.571
'0:09.008',1559.712
'0:09.012',1623.450
'0:09.016',1627.852
'0:09.020',1608.055
'0:09.023',1621.235
'0:09.027',1641.770
'0:09.031',1622.712
'0:09.035',1672.532
'0:09.039',1652.735
'0:09.043',1621.235
'0:09.047',1657.876
'0:09.051',1635.891
'0:09.055',1600.727
'0:09.059',1599.989
'0:09.063',1625.637
'0:09.066',1577.294
'0:09.070',1555.309
'0:09.074',1572.891
'0:09.078',1573.630
'0:09.082',1558.974
'0:09.086',1534.802
'0:09.090',1534.802
'0:09.094',1504.040
'0:09.098',1482.794
'0:09.102',1460.810
'0:09.105',1482.056
'0:09.109',1501.087
'0:09.113',1477.653
'0:09.117',1451.294
'0:09.121',1478.392
'0:09.125',1501.087
'0:09.129',1498.161
'0:09.133',1465.923
'0:09.137',1488.646
'0:09.141',1515.032
'0:09.145',1508.415
'0:09.148',1476.915
'0:09.152',1488.646
'0:09.156',1517.220
'0:09.160',1539.915
'0:09.164',1548.720
'0:09.168',1550.196
'0:09.172',1562.638
'0:09.176',1538.466
'0:09.180',1529.661
'0:09.184',1536.989
'0:09.188',1542.130
'0:09.191',1579.481
'0:09.195',1583.884
'0:09.199',1558.974
'0:09.203',1554.571
'0:09.207',1534.063
'0:09.211',1506.966
'0:09.215',1529.661
'0:09.219',1527.474
'0:09.223',1512.817
'0:09.227',1483.505
'0:09.230',1462.259
'0:09.234',1441.751
'0:09.238',1440.302
'0:09.242',1378.013
'0:09.246',1408.064
'0:09.250',1377.302
'0:09.254',1338.474
'0:09.258',1320.892
'0:09.262',1353.103
'0:09.266',1325.267
'0:09.270',1301.095
'0:09.273',1286.439
'0:09.277',1318.677
'0:09.281',1309.900
'0:09.285',1318.677
'0:09.289',1301.833
'0:09.293',1291.580
'0:09.297',1296.693
'0:09.301',1312.826
'0:09.305',1288.654
'0:09.309',1289.365
'0:09.313',1298.908
'0:09.316',1297.431
'0:09.320',1288.654
'0:09.324',1272.521
'0:09.328',1263.005
'0:09.332',1274.736
'0:09.336',1279.111
'0:09.340',1299.646
'0:09.344',1293.029
'0:09.348',1279.111
'0:09.352',1252.013
'0:09.355',1229.318
'0:09.359',1226.365
'0:09.363',1205.857
'0:09.367',1139.193
'0:09.371',1131.865
'0:09.375',1113.545
'0:09.379',1082.783
'0:09.383',1050.545
'0:09.387',1049.096
'0:09.391',1038.842
'0:09.395',1046.142
'0:09.398',1034.439
'0:09.402',1041.767
'0:09.406',1052.760
'0:09.410',1083.521
'0:09.414',1126.752
'0:09.418',1127.463
'0:09.422',1197.080
'0:09.426',1227.103
'0:09.430',1274.736
'0:09.434',1326.744
'0:09.438',1340.661
'0:09.441',1373.638
'0:09.445',1449.079
'0:09.449',1504.040
'0:09.453',1494.497
'0:09.457',1556.786
'0:09.461',1558.974
'0:09.465',1591.950
'0:09.469',1641.032
'0:09.473',1619.786
'0:09.477',1611.720
'0:09.480',1626.376
'0:09.484',1621.235
'0:09.488',1620.524
'0:09.492',1599.278
'0:09.496',1563.376
'0:09.500',1565.563
'0:09.504',1515.743
'0:09.508',1490.833
'0:09.512',1511.368
'0:09.516',1476.915
'0:09.520',1418.318
'0:09.523',1382.415
'0:09.527',1363.357
'0:09.531',1377.302
'0:09.535',1344.325
'0:09.539',1325.267
'0:09.543',1295.982
'0:09.547',1276.185
'0:09.551',1302.572
'0:09.555',1285.728
'0:09.559',1278.400
'0:09.563',1259.341
'0:09.566',1299.646
'0:09.570',1277.662
'0:09.574',1298.169
'0:09.578',1286.439
'0:09.582',1338.474
'0:09.586',1358.982
'0:09.590',1330.408
'0:09.594',1349.439
'0:09.598',1382.415
'0:09.602',1413.915
'0:09.605',1425.646
'0:09.609',1449.817
'0:09.613',1488.646
'0:09.617',1506.228
'0:09.621',1516.481
'0:09.625',1564.825
'0:09.629',1572.891
'0:09.633',1552.384
'0:09.637',1602.204
'0:09.641',1574.368
'0:09.645',1598.540
'0:09.648',1569.966
'0:09.652',1545.056
'0:09.656',1541.392
'0:09.660',1568.489
'0:09.664',1509.153
'0:09.668',1485.720
'0:09.672',1513.556
'0:09.676',1490.833
'0:09.680',1457.146
'0:09.684',1413.915
'0:09.688',1383.892
'0:09.691',1375.087
'0:09.695',1376.564
'0:09.699',1369.236
'0:09.703',1319.415
'0:09.707',1283.513
'0:09.711',1311.349
'0:09.715',1258.603
'0:09.719',1291.580
'0:09.723',1246.900
'0:09.727',1226.365
'0:09.730',1251.275
'0:09.734',1245.423
'0:09.738',1216.111
'0:09.742',1265.931
'0:09.746',1243.236
'0:09.750',1265.931
'0:09.754',1260.080
'0:09.758',1251.275
'0:09.762',1270.333
'0:09.766',1257.154
'0:09.770',1263.744
'0:09.773',1320.154
'0:09.777',1325.267
'0:09.781',1327.482
'0:09.785',1310.611
'0:09.789',1289.365
'0:09.793',1324.556
'0:09.797',1304.021
'0:09.801',1339.923
'0:09.805',1309.900
'0:09.809',1331.146
'0:09.813',1333.333
'0:09.816',1313.564
'0:09.820',1356.056
'0:09.824',1315.013
'0:09.828',1364.833
'0:09.832',1325.267
'0:09.836',1359.720
'0:09.840',1323.079
'0:09.844',1360.431
'0:09.848',1356.056
'0:09.852',1336.259
'0:09.855',1390.482
'0:09.859',1384.603
'0:09.863',1359.720
'0:09.867',1352.392
'0:09.871',1401.474
'0:09.875',1378.751
'0:09.879',1387.556
'0:09.883',1350.915
'0:09.887',1388.267
'0:09.891',1391.931
'0:09.895',1356.767
'0:09.898',1384.603
'0:09.902',1410.989
'0:09.906',1391.220
'0:09.910',1383.892
'0:09.914',1427.095
'0:09.918',1397.810
'0:09.922',1418.318
'0:09.926',1408.802
'0:09.930',1449.817
'0:09.934',1419.056
'0:09.938',1406.587
'0:09.941',1443.228
'0:09.945',1411.728
'0:09.949',1428.571
'0:09.953',1408.802
'0:09.957',1367.759
'0:09.961',1398.548
'0:09.965',1359.720
'0:09.969',1327.482
'0:09.973',1290.841
'0:09.977',1272.521
'0:09.980',1247.611
'0:09.984',1175.095
'0:09.988',1180.209
'0:09.992',1128.939
'0:09.996',1100.365
'0:10.000',1054.947
'0:10.004',1087.924
'0:10.008',1057.873
'0:10.012',1021.232
'0:10.016',1044.693
'0:10.020',1056.424
'0:10.023',1041.767
'0:10.027',1043.955
'0:10.031',1101.842
'0:10.035',1120.135
'0:10.039',1143.595
'0:10.043',1148.709
'0:10.047',1202.931
'0:10.051',1257.865
'0:10.055',1291.580
'0:10.059',1319.415
'0:10.063',1342.138
'0:10.066',1428.571
'0:10.070',1430.048
'0:10.074',1496.712
'0:10.078',1542.130
'0:10.082',1525.286
'0:10.086',1589.735
'0:10.090',1569.966
'0:10.094',1612.458
'0:10.098',1595.614
'0:10.102',1644.696
'0:10.105',1597.063
'0:10.109',1607.317
'0:10.113',1582.407
'0:10.117',1602.942
'0:10.121',1565.563
'0:10.125',1541.392
'0:10.129',1529.661
'0:10.133',1450.556
'0:10.137',1444.677
'0:10.141',1386.818
'0:10.145',1361.907
'0:10.148',1356.767
'0:10.152',1335.521
'0:10.156',1274.736
'0:10.160',1242.498
'0:10.164',1265.193
'0:10.168',1258.603
'0:10.172',1208.072
'0:10.176',1219.775
'0:10.180',1221.990
'0:10.184',1234.431
'0:10.188',1261.529
'0:10.191',1291.580
'0:10.195',1288.654
'0:10.199',1325.267
'0:10.203',1363.357
'0:10.207',1372.900
'0:10.211',1405.849
'0:10.215',1461.548
'0:10.219',1460.810
'0:10.223',1490.833
'0:10.227',1520.145
'0:10.230',1576.556
'0:10.234',1616.860
'0:10.238',1647.622
'0:10.242',1662.278
'0:10.246',1701.106
'0:10.250',1730.391
'0:10.254',1756.040
'0:10.258',1782.426
'0:10.262',1782.426
'0:10.266',1819.039
'0:10.270',1830.770
'0:10.273',1841.024
'0:10.277',1874.739
'0:10.281',1858.606
'0:10.285',1835.172
'0:10.289',1866.672
'0:10.293',1816.114
'0:10.297',1843.211
'0:10.301',1823.442
'0:10.305',1786.801
'0:10.309',1747.973
'0:10.313',1726.727
'0:10.316',1715.762
'0:10.320',1682.047
'0:10.324',1672.532
'0:10.328',1658.614
'0:10.332',1651.286
'0:10.336',1596.325
'0:10.340',1613.196
'0:10.344',1560.450
'0:10.348',1539.915
'0:10.352',1555.309
'0:10.355',1502.563
'0:10.359',1490.122
'0:10.363',1445.415
'0:10.367',1424.169
'0:10.371',1413.915
'0:10.375',1402.185
'0:10.379',1409.513
'0:10.383',1350.177
'0:10.387',1372.161
'0:10.391',1334.810
'0:10.395',1332.595
'0:10.398',1328.193
'0:10.402',1278.400
'0:10.406',1304.021
'0:10.410',1292.318
'0:10.414',1280.587
'0:10.418',1268.857
'0:10.422',1252.751
'0:10.426',1230.029
'0:10.430',1223.439
'0:10.434',1226.365
'0:10.438',1235.169
'0:10.441',1277.662
'0:10.445',1259.341
'0:10.449',1249.087
'0:10.453',1255.677
'0:10.457',1270.333
'0:10.461',1285.728
'0:10.465',1311.349
'0:10.469',1306.947
'0:10.473',1291.580
'0:10.477',1342.849
'0:10.480',1339.185
'0:10.484',1331.857
'0:10.488',1365.572
'0:10.492',1353.103
'0:10.496',1372.900
'0:10.500',1362.646
'0:10.504',1375.825
'0:10.508',1347.990
'0:10.512',1383.892
'0:10.516',1348.728
'0:10.520',1381.677
'0:10.523',1356.056
'0:10.527',1325.267
'0:10.531',1373.638
'0:10.535',1344.325
'0:10.539',1318.677
'0:10.543',1334.072
'0:10.547',1332.595
'0:10.551',1339.185
'0:10.555',1319.415
'0:10.559',1287.177
'0:10.563',1320.154
'0:10.566',1298.169
'0:10.570',1281.326
'0:10.574',1264.482
'0:10.578',1271.072
'0:10.582',1263.744
'0:10.586',1243.947
'0:10.590',1236.619
'0:10.594',1238.834
'0:10.598',1221.252
'0:10.602',1183.162
'0:10.605',1189.752
'0:10.609',1166.291
'0:10.613',1196.341
'0:10.617',1156.775
'0:10.621',1200.005
'0:10.625',1170.693
'0:10.629',1216.111
'0:10.633',1252.751
'0:10.637',1265.931
'0:10.641',1271.783
'0:10.645',1285.728
'0:10.648',1311.349
'0:10.652',1383.892
'0:10.656',1388.267
'0:10.660',1449.079
'0:10.664',1431.497
'0:10.668',1458.595
'0:10.672',1516.481
'0:10.676',1520.884
'0:10.680',1506.966
'0:10.684',1499.638
'0:10.688',1500.376
'0:10.691',1494.497
'0:10.695',1492.310
'0:10.699',1504.751
'0:10.703',1452.005
'0:10.707',1444.677
'0:10.711',1420.505
'0:10.715',1407.325
'0:10.719',1395.595
'0:10.723',1344.325
'0:10.727',1350.177
'0:10.730',1286.439
'0:10.734',1259.341
'0:10.738',1253.490
'0:10.742',1226.365
'0:10.746',1234.431
'0:10.750',1213.923
'0:10.754',1145.045
'0:10.758',1150.185
'0:10.762',1161.916
'0:10.766',1099.627
'0:10.770',1130.416
'0:10.773',1101.842
'0:10.777',1123.799
'0:10.781',1072.529
'0:10.785',1114.283
'0:10.789',1081.306
'0:10.793',1102.553
'0:10.797',1115.021
'0:10.801',1104.029
'0:10.805',1129.677
'0:10.809',1136.267
'0:10.813',1118.685
'0:10.816',1169.955
'0:10.820',1189.752
'0:10.824',1151.662
'0:10.828',1207.334
'0:10.832',1219.775
'0:10.836',1241.759
'0:10.840',1235.908
'0:10.844',1268.119
'0:10.848',1278.400
'0:10.852',1282.775
'0:10.855',1290.841
'0:10.859',1279.111
'0:10.863',1284.251
'0:10.867',1336.259
'0:10.871',1319.415
'0:10.875',1306.236
'0:10.879',1304.021
'0:10.883',1346.513
'0:10.887',1303.310
'0:10.891',1301.095
'0:10.895',1336.259
'0:10.898',1312.826
'0:10.902',1298.908
'0:10.906',1298.169
'0:10.910',1287.915
'0:10.914',1310.611
'0:10.918',1330.408
'0:10.922',1318.677
'0:10.926',1359.720
'0:10.930',1342.849
'0:10.934',1390.482
'0:10.938',1363.357
'0:10.941',1380.228
'0:10.945',1399.997
'0:10.949',1455.669
'0:10.953',1490.833
'0:10.957',1508.415
'0:10.961',1508.415
'0:10.965',1512.817
'0:10.969',1563.376
'0:10.973',1575.079
'0:10.977',1566.302
'0:10.980',1565.563
'0:10.984',1613.196
'0:10.988',1615.384
'0:10.992',1604.391
'0:10.996',1599.989
'0:11.000',1590.473
'0:11.004',1606.606
'0:11.008',1556.786
'0:11.012',1578.032
'0:11.016',1545.794
'0:11.020',1561.161
'0:11.023',1511.368
'0:11.027',1517.220
'0:11.031',1530.399
'0:11.035',1476.204
'0:11.039',1473.989
'0:11.043',1495.235
'0:11.047',1448.341
'0:11.051',1433.712
'0:11.055',1440.302
'0:11.059',1450.556
'0:11.063',1406.587
'0:11.066',1379.489
'0:11.070',1376.564
'0:11.074',1410.989
'0:11.078',1378.013
'0:11.082',1368.497
'0:11.086',1371.423
'0:11.090',1354.579
'0:11.094',1325.267
'0:11.098',1320.154
'0:11.102',1316.490
'0:11.105',1326.005
'0:11.109',1357.505
'0:11.113',1350.915
'0:11.117',1332.595
'0:11.121',1319.415
'0:11.125',1308.423
'0:11.129',1306.947
'0:11.133',1319.415
'0:11.137',1309.162
'0:11.141',1281.326
'0:11.145',1251.275
'0:11.148',1266.669
'0:11.152',1273.259
'0:11.156',1283.513
'0:11.160',1280.587
'0:11.164',1230.767
'0:11.168',1227.103
'0:11.172',1242.498
'0:11.176',1257.865
'0:11.180',1232.244
'0:11.184',1200.005
'0:11.188',1213.185
'0:11.191',1232.244
'0:11.195',1171.431
'0:11.199',1200.744
'0:11.203',1153.111
'0:11.207',1182.423
'0:11.211',1117.209
'0:11.215',1111.357
'0:11.219',1118.685
'0:11.223',1131.127
'0:11.227',1120.873
'0:11.230',1119.424
'0:11.234',1106.955
'0:11.238',1075.455
'0:11.242',1090.849
'0:11.246',1111.357
'0:11.250',1118.685
'0:11.254',1140.670
'0:11.258',1128.939
'0:11.262',1175.834
'0:11.266',1226.365
'0:11.270',1255.677
'0:11.273',1287.915
'0:11.277',1326.005
'0:11.281',1344.325
'0:11.285',1364.833
'0:11.289',1453.482
'0:11.293',1461.548
'0:11.297',1539.204
'0:11.301',1564.825
'0:11.305',1619.786
'0:11.309',1632.966
'0:11.313',1710.622
'0:11.316',1696.704
'0:11.320',1722.352
'0:11.324',1745.786
'0:11.328',1770.696
'0:11.332',1780.211
'0:11.336',1806.598
'0:11.340',1808.786
'0:11.344',1781.688
'0:11.348',1750.926
'0:11.352',1729.680
'0:11.355',1704.032
'0:11.359',1699.629
'0:11.363',1695.227
'0:11.367',1627.852
'0:11.371',1595.614
'0:11.375',1583.145
'0:11.379',1561.899
'0:11.383',1504.040
'0:11.387',1478.392
'0:11.391',1474.728
'0:11.395',1398.548
'0:11.398',1398.548
'0:11.402',1355.318
'0:11.406',1368.497
'0:11.410',1323.818
'0:11.414',1312.826
'0:11.418',1276.185
'0:11.422',1307.685
'0:11.426',1313.564
'0:11.430',1317.939
'0:11.434',1301.833
'0:11.438',1285.728
'0:11.441',1351.654
'0:11.445',1341.400
'0:11.449',1351.654
'0:11.453',1372.161
'0:11.457',1423.431
'0:11.461',1410.989
'0:11.465',1443.228
'0:11.469',1471.064
'0:11.473',1506.966
'0:11.477',1536.989
'0:11.480',1563.376
'0:11.484',1559.712
'0:11.488',1617.571
'0:11.492',1600.727
'0:11.496',1666.680
'0:11.500',1641.032
'0:11.504',1663.016
'0:11.508',1703.294
'0:11.512',1665.942
'0:11.516',1717.211
'0:11.520',1687.899
'0:11.523',1685.712
'0:11.527',1672.532
'0:11.531',1688.637
'0:11.535',1661.540
'0:11.539',1641.032
'0:11.543',1676.934
'0:11.547',1619.786
'0:11.551',1632.227
'0:11.555',1617.571
'0:11.559',1588.286
'0:11.563',1566.302
'0:11.566',1550.907
'0:11.570',1537.727
'0:11.574',1554.571
'0:11.578',1523.071
'0:11.582',1509.153
'0:11.586',1497.423
'0:11.590',1506.228
'0:11.594',1449.079
'0:11.598',1443.966
'0:11.602',1473.251
'0:11.605',1460.810
'0:11.609',1416.841
'0:11.613',1424.907
'0:11.617',1377.302
'0:11.621',1409.513
'0:11.625',1355.318
'0:11.629',1367.021
'0:11.633',1381.677
'0:11.637',1348.728
'0:11.641',1316.490
'0:11.645',1312.826
'0:11.648',1339.185
'0:11.652',1338.474
'0:11.656',1340.661
'0:11.660',1324.556
'0:11.664',1308.423
'0:11.668',1321.603
'0:11.672',1364.095
'0:11.676',1348.728
'0:11.680',1339.185
'0:11.684',1377.302
'0:11.688',1359.720
'0:11.691',1364.833
'0:11.695',1349.439
'0:11.699',1383.892
'0:11.703',1351.654
'0:11.707',1382.415
'0:11.711',1329.669
'0:11.715',1374.349
'0:11.719',1361.907
'0:11.723',1333.333
'0:11.727',1329.669
'0:11.730',1317.939
'0:11.734',1279.111
'0:11.738',1304.759
'0:11.742',1309.162
'0:11.746',1294.505
'0:11.750',1289.365
'0:11.754',1235.908
'0:11.758',1260.080
'0:11.762',1270.333
'0:11.766',1271.072
'0:11.770',1254.939
'0:11.773',1241.759
'0:11.777',1246.162
'0:11.781',1282.775
'0:11.785',1292.318
'0:11.789',1295.982
'0:11.793',1324.556
'0:11.797',1334.072
'0:11.801',1328.193
'0:11.805',1318.677
'0:11.809',1358.243
'0:11.813',1330.408
'0:11.816',1307.685
'0:11.820',1351.654
'0:11.824',1329.669
'0:11.828',1290.103
'0:11.832',1316.490
'0:11.836',1282.775
'0:11.840',1256.416
'0:11.844',1254.939
'0:11.848',1256.416
'0:11.852',1254.939
'0:11.855',1244.685
'0:11.859',1247.611
'0:11.863',1206.595
'0:11.867',1243.236
'0:11.871',1246.900
'0:11.875',1253.490
'0:11.879',1248.349
'0:11.883',1293.029
'0:11.887',1305.497
'0:11.891',1292.318
'0:11.895',1353.103
'0:11.898',1375.087
'0:11.902',1397.810
'0:11.906',1400.736
'0:11.910',1392.669
'0:11.914',1404.400
'0:11.918',1437.376
'0:11.922',1425.646
'0:11.926',1482.056
'0:11.930',1452.005
'0:11.934',1500.376
'0:11.938',1459.333
'0:11.941',1456.407
'0:11.945',1498.161
'0:11.949',1452.005
'0:11.953',1472.540
'0:11.957',1466.661
'0:11.961',1422.720
'0:11.965',1453.482
'0:11.969',1408.802
'0:11.973',1437.376
'0:11.977',1380.228
'0:11.980',1410.989
'0:11.984',1413.177
'0:11.988',1380.966
'0:11.992',1347.251
'0:11.996',1379.489
'0:12.000',1363.357
'0:12.004',1335.521
'0:12.008',1328.193
'0:12.012',1299.646
'0:12.016',1312.087
'0:12.020',1319.415
'0:12.023',1339.185
'0:12.027',1339.185
'0:12.031',1336.997
'0:12.035',1342.138
'0:12.039',1346.513
'0:12.043',1345.064
'0:12.047',1344.325
'0:12.051',1364.095
'0:12.055',1355.318
'0:12.059',1413.915
'0:12.063',1402.923
'0:12.066',1453.482
'0:12.070',1422.720
'0:12.074',1446.153
'0:12.078',1507.704
'0:12.082',1474.728
'0:12.086',1492.310
'0:12.090',1503.302
'0:12.094',1525.997
'0:12.098',1535.540
'0:12.102',1534.063
'0:12.105',1544.317
'0:12.109',1553.122
'0:12.113',1545.056
'0:12.117',1534.063
'0:12.121',1518.669
'0:12.125',1528.212
'0:12.129',1530.399
'0:12.133',1474.728
'0:12.137',1464.474
'0:12.141',1454.958
'0:12.145',1454.220
'0:12.148',1459.333
'0:12.152',1486.458
'0:12.156',1438.825
'0:12.160',1432.235
'0:12.164',1426.384
'0:12.168',1423.431
'0:12.172',1424.907
'0:12.176',1421.243
'0:12.180',1419.794
'0:12.184',1452.743
'0:12.188',1418.318
'0:12.191',1418.318
'0:12.195',1415.392
'0:12.199',1422.720
'0:12.203',1453.482
'0:12.207',1416.130
'0:12.211',1416.841
'0:12.215',1423.431
'0:12.219',1394.146
'0:12.223',1414.653
'0:12.227',1359.720
'0:12.230',1395.595
'0:12.234',1337.736
'0:12.238',1370.685
'0:12.242',1334.072
'0:12.246',1341.400
'0:12.250',1347.251
'0:12.254',1339.185
'0:12.258',1323.818
'0:12.262',1329.669
'0:12.266',1333.333
'0:12.270',1336.997
'0:12.273',1335.521
'0:12.277',1342.849
'0:12.281',1339.185
'0:12.285',1330.408
'0:12.289',1343.587
'0:12.293',1364.095
'0:12.297',1355.318
'0:12.301',1417.579
'0:12.305',1400.736
'0:12.309',1422.720
'0:12.313',1449.079
'0:12.316',1455.669
'0:12.320',1435.161
'0:12.324',1473.989
'0:12.328',1459.333
'0:12.332',1454.220
'0:12.336',1464.474
'0:12.340',1491.571
'0:12.344',1438.825
'0:12.348',1468.876
'0:12.352',1432.235
'0:12.355',1433.712
'0:12.359',1458.595
'0:12.363',1404.400
'0:12.367',1390.482
'0:12.371',1404.400
'0:12.375',1364.095
'0:12.379',1387.556
'0:12.383',1367.759
'0:12.387',1328.193
'0:12.391',1314.275
'0:12.395',1304.759
'0:12.398',1301.095
'0:12.402',1295.244
'0:12.406',1241.021
'0:12.410',1194.127
'0:12.414',1202.193
'0:12.418',1166.291
'0:12.422',1157.513
'0:12.426',1087.924
'0:12.430',1115.760
'0:12.434',1085.709
'0:12.438',1065.939
'0:12.441',1062.275
'0:12.445',1060.060
'0:12.449',1052.021
'0:12.453',1037.365
'0:12.457',1093.037
'0:12.461',1094.513
'0:12.465',1076.931
'0:12.469',1147.998
'0:12.473',1159.701
'0:12.477',1206.595
'0:12.480',1216.849
'0:12.484',1241.021
'0:12.488',1315.751
'0:12.492',1345.064
'0:12.496',1347.990
'0:12.500',1416.841
'0:12.504',1476.204
'0:12.508',1513.556
'0:12.512',1542.130
'0:12.516',1545.056
'0:12.520',1559.712
'0:12.523',1597.802
'0:12.527',1631.489
'0:12.531',1641.032
'0:12.535',1643.958
'0:12.539',1653.473
'0:12.543',1700.368
'0:12.547',1671.055
'0:12.551',1665.942
'0:12.555',1704.032
'0:12.559',1665.204
'0:12.563',1698.180
'0:12.566',1677.645
'0:12.570',1652.735
'0:12.574',1619.786
'0:12.578',1642.481
'0:12.582',1625.637
'0:12.586',1605.868
'0:12.590',1598.540
'0:12.594',1589.024
'0:12.598',1569.966
'0:12.602',1516.481
'0:12.605',1490.122
'0:12.609',1480.579
'0:12.613',1457.146
'0:12.617',1455.669
'0:12.621',1484.243
'0:12.625',1423.431
'0:12.629',1457.884
'0:12.633',1444.677
'0:12.637',1456.407
'0:12.641',1419.056
'0:12.645',1465.923
'0:12.648',1435.161
'0:12.652',1473.989
'0:12.656',1435.900
'0:12.660',1486.458
'0:12.664',1493.786
'0:12.668',1457.146
'0:12.672',1485.720
'0:12.676',1496.712
'0:12.680',1511.368
'0:12.684',1527.474
'0:12.688',1536.989
'0:12.691',1564.114
'0:12.695',1554.571
'0:12.699',1563.376
'0:12.703',1600.727
'0:12.707',1635.153
'0:12.711',1612.458
'0:12.715',1645.434
'0:12.719',1627.852
'0:12.723',1680.598
'0:12.727',1636.630
'0:12.730',1680.598
'0:12.734',1646.884
'0:12.738',1652.735
'0:12.742',1637.368
'0:12.746',1634.442
'0:12.750',1664.465
'0:12.754',1635.153
'0:12.758',1593.399
'0:12.762',1624.188
'0:12.766',1602.204
'0:12.770',1570.704
'0:12.773',1557.497
'0:12.777',1531.876
'0:12.781',1513.556
'0:12.785',1517.220
'0:12.789',1465.923
'0:12.793',1457.146
'0:12.797',1468.138
'0:12.801',1411.728
'0:12.805',1426.384
'0:12.809',1399.997
'0:12.813',1366.310
'0:12.816',1373.638
'0:12.820',1367.021
'0:12.824',1356.767
'0:12.828',1361.907
'0:12.832',1327.482
'0:12.836',1291.580
'0:12.840',1310.611
'0:12.844',1273.998
'0:12.848',1314.275
'0:12.852',1285.728
'0:12.855',1252.751
'0:12.859',1268.857
'0:12.863',1283.513
'0:12.867',1272.521
'0:12.871',1255.677
'0:12.875',1260.818
'0:12.879',1255.677
'0:12.883',1235.908
'0:12.887',1226.365
'0:12.891',1209.521
'0:12.895',1227.841
'0:12.898',1219.775
'0:12.902',1231.505
'0:12.906',1227.841
'0:12.910',1214.662
'0:12.914',1233.693
'0:12.918',1252.013
'0:12.922',1238.834
'0:12.926',1253.490
'0:12.930',1284.990
'0:12.934',1309.162
'0:12.938',1317.939
'0:12.941',1334.810
'0:12.945',1379.489
'0:12.949',1370.685
'0:12.953',1367.759
'0:12.957',1393.407
'0:12.961',1422.720
'0:12.965',1411.728
'0:12.969',1407.325
'0:12.973',1424.169
'0:12.977',1407.325
'0:12.980',1402.923
'0:12.984',1408.802
'0:12.988',1420.505
'0:12.992',1424.169
'0:12.996',1409.513
'0:13.000',1405.138
'0:13.004',1337.736
'0:13.008',1344.325
'0:13.012',1312.087
'0:13.016',1326.744
'0:13.020',1300.357
'0:13.023',1284.990
'0:13.027',1291.580
'0:13.031',1254.939
'0:13.035',1282.064
'0:13.039',1282.775
'0:13.043',1260.080
'0:13.047',1304.021
'0:13.051',1286.439
'0:13.055',1290.841
'0:13.059',1321.603
'0:13.063',1323.079
'0:13.066',1380.966
'0:13.070',1368.497
'0:13.074',1407.325
'0:13.078',1392.669
'0:13.082',1401.474
'0:13.086',1412.466
'0:13.090',1431.497
'0:13.094',1445.415
'0:13.098',1482.056
'0:13.102',1478.392
'0:13.105',1445.415
'0:13.109',1448.341
'0:13.113',1464.474
'0:13.117',1455.669
'0:13.121',1449.817
'0:13.125',1431.497
'0:13.129',1382.415
'0:13.133',1401.474
'0:13.137',1363.357
'0:13.141',1375.087
'0:13.145',1330.408
'0:13.148',1367.021
'0:13.152',1329.669
'0:13.156',1292.318
'0:13.160',1271.783
'0:13.164',1279.111
'0:13.168',1285.728
'0:13.172',1260.818
'0:13.176',1241.759
'0:13.180',1227.103
'0:13.184',1205.119
'0:13.188',1158.963
'0:13.191',1167.767
'0:13.195',1117.209
'0:13.199',1158.252
'0:13.203',1139.193
'0:13.207',1122.349
'0:13.211',1136.267
'0:13.215',1079.857
'0:13.219',1128.939
'0:13.223',1090.111
'0:13.227',1127.463
'0:13.230',1109.881
'0:13.234',1104.767
'0:13.238',1108.431
'0:13.242',1158.963
'0:13.246',1179.498
'0:13.250',1210.259
'0:13.254',1219.775
'0:13.258',1225.654
'0:13.262',1276.923
'0:13.266',1266.669
'0:13.270',1329.669
'0:13.273',1313.564
'0:13.277',1376.564
'0:13.281',1361.907
'0:13.285',1404.400
'0:13.289',1458.595
'0:13.293',1430.759
'0:13.297',1478.392
'0:13.301',1495.235
'0:13.305',1490.833
'0:13.309',1508.415
'0:13.313',1507.704
'0:13.316',1492.310
'0:13.320',1497.423
'0:13.324',1534.063
'0:13.328',1530.399
'0:13.332',1492.310
'0:13.336',1521.622
'0:13.340',1534.802
'0:13.344',1494.497
'0:13.348',1496.712
'0:13.352',1518.669
'0:13.355',1537.727
'0:13.359',1502.563
'0:13.363',1552.384
'0:13.367',1525.997
'0:13.371',1516.481
'0:13.375',1571.442
'0:13.379',1542.130
'0:13.383',1528.212
'0:13.387',1573.630
'0:13.391',1533.325
'0:13.395',1554.571
'0:13.398',1542.868
'0:13.402',1553.122
'0:13.406',1545.794
'0:13.410',1524.548
'0:13.414',1506.966
'0:13.418',1531.138
'0:13.422',1496.712
'0:13.426',1500.376
'0:13.430',1529.661
'0:13.434',1478.392
'0:13.438',1480.579
'0:13.441',1511.368
'0:13.445',1504.751
'0:13.449',1472.540
'0:13.453',1457.884
'0:13.457',1452.005
'0:13.461',1435.900
'0:13.465',1435.161
'0:13.469',1463.735
'0:13.473',1465.212
'0:13.477',1454.220
'0:13.480',1437.376
'0:13.484',1449.079
'0:13.488',1456.407
'0:13.492',1446.892
'0:13.496',1439.564
'0:13.500',1452.005
'0:13.504',1466.661
'0:13.508',1484.981
'0:13.512',1486.458
'0:13.516',1458.595
'0:13.520',1482.794
'0:13.523',1449.079
'0:13.527',1456.407
'0:13.531',1430.048
'0:13.535',1469.587
'0:13.539',1416.841
'0:13.543',1439.564
'0:13.547',1402.923
'0:13.551',1411.728
'0:13.555',1421.982
'0:13.559',1355.318
'0:13.563',1357.505
'0:13.566',1370.685
'0:13.570',1305.497
'0:13.574',1334.810
'0:13.578',1282.775
'0:13.582',1295.982
'0:13.586',1281.326
'0:13.590',1242.498
'0:13.594',1219.775
'0:13.598',1200.744
'0:13.602',1186.088
'0:13.605',1166.291
'0:13.609',1132.603
'0:13.613',1093.775
'0:13.617',1077.642
'0:13.621',1057.135
'0:13.625',1017.596
'0:13.629',1015.381
'0:13.633',983.881
'0:13.637',969.225
'0:13.641',945.791
'0:13.645',966.299
'0:13.648',1002.939
'0:13.652',1018.307
'0:13.656',1035.889
'0:13.660',1060.060
'0:13.664',1081.306
'0:13.668',1087.924
'0:13.672',1162.627
'0:13.676',1209.521
'0:13.680',1243.947
'0:13.684',1295.982
'0:13.688',1301.095
'0:13.691',1382.415
'0:13.695',1384.603
'0:13.699',1410.989
'0:13.703',1455.669
'0:13.707',1493.048
'0:13.711',1529.661
'0:13.715',1562.638
'0:13.719',1575.079
'0:13.723',1561.899
'0:13.727',1573.630
'0:13.730',1589.024
'0:13.734',1583.884
'0:13.738',1575.817
'0:13.742',1516.481
'0:13.746',1499.638
'0:13.750',1490.122
'0:13.754',1495.974
'0:13.758',1480.579
'0:13.762',1447.630
'0:13.766',1396.333
'0:13.770',1415.392
'0:13.773',1357.505
'0:13.777',1323.818
'0:13.781',1287.177
'0:13.785',1315.013
'0:13.789',1295.244
'0:13.793',1282.064
'0:13.797',1227.103
'0:13.801',1210.259
'0:13.805',1235.908
'0:13.809',1243.947
'0:13.813',1232.955
'0:13.816',1238.834
'0:13.820',1284.990
'0:13.824',1276.923
'0:13.828',1285.728
'0:13.832',1290.841
'0:13.836',1361.169
'0:13.840',1347.990
'0:13.844',1400.736
'0:13.848',1419.794
'0:13.852',1424.169
'0:13.855',1459.333
'0:13.859',1484.981
'0:13.863',1515.032
'0:13.867',1574.368
'0:13.871',1602.942
'0:13.875',1602.942
'0:13.879',1655.688
'0:13.883',1683.524
'0:13.887',1675.458
'0:13.891',1720.876
'0:13.895',1726.727
'0:13.898',1728.204
'0:13.902',1724.540
'0:13.906',1726.727
'0:13.910',1732.606
'0:13.914',1740.672
'0:13.918',1772.883
'0:13.922',1778.024
'0:13.926',1751.637
'0:13.930',1725.278
'0:13.934',1727.465
'0:13.938',1710.622
'0:13.941',1694.516
'0:13.945',1691.563
'0:13.949',1683.524
'0:13.953',1710.622
'0:13.957',1654.212
'0:13.961',1690.114
'0:13.965',1639.555
'0:13.969',1655.688
'0:13.973',1617.571
'0:13.977',1663.016
'0:13.980',1623.450
'0:13.984',1649.809
'0:13.988',1666.680
'0:13.992',1625.637
'0:13.996',1669.606
'0:14.000',1643.958
'0:14.004',1677.645
'0:14.008',1715.762
'0:14.012',1677.645
'0:14.016',1701.844
'0:14.020',1727.465
'0:14.023',1751.637
'0:14.027',1718.688
'0:14.031',1709.145
'0:14.035',1705.508
'0:14.039',1698.180
'0:14.043',1687.899
'0:14.047',1673.981
'0:14.051',1669.606
'0:14.055',1672.532
'0:14.059',1634.442
'0:14.063',1593.399
'0:14.066',1593.399
'0:14.070',1564.825
'0:14.074',1527.474
'0:14.078',1504.040
'0:14.082',1487.907
'0:14.086',1416.841
'0:14.090',1423.431
'0:14.094',1357.505
'0:14.098',1350.915
'0:14.102',1308.423
'0:14.105',1277.662
'0:14.109',1256.416
'0:14.113',1242.498
'0:14.117',1230.767
'0:14.121',1168.506
'0:14.125',1147.998
'0:14.129',1104.767
'0:14.133',1111.357
'0:14.137',1112.834
'0:14.141',1090.849
'0:14.145',1069.603
'0:14.148',1050.545
'0:14.152',1031.514
'0:14.156',1002.939
'0:14.160',972.889
'0:14.164',956.045
'0:14.168',940.651
'0:14.172',965.561
'0:14.176',930.397
'0:14.180',927.471
'0:14.184',883.530
'0:14.188',926.733
'0:14.191',904.776
'0:14.195',865.948
'0:14.199',901.822
'0:14.203',882.791
'0:14.207',912.076
'0:14.211',906.225
'0:14.215',900.373
'0:14.219',919.404
'0:14.223',980.217
'0:14.227',1021.971
'0:14.230',1059.349
'0:14.234',1075.455
'0:14.238',1102.553
'0:14.242',1155.299
'0:14.246',1210.998
'0:14.250',1243.947
'0:14.254',1265.931
'0:14.258',1358.982
'0:14.262',1356.767
'0:14.266',1427.095
'0:14.270',1429.310
'0:14.273',1462.259
'0:14.277',1490.833
'0:14.281',1550.907
'0:14.285',1586.809
'0:14.289',1602.942
'0:14.293',1579.481
'0:14.297',1629.302
'0:14.301',1591.212
'0:14.305',1635.153
'0:14.309',1610.981
'0:14.313',1583.884
'0:14.316',1601.466
'0:14.320',1571.442
'0:14.324',1550.196
'0:14.328',1578.743
'0:14.332',1523.071
'0:14.336',1517.220
'0:14.340',1505.489
'0:14.344',1502.563
'0:14.348',1453.482
'0:14.352',1424.907
'0:14.355',1424.907
'0:14.359',1435.161
'0:14.363',1399.259
'0:14.367',1356.767
'0:14.371',1363.357
'0:14.375',1324.556
'0:14.379',1273.259
'0:14.383',1257.154
'0:14.387',1223.439
'0:14.391',1192.677
'0:14.395',1137.717
'0:14.398',1144.334
'0:14.402',1060.799
'0:14.406',1076.931
'0:14.410',1040.291
'0:14.414',1013.193
'0:14.418',982.404
'0:14.422',921.619
'0:14.426',912.815
'0:14.430',925.283
'0:14.434',932.611
'0:14.438',907.701
'0:14.441',879.127
'0:14.445',902.561
'0:14.449',948.717
'0:14.453',967.775
'0:14.457',992.686
'0:14.461',1026.373
'0:14.465',1093.775
'0:14.469',1147.259
'0:14.473',1194.127
'0:14.477',1235.169
'0:14.480',1317.228
'0:14.484',1374.349
'0:14.488',1490.122
'0:14.492',1530.399
'0:14.496',1645.434
'0:14.500',1684.973
'0:14.504',1756.040
'0:14.508',1840.285
'0:14.512',1877.664
'0:14.516',1920.867
'0:14.520',1951.656
'0:14.523',2023.434
'0:14.527',2039.566
'0:14.531',2087.172
'0:14.535',2092.312
'0:14.539',2106.230
'0:14.543',2113.558
'0:14.547',2138.468
'0:14.551',2131.140
'0:14.555',2095.976
'0:14.559',2094.500
'0:14.563',2084.984
'0:14.566',2054.933
'0:14.570',2012.441
'0:14.574',1987.559
'0:14.578',1980.231
'0:14.582',1920.156
'0:14.586',1895.985
'0:14.590',1860.082
'0:14.594',1808.047
'0:14.598',1740.672
'0:14.602',1722.352
'0:14.605',1653.473
'0:14.609',1642.481
'0:14.613',1585.360
'0:14.617',1525.997
'0:14.621',1487.169
'0:14.625',1476.204
'0:14.629',1454.958
'0:14.633',1412.466
'0:14.637',1410.989
'0:14.641',1353.841
'0:14.645',1349.439
'0:14.648',1335.521
'0:14.652',1304.021
'0:14.656',1273.998
'0:14.660',1308.423
'0:14.664',1306.947
'0:14.668',1281.326
'0:14.672',1262.267
'0:14.676',1263.005
'0:14.680',1268.857
'0:14.684',1290.103
'0:14.688',1274.736
'0:14.691',1270.333
'0:14.695',1306.947
'0:14.699',1289.365
'0:14.703',1269.595
'0:14.707',1260.080
'0:14.711',1298.169
'0:14.715',1271.072
'0:14.719',1284.251
'0:14.723',1286.439
'0:14.727',1268.119
'0:14.730',1241.021
'0:14.734',1266.669
'0:14.738',1280.587
'0:14.742',1276.185
'0:14.746',1272.521
'0:14.750',1263.005
'0:14.754',1238.834
'0:14.758',1249.087
'0:14.762',1235.908
'0:14.766',1175.095
'0:14.770',1161.177
'0:14.773',1180.947
'0:14.777',1110.619
'0:14.781',1126.013
'0:14.785',1078.381
'0:14.789',1010.978
'0:14.793',1005.127
'0:14.797',964.822
'0:14.801',939.201
'0:14.805',915.029
'0:14.809',909.151
'0:14.813',892.307
'0:14.816',849.815
'0:14.820',865.209
'0:14.824',843.963
'0:14.828',892.307
'0:14.832',852.002
'0:14.836',904.037
'0:14.840',926.733
'0:14.844',925.994
'0:14.848',968.486
'0:14.852',1033.701
'0:14.855',1054.947
'0:14.859',1104.767
'0:14.863',1106.955
'0:14.867',1161.177
'0:14.871',1221.990
'0:14.875',1268.857
'0:14.879',1304.021
'0:14.883',1380.228
'0:14.887',1375.825
'0:14.891',1423.431
'0:14.895',1457.884
'0:14.898',1485.720
'0:14.902',1524.548
'0:14.906',1561.161
'0:14.910',1594.876
'0:14.914',1618.309
'0:14.918',1610.270
'0:14.922',1600.727
'0:14.926',1623.450
'0:14.930',1665.942
'0:14.934',1637.368
'0:14.938',1649.071
'0:14.941',1660.801
'0:14.945',1619.786
'0:14.949',1657.876
'0:14.953',1621.973
'0:14.957',1592.661
'0:14.961',1586.071
'0:14.965',1551.645
'0:14.969',1520.145
'0:14.973',1500.376
'0:14.977',1495.235
'0:14.980',1497.423
'0:14.984',1446.892
'0:14.988',1435.161
'0:14.992',1438.825
'0:14.996',1452.743
'0:15.000',1408.802
'0:15.004',1398.548
'0:15.008',1420.505
'0:15.012',1437.376
'0:15.016',1419.794
'0:15.020',1419.056
'0:15.023',1443.966
'0:15.027',1466.661
'0:15.031',1495.974
'0:15.035',1508.415
'0:15.039',1526.735
'0:15.043',1505.489
'0:15.047',1565.563
'0:15.051',1551.645
'0:15.055',1597.802
'0:15.059',1613.907
'0:15.063',1652.024
'0:15.066',1654.212
'0:15.070',1665.942
'0:15.074',1690.852
'0:15.078',1694.516
'0:15.082',1712.098
'0:15.086',1739.196
'0:15.090',1781.688
'0:15.094',1754.590
'0:15.098',1751.637
'0:15.102',1768.508
'0:15.105',1772.172
'0:15.109',1786.801
'0:15.113',1780.211
'0:15.117',1759.704
'0:15.121',1752.375
'0:15.125',1721.614
'0:15.129',1702.555
'0:15.133',1684.973
'0:15.137',1668.130
'0:15.141',1654.212
'0:15.145',1630.778
'0:15.148',1625.637
'0:15.152',1597.802
'0:15.156',1612.458
'0:15.160',1561.161
'0:15.164',1524.548
'0:15.168',1490.833
'0:15.172',1461.548
'0:15.176',1446.892
'0:15.180',1452.005
'0:15.184',1443.228
'0:15.188',1408.802
'0:15.191',1395.595
'0:15.195',1338.474
'0:15.199',1363.357
'0:15.203',1319.415
'0:15.207',1339.923
'0:15.211',1306.947
'0:15.215',1296.693
'0:15.219',1326.744
'0:15.223',1315.013
'0:15.227',1295.982
'0:15.230',1293.029
'0:15.234',1284.251
'0:15.238',1268.857
'0:15.242',1260.080
'0:15.246',1286.439
'0:15.250',1260.080
'0:15.254',1242.498
'0:15.258',1290.103
'0:15.262',1254.201
'0:15.266',1279.849
'0:15.270',1238.834
'0:15.273',1235.908
'0:15.277',1251.275
'0:15.281',1244.685
'0:15.285',1245.423
'0:15.289',1267.408
'0:15.293',1259.341
'0:15.297',1247.611
'0:15.301',1239.572
'0:15.305',1240.283
'0:15.309',1285.728
'0:15.313',1273.998
'0:15.316',1269.595
'0:15.320',1319.415
'0:15.324',1297.431
'0:15.328',1328.193
'0:15.332',1318.677
'0:15.336',1365.572
'0:15.340',1341.400
'0:15.344',1372.161
'0:15.348',1381.677
'0:15.352',1394.884
'0:15.355',1392.669
'0:15.359',1399.259
'0:15.363',1395.595
'0:15.367',1375.087
'0:15.371',1375.825
'0:15.375',1371.423
'0:15.379',1386.079
'0:15.383',1384.603
'0:15.387',1339.923
'0:15.391',1316.490
'0:15.395',1325.267
'0:15.398',1286.439
'0:15.402',1282.064
'0:15.406',1314.275
'0:15.410',1284.251
'0:15.414',1286.439
'0:15.418',1273.998
'0:15.422',1273.998
'0:15.426',1287.915
'0:15.430',1281.326
'0:15.434',1275.447
'0:15.438',1331.146
'0:15.441',1341.400
'0:15.445',1315.013
'0:15.449',1354.579
'0:15.453',1335.521
'0:15.457',1384.603
'0:15.461',1397.810
'0:15.465',1413.915
'0:15.469',1384.603
'0:15.473',1377.302
'0:15.477',1411.728
'0:15.480',1420.505
'0:15.484',1385.341
'0:15.488',1421.982
'0:15.492',1388.267
'0:15.496',1405.138
'0:15.500',1404.400
'0:15.504',1375.087
'0:15.508',1403.661
'0:15.512',1386.818
'0:15.516',1380.228
'0:15.520',1401.474
'0:15.523',1350.915
'0:15.527',1331.857
'0:15.531',1365.572
'0:15.535',1335.521
'0:15.539',1290.841
'0:15.543',1275.447
'0:15.547',1299.646
'0:15.551',1253.490
'0:15.555',1215.373
'0:15.559',1214.662
'0:15.563',1198.529
'0:15.566',1210.259
'0:15.570',1200.744
'0:15.574',1185.349
'0:15.578',1134.080
'0:15.582',1161.916
'0:15.586',1160.439
'0:15.590',1151.662
'0:15.594',1113.545
'0:15.598',1111.357
'0:15.602',1175.095
'0:15.605',1186.826
'0:15.609',1198.529
'0:15.613',1197.080
'0:15.617',1211.709
'0:15.621',1263.005
'0:15.625',1287.915
'0:15.629',1301.833
'0:15.633',1350.915
'0:15.637',1397.810
'0:15.641',1396.333
'0:15.645',1405.849
'0:15.648',1421.982
'0:15.652',1475.466
'0:15.656',1451.294
'0:15.660',1441.013
'0:15.664',1446.892
'0:15.668',1460.810
'0:15.672',1445.415
'0:15.676',1457.146
'0:15.680',1467.399
'0:15.684',1450.556
'0:15.688',1391.931
'0:15.691',1392.669
'0:15.695',1364.833
'0:15.699',1359.720
'0:15.703',1368.497
'0:15.707',1373.638
'0:15.711',1380.966
'0:15.715',1380.228
'0:15.719',1382.415
'0:15.723',1337.736
'0:15.727',1340.661
'0:15.730',1346.513
'0:15.734',1402.923
'0:15.738',1399.259
'0:15.742',1402.185
'0:15.746',1392.669
'0:15.750',1426.384
'0:15.754',1467.399
'0:15.758',1465.212
'0:15.762',1455.669
'0:15.766',1520.145
'0:15.770',1508.415
'0:15.773',1497.423
'0:15.777',1525.997
'0:15.781',1561.161
'0:15.785',1529.661
'0:15.789',1569.966
'0:15.793',1586.809
'0:15.797',1558.235
'0:15.801',1542.868
'0:15.805',1582.407
'0:15.809',1537.727
'0:15.813',1534.063
'0:15.816',1548.720
'0:15.820',1523.810
'0:15.824',1567.040
'0:15.828',1525.997
'0:15.832',1517.220
'0:15.836',1528.212
'0:15.840',1501.825
'0:15.844',1484.243
'0:15.848',1477.653
'0:15.852',1463.735
'0:15.855',1459.333
'0:15.859',1447.630
'0:15.863',1485.720
'0:15.867',1488.646
'0:15.871',1486.458
'0:15.875',1484.981
'0:15.879',1471.802
'0:15.883',1431.497
'0:15.887',1429.310
'0:15.891',1426.384
'0:15.895',1422.720
'0:15.898',1419.056
'0:15.902',1418.318
'0:15.906',1456.407
'0:15.910',1451.294
'0:15.914',1401.474
'0:15.918',1403.661
'0:15.922',1413.915
'0:15.926',1373.638
'0:15.930',1369.236
'0:15.934',1380.228
'0:15.938',1317.939
'0:15.941',1351.654
'0:15.945',1288.654
'0:15.949',1317.228
'0:15.953',1276.185
'0:15.957',1259.341
'0:15.961',1257.154
'0:15.965',1243.236
'0:15.969',1185.349
'0:15.973',1146.521
'0:15.977',1123.799
'0:15.980',1126.013
'0:15.984',1072.529
'0:15.988',1095.252
'0:15.992',1042.478
'0:15.996',1013.932
'0:16.000',980.955
'0:16.004',964.822
'0:16.008',968.486
'0:16.012',986.807
'0:16.016',1012.455
'0:16.020',1024.896
'0:16.023',1032.963
'0:16.027',1041.767
'0:16.031',1069.603
'0:16.035',1085.709
'0:16.039',1156.775
'0:16.043',1219.775
'0:16.047',1224.916
'0:16.051',1268.857
'0:16.055',1321.603
'0:16.059',1379.489
'0:16.063',1475.466
'0:16.066',1485.720
'0:16.070',1572.153
'0:16.074',1589.024
'0:16.078',1668.130
'0:16.082',1696.704
'0:16.086',1737.008
'0:16.090',1737.719
'0:16.094',1780.950
'0:16.098',1747.262
'0:16.102',1794.868
'0:16.105',1758.965
'0:16.109',1770.696
'0:16.113',1753.852
'0:16.117',1773.622
'0:16.121',1742.122
'0:16.125',1707.696
'0:16.129',1691.563
'0:16.133',1671.794
'0:16.137',1589.735
'0:16.141',1572.153
'0:16.145',1531.876
'0:16.148',1538.466
'0:16.152',1502.563
'0:16.156',1473.989
'0:16.160',1448.341
'0:16.164',1376.564
'0:16.168',1380.966
'0:16.172',1386.818
'0:16.176',1342.849
'0:16.180',1312.087
'0:16.184',1336.997
'0:16.188',1313.564
'0:16.191',1318.677
'0:16.195',1357.505
'0:16.199',1314.275
'0:16.203',1361.907
'0:16.207',1364.833
'0:16.211',1369.236
'0:16.215',1396.333
'0:16.219',1414.653
'0:16.223',1454.958
'0:16.227',1479.130
'0:16.230',1493.786
'0:16.234',1498.161
'0:16.238',1551.645
'0:16.242',1529.661
'0:16.246',1569.227
'0:16.250',1601.466
'0:16.254',1599.989
'0:16.258',1613.196
'0:16.262',1633.704
'0:16.266',1658.614
'0:16.270',1706.958
'0:16.273',1731.868
'0:16.277',1716.473
'0:16.281',1713.547
'0:16.285',1749.450
'0:16.289',1753.114
'0:16.293',1742.122
'0:16.297',1738.458
'0:16.301',1771.434
'0:16.305',1723.090
'0:16.309',1720.137
'0:16.313',1750.188
'0:16.316',1736.270
'0:16.320',1690.852
'0:16.324',1660.063
'0:16.328',1647.622
'0:16.332',1663.016
'0:16.336',1635.153
'0:16.340',1585.360
'0:16.344',1601.466
'0:16.348',1545.056
'0:16.352',1552.384
'0:16.355',1506.966
'0:16.359',1532.614
'0:16.363',1495.235
'0:16.367',1468.876
'0:16.371',1457.146
'0:16.375',1486.458
'0:16.379',1453.482
'0:16.383',1450.556
'0:16.387',1434.423
'0:16.391',1454.958
'0:16.395',1405.138
'0:16.398',1419.794
'0:16.402',1436.638
'0:16.406',1386.818
'0:16.410',1383.154
'0:16.414',1380.966
'0:16.418',1382.415
'0:16.422',1392.669
'0:16.426',1410.251
'0:16.430',1415.392
'0:16.434',1375.825
'0:16.438',1375.087
'0:16.441',1389.005
'0:16.445',1410.251
'0:16.449',1416.130
'0:16.453',1360.431
'0:16.457',1375.087
'0:16.461',1386.079
'0:16.465',1357.505
'0:16.469',1348.728
'0:16.473',1379.489
'0:16.477',1371.423
'0:16.480',1364.095
'0:16.484',1331.146
'0:16.488',1297.431
'0:16.492',1317.939
'0:16.496',1328.193
'0:16.500',1308.423
'0:16.504',1301.095
'0:16.508',1288.654
'0:16.512',1293.767
'0:16.516',1304.759
'0:16.520',1290.841
'0:16.523',1281.326
'0:16.527',1281.326
'0:16.531',1274.736
'0:16.535',1228.580
'0:16.539',1241.759
'0:16.543',1243.236
'0:16.547',1242.498
'0:16.551',1184.611
'0:16.555',1212.447
'0:16.559',1167.767
'0:16.563',1184.611
'0:16.566',1141.381
'0:16.570',1173.619
'0:16.574',1135.529
'0:16.578',1119.424
'0:16.582',1095.963
'0:16.586',1092.299
'0:16.590',1068.865
'0:16.594',1077.642
'0:16.598',1076.931
'0:16.602',1090.111
'0:16.605',1092.299
'0:16.609',1091.588
'0:16.613',1093.775
'0:16.617',1153.849
'0:16.621',1131.127
'0:16.625',1194.127
'0:16.629',1243.947
'0:16.633',1270.333
'0:16.637',1317.228
'0:16.641',1356.056
'0:16.645',1367.759
'0:16.648',1390.482
'0:16.652',1469.587
'0:16.656',1464.474
'0:16.660',1515.032
'0:16.664',1547.981
'0:16.668',1569.966
'0:16.672',1575.079
'0:16.676',1566.302
'0:16.680',1594.138
'0:16.684',1620.524
'0:16.688',1605.130
'0:16.691',1589.735
'0:16.695',1547.981
'0:16.699',1535.540
'0:16.703',1517.958
'0:16.707',1511.368
'0:16.711',1442.489
'0:16.715',1449.817
'0:16.719',1371.423
'0:16.723',1364.833
'0:16.727',1342.138
'0:16.730',1287.915
'0:16.734',1222.701
'0:16.738',1229.318
'0:16.742',1141.381
'0:16.746',1138.455
'0:16.750',1085.709
'0:16.754',1089.373
'0:16.758',1043.217
'0:16.762',1030.775
'0:16.766',1023.447
'0:16.770',1010.978
'0:16.773',1012.455
'0:16.777',1007.314
'0:16.781',1005.865
'0:16.785',1012.455
'0:16.789',1021.971
'0:16.793',1010.268
'0:16.797',1074.717
'0:16.801',1057.873
'0:16.805',1134.080
'0:16.809',1181.685
'0:16.813',1204.408
'0:16.816',1265.931
'0:16.820',1275.447
'0:16.824',1356.767
'0:16.828',1364.095
'0:16.832',1398.548
'0:16.836',1441.013
'0:16.840',1515.032
'0:16.844',1550.196
'0:16.848',1545.056
'0:16.852',1619.048
'0:16.855',1610.981
'0:16.859',1657.876
'0:16.863',1630.040
'0:16.867',1686.450
'0:16.871',1664.465
'0:16.875',1652.024
'0:16.879',1660.801
'0:16.883',1691.563
'0:16.887',1675.458
'0:16.891',1652.024
'0:16.895',1635.891
'0:16.898',1622.712
'0:16.902',1627.114
'0:16.906',1621.235
'0:16.910',1620.524
'0:16.914',1610.270
'0:16.918',1594.138
'0:16.922',1594.138
'0:16.926',1558.974
'0:16.930',1580.958
'0:16.934',1560.450
'0:16.938',1533.325
'0:16.941',1532.614
'0:16.945',1523.810
'0:16.949',1527.474
'0:16.953',1524.548
'0:16.957',1551.645
'0:16.961',1540.653
'0:16.965',1536.251
'0:16.969',1527.474
'0:16.973',1502.563
'0:16.977',1462.997
'0:16.980',1496.712
'0:16.984',1488.646
'0:16.988',1452.005
'0:16.992',1416.130
'0:16.996',1401.474
'0:17.000',1414.653
'0:17.004',1373.638
'0:17.008',1404.400
'0:17.012',1356.056
'0:17.016',1322.341
'0:17.020',1305.497
'0:17.023',1291.580
'0:17.027',1309.900
'0:17.031',1295.982
'0:17.035',1282.775
'0:17.039',1259.341
'0:17.043',1253.490
'0:17.047',1269.595
'0:17.051',1266.669
'0:17.055',1267.408
'0:17.059',1270.333
'0:17.063',1296.693
'0:17.066',1300.357
'0:17.070',1290.841
'0:17.074',1328.193
'0:17.078',1331.857
'0:17.082',1317.939
'0:17.086',1323.818
'0:17.090',1377.302
'0:17.094',1379.489
'0:17.098',1370.685
'0:17.102',1370.685
'0:17.105',1367.759
'0:17.109',1387.556
'0:17.113',1382.415
'0:17.117',1391.220
'0:17.121',1355.318
'0:17.125',1394.884
'0:17.129',1356.056
'0:17.133',1340.661
'0:17.137',1368.497
'0:17.141',1322.341
'0:17.145',1367.021
'0:17.148',1361.907
'0:17.152',1306.947
'0:17.156',1309.162
'0:17.160',1312.087
'0:17.164',1316.490
'0:17.168',1316.490
'0:17.172',1336.259
'0:17.176',1342.849
'0:17.180',1318.677
'0:17.184',1358.243
'0:17.188',1355.318
'0:17.191',1318.677
'0:17.195',1297.431
'0:17.199',1329.669
'0:17.203',1299.646
'0:17.207',1263.744
'0:17.211',1304.021
'0:17.215',1302.572
'0:17.219',1271.783
'0:17.223',1262.267
'0:17.227',1254.939
'0:17.230',1260.080
'0:17.234',1254.939
'0:17.238',1306.947
'0:17.242',1323.079
'0:17.246',1317.939
'0:17.250',1317.228
'0:17.254',1366.310
'0:17.258',1353.103
'0:17.262',1400.736
'0:17.266',1394.146
'0:17.270',1420.505
'0:17.273',1435.161
'0:17.277',1474.728
'0:17.281',1503.302
'0:17.285',1519.407
'0:17.289',1528.950
'0:17.293',1525.997
'0:17.297',1591.212
'0:17.301',1597.063
'0:17.305',1604.391
'0:17.309',1656.399
'0:17.313',1631.489
'0:17.316',1672.532
'0:17.320',1657.137
'0:17.324',1643.219
'0:17.328',1641.032
'0:17.332',1622.712
'0:17.336',1639.555
'0:17.340',1619.048
'0:17.344',1578.032
'0:17.348',1569.966
'0:17.352',1553.122
'0:17.355',1481.317
'0:17.359',1461.548
'0:17.363',1427.095
'0:17.367',1440.302
'0:17.371',1358.982
'0:17.375',1382.415
'0:17.379',1328.193
'0:17.383',1279.111
'0:17.387',1306.236
'0:17.391',1267.408
'0:17.395',1257.865
'0:17.398',1242.498
'0:17.402',1234.431
'0:17.406',1216.111
'0:17.410',1221.990
'0:17.414',1222.701
'0:17.418',1227.841
'0:17.422',1235.908
'0:17.426',1243.236
'0:17.430',1243.236
'0:17.434',1263.005
'0:17.438',1278.400
'0:17.441',1331.146
'0:17.445',1323.079
'0:17.449',1351.654
'0:17.453',1375.087
'0:17.457',1424.907
'0:17.461',1456.407
'0:17.465',1468.876
'0:17.469',1480.579
'0:17.473',1512.079
'0:17.477',1585.360
'0:17.480',1565.563
'0:17.484',1611.720
'0:17.488',1668.868
'0:17.492',1657.137
'0:17.496',1676.934
'0:17.500',1697.442
'0:17.504',1720.876
'0:17.508',1782.426
'0:17.512',1797.793
'0:17.516',1772.883
'0:17.520',1809.524
'0:17.523',1789.016
'0:17.527',1785.352
'0:17.531',1783.137
'0:17.535',1794.868
'0:17.539',1811.711
'0:17.543',1796.344
'0:17.547',1766.293
'0:17.551',1737.008
'0:17.555',1736.270
'0:17.559',1709.145
'0:17.563',1690.114
'0:17.566',1684.262
'0:17.570',1659.352
'0:17.574',1653.473
'0:17.578',1646.145
'0:17.582',1580.220
'0:17.586',1574.368
'0:17.590',1580.958
'0:17.594',1535.540
'0:17.598',1514.294
'0:17.602',1490.122
'0:17.605',1482.794
'0:17.609',1484.243
'0:17.613',1465.212
'0:17.617',1434.423
'0:17.621',1388.267
'0:17.625',1403.661
'0:17.629',1356.056
'0:17.633',1390.482
'0:17.637',1362.646
'0:17.641',1338.474
'0:17.645',1356.056
'0:17.648',1348.728
'0:17.652',1317.939
'0:17.656',1300.357
'0:17.660',1300.357
'0:17.664',1330.408
'0:17.668',1322.341
'0:17.672',1299.646
'0:17.676',1292.318
'0:17.680',1295.244
'0:17.684',1345.775
'0:17.688',1330.408
'0:17.691',1323.818
'0:17.695',1309.162
'0:17.699',1358.243
'0:17.703',1334.072
'0:17.707',1320.892
'0:17.711',1342.138
'0:17.715',1320.892
'0:17.719',1315.751
'0:17.723',1353.103
'0:17.727',1311.349
'0:17.730',1349.439
'0:17.734',1347.990
'0:17.738',1326.005
'0:17.742',1345.064
'0:17.746',1336.259
'0:17.750',1301.095
'0:17.754',1342.849
'0:17.758',1298.169
'0:17.762',1347.990
'0:17.766',1340.661
'0:17.770',1309.900
'0:17.773',1303.310
'0:17.777',1326.744
'0:17.781',1333.333
'0:17.785',1315.013
'0:17.789',1312.087
'0:17.793',1302.572
'0:17.797',1309.900
'0:17.801',1321.603
'0:17.805',1332.595
'0:17.809',1290.841
'0:17.813',1314.275
'0:17.816',1274.736
'0:17.820',1247.611
'0:17.824',1226.365
'0:17.828',1203.670
'0:17.832',1203.670
'0:17.836',1201.455
'0:17.840',1204.408
'0:17.844',1209.521
'0:17.848',1203.670
'0:17.852',1193.416
'0:17.855',1204.408
'0:17.859',1222.701
'0:17.863',1217.587
'0:17.867',1214.662
'0:17.871',1228.580
'0:17.875',1232.955
'0:17.879',1252.751
'0:17.883',1286.439
'0:17.887',1284.251
'0:17.891',1298.908
'0:17.895',1329.669
'0:17.898',1323.079
'0:17.902',1365.572
'0:17.906',1394.884
'0:17.910',1378.751
'0:17.914',1377.302
'0:17.918',1414.653
'0:17.922',1376.564
'0:17.926',1394.146
'0:17.930',1394.146
'0:17.934',1378.751
'0:17.938',1385.341
'0:17.941',1367.021
'0:17.945',1365.572
'0:17.949',1337.736
'0:17.953',1306.236
'0:17.957',1335.521
'0:17.961',1281.326
'0:17.965',1252.751
'0:17.969',1231.505
'0:17.973',1216.849
'0:17.977',1239.572
'0:17.980',1227.841
'0:17.984',1195.603
'0:17.988',1155.299
'0:17.992',1153.111
'0:17.996',1171.431
'0:18.000',1114.283
'0:18.004',1139.931
'0:18.008',1156.037
'0:18.012',1108.431
'0:18.016',1159.701
'0:18.020',1120.873
'0:18.023',1157.513
'0:18.027',1196.341
'0:18.031',1203.670
'0:18.035',1225.654
'0:18.039',1218.326
'0:18.043',1282.775
'0:18.047',1304.021
'0:18.051',1300.357
'0:18.055',1372.900
'0:18.059',1394.146
'0:18.063',1393.407
'0:18.066',1427.095
'0:18.070',1464.474
'0:18.074',1498.899
'0:18.078',1555.309
'0:18.082',1572.891
'0:18.086',1573.630
'0:18.090',1638.106
'0:18.094',1618.309
'0:18.098',1642.481
'0:18.102',1676.934
'0:18.105',1706.219
'0:18.109',1679.860
'0:18.113',1688.637
'0:18.117',1703.294
'0:18.121',1719.426
'0:18.125',1743.598
'0:18.129',1722.352
'0:18.133',1747.973
'0:18.137',1729.680
'0:18.141',1723.801
'0:18.145',1712.098
'0:18.148',1707.696
'0:18.152',1709.145
'0:18.156',1721.614
'0:18.160',1723.090
'0:18.164',1682.047
'0:18.168',1697.442
'0:18.172',1657.876
'0:18.176',1680.598
'0:18.180',1619.786
'0:18.184',1643.219
'0:18.188',1620.524
'0:18.191',1592.661
'0:18.195',1549.458
'0:18.199',1489.384
'0:18.203',1448.341
'0:18.207',1413.915
'0:18.211',1416.841
'0:18.215',1342.849
'0:18.219',1314.275
'0:18.223',1299.646
'0:18.227',1259.341
'0:18.230',1227.103
'0:18.234',1161.916
'0:18.238',1125.275
'0:18.242',1144.334
'0:18.246',1140.670
'0:18.250',1078.381
'0:18.254',1123.088
'0:18.258',1104.029
'0:18.262',1084.971
'0:18.266',1099.627
'0:18.270',1116.470
'0:18.273',1158.963
'0:18.277',1184.611
'0:18.281',1213.185
'0:18.285',1229.318
'0:18.289',1250.537
'0:18.293',1268.857
'0:18.297',1309.900
'0:18.301',1364.095
'0:18.305',1392.669
'0:18.309',1427.095
'0:18.313',1462.259
'0:18.316',1482.794
'0:18.320',1484.981
'0:18.324',1550.196
'0:18.328',1547.243
'0:18.332',1533.325
'0:18.336',1571.442
'0:18.340',1542.130
'0:18.344',1553.833
'0:18.348',1556.786
'0:18.352',1563.376
'0:18.355',1516.481
'0:18.359',1504.751
'0:18.363',1533.325
'0:18.367',1486.458
'0:18.371',1455.669
'0:18.375',1424.907
'0:18.379',1421.982
'0:18.383',1406.587
'0:18.387',1339.923
'0:18.391',1345.064
'0:18.395',1265.931
'0:18.398',1260.080
'0:18.402',1236.619
'0:18.406',1203.670
'0:18.410',1159.701
'0:18.414',1115.021
'0:18.418',1112.095
'0:18.422',1120.873
'0:18.426',1079.857
'0:18.430',1087.185
'0:18.434',1101.842
'0:18.438',1123.799
'0:18.441',1142.119
'0:18.445',1184.611
'0:18.449',1235.908
'0:18.453',1266.669
'0:18.457',1261.529
'0:18.461',1328.193
'0:18.465',1353.103
'0:18.469',1367.759
'0:18.473',1396.333
'0:18.477',1432.974
'0:18.480',1488.646
'0:18.484',1530.399
'0:18.488',1544.317
'0:18.492',1586.809
'0:18.496',1578.743
'0:18.500',1604.391
'0:18.504',1632.966
'0:18.508',1649.809
'0:18.512',1603.653
'0:18.516',1632.966
'0:18.520',1598.540
'0:18.523',1597.063
'0:18.527',1567.040
'0:18.531',1522.333
'0:18.535',1526.735
'0:18.539',1474.728
'0:18.543',1442.489
'0:18.547',1420.505
'0:18.551',1378.013
'0:18.555',1381.677
'0:18.559',1357.505
'0:18.563',1321.603
'0:18.566',1292.318
'0:18.570',1241.021
'0:18.574',1279.111
'0:18.578',1238.095
'0:18.582',1230.029
'0:18.586',1278.400
'0:18.590',1269.595
'0:18.594',1257.154
'0:18.598',1330.408
'0:18.602',1306.947
'0:18.605',1342.138
'0:18.609',1400.736
'0:18.613',1454.958
'0:18.617',1462.259
'0:18.621',1517.220
'0:18.625',1529.661
'0:18.629',1588.286
'0:18.633',1619.786
'0:18.637',1635.891
'0:18.641',1674.719
'0:18.645',1722.352
'0:18.648',1775.836
'0:18.652',1788.278
'0:18.656',1805.121
'0:18.660',1854.203
'0:18.664',1872.524
'0:18.668',1850.539
'0:18.672',1884.254
'0:18.676',1861.532
'0:18.680',1865.934
'0:18.684',1863.008
'0:18.688',1854.942
'0:18.691',1863.746
'0:18.695',1824.918
'0:18.699',1831.508
'0:18.703',1774.360
'0:18.707',1737.719
'0:18.711',1728.942
'0:18.715',1730.391
'0:18.719',1652.024
'0:18.723',1663.727
'0:18.727',1602.204
'0:18.730',1556.786
'0:18.734',1575.817
'0:18.738',1535.540
'0:18.742',1495.235
'0:18.746',1438.087
'0:18.750',1435.161
'0:18.754',1433.712
'0:18.758',1372.900
'0:18.762',1374.349
'0:18.766',1334.810
'0:18.770',1315.751
'0:18.773',1337.736
'0:18.777',1319.415
'0:18.781',1283.513
'0:18.785',1254.201
'0:18.789',1265.931
'0:18.793',1263.744
'0:18.797',1259.341
'0:18.801',1224.177
'0:18.805',1221.990
'0:18.809',1223.439
'0:18.813',1183.873
'0:18.816',1210.259
'0:18.820',1162.627
'0:18.824',1181.685
'0:18.828',1152.373
'0:18.832',1186.826
'0:18.836',1165.580
'0:18.840',1182.423
'0:18.844',1163.365
'0:18.848',1155.299
'0:18.852',1149.447
'0:18.855',1175.095
'0:18.859',1183.873
'0:18.863',1194.865
'0:18.867',1208.072
'0:18.871',1213.185
'0:18.875',1213.923
'0:18.879',1205.857
'0:18.883',1250.537
'0:18.887',1260.080
'0:18.891',1265.931
'0:18.895',1276.185
'0:18.898',1281.326
'0:18.902',1291.580
'0:18.906',1294.505
'0:18.910',1344.325
'0:18.914',1375.825
'0:18.918',1401.474
'0:18.922',1375.825
'0:18.926',1399.259
'0:18.930',1429.310
'0:18.934',1442.489
'0:18.938',1457.146
'0:18.941',1478.392
'0:18.945',1528.212
'0:18.949',1517.220
'0:18.953',1512.079
'0:18.957',1546.532
'0:18.961',1554.571
'0:18.965',1517.958
'0:18.969',1522.333
'0:18.973',1514.294
'0:18.977',1450.556
'0:18.980',1465.923
'0:18.984',1398.548
'0:18.988',1360.431
'0:18.992',1359.720
'0:18.996',1338.474
'0:19.000',1292.318
'0:19.004',1286.439
'0:19.008',1279.849
'0:19.012',1246.900
'0:19.016',1238.834
'0:19.020',1265.193
'0:19.023',1269.595
'0:19.027',1287.177
'0:19.031',1273.259
'0:19.035',1291.580
'0:19.039',1316.490
'0:19.043',1323.818
'0:19.047',1347.990
'0:19.051',1349.439
'0:19.055',1389.005
'0:19.059',1428.571
'0:19.063',1392.669
'0:19.066',1432.974
'0:19.070',1466.661
'0:19.074',1432.235
'0:19.078',1466.661
'0:19.082',1471.802
'0:19.086',1501.087
'0:19.090',1491.571
'0:19.094',1473.989
'0:19.098',1453.482
'0:19.102',1461.548
'0:19.105',1459.333
'0:19.109',1471.064
'0:19.113',1474.728
'0:19.117',1421.982
'0:19.121',1441.751
'0:19.125',1458.595
'0:19.129',1404.400
'0:19.133',1433.712
'0:19.137',1408.064
'0:19.141',1409.513
'0:19.145',1398.548
'0:19.148',1387.556
'0:19.152',1369.974
'0:19.156',1351.654
'0:19.160',1380.228
'0:19.164',1334.072
'0:19.168',1376.564
'0:19.172',1322.341
'0:19.176',1355.318
'0:19.180',1319.415
'0:19.184',1298.908
'0:19.188',1323.818
'0:19.191',1276.923
'0:19.195',1314.275
'0:19.199',1292.318
'0:19.203',1300.357
'0:19.207',1281.326
'0:19.211',1246.162
'0:19.215',1282.064
'0:19.219',1266.669
'0:19.223',1235.908
'0:19.227',1260.080
'0:19.230',1284.251
'0:19.234',1269.595
'0:19.238',1282.064
'0:19.242',1278.400
'0:19.246',1278.400
'0:19.250',1256.416
'0:19.254',1233.693
'0:19.258',1235.908
'0:19.262',1254.939
'0:19.266',1213.923
'0:19.270',1224.177
'0:19.273',1253.490
'0:19.277',1213.923
'0:19.281',1253.490
'0:19.285',1249.826
'0:19.289',1240.283
'0:19.293',1257.865
'0:19.297',1271.783
'0:19.301',1255.677
'0:19.305',1304.021
'0:19.309',1284.990
'0:19.313',1326.005
'0:19.316',1307.685
'0:19.320',1339.923
'0:19.324',1379.489
'0:19.328',1356.767
'0:19.332',1369.974
'0:19.336',1402.185
'0:19.340',1438.087
'0:19.344',1457.884
'0:19.348',1445.415
'0:19.352',1472.540
'0:19.355',1495.974
'0:19.359',1499.638
'0:19.363',1495.235
'0:19.367',1493.786
'0:19.371',1487.169
'0:19.375',1512.817
'0:19.379',1510.630
'0:19.383',1459.333
'0:19.387',1471.064
'0:19.391',1474.728
'0:19.395',1490.122
'0:19.398',1452.743
'0:19.402',1429.310
'0:19.406',1423.431
'0:19.410',1444.677
'0:19.414',1439.564
'0:19.418',1443.966
'0:19.422',1415.392
'0:19.426',1419.056
'0:19.430',1443.966
'0:19.434',1452.743
'0:19.438',1452.005
'0:19.441',1419.056
'0:19.445',1424.907
'0:19.449',1452.743
'0:19.453',1427.833
'0:19.457',1432.235
'0:19.461',1433.712
'0:19.465',1434.423
'0:19.469',1443.966
'0:19.473',1485.720
'0:19.477',1476.915
'0:19.480',1474.728
'0:19.484',1460.810
'0:19.488',1442.489
'0:19.492',1484.243
'0:19.496',1484.243
'0:19.500',1481.317
'0:19.504',1464.474
'0:19.508',1424.169
'0:19.512',1469.587
'0:19.516',1444.677
'0:19.520',1416.841
'0:19.523',1401.474
'0:19.527',1390.482
'0:19.531',1399.997
'0:19.535',1415.392
'0:19.539',1346.513
'0:19.543',1354.579
'0:19.547',1350.177
'0:19.551',1302.572
'0:19.555',1283.513
'0:19.559',1213.923
'0:19.563',1224.177
'0:19.566',1208.072
'0:19.570',1190.490
'0:19.574',1162.627
'0:19.578',1140.670
'0:19.582',1142.857
'0:19.586',1158.963
'0:19.590',1148.709
'0:19.594',1140.670
'0:19.598',1147.998
'0:19.602',1192.677
'0:19.605',1210.998
'0:19.609',1230.767
'0:19.613',1238.834
'0:19.617',1295.982
'0:19.621',1334.810
'0:19.625',1331.146
'0:19.629',1372.161
'0:19.633',1419.056
'0:19.637',1479.841
'0:19.641',1515.743
'0:19.645',1566.302
'0:19.648',1576.556
'0:19.652',1609.532
'0:19.656',1646.145
'0:19.660',1659.352
'0:19.664',1717.211
'0:19.668',1715.024
'0:19.672',1720.137
'0:19.676',1688.637
'0:19.680',1653.473
'0:19.684',1654.212
'0:19.688',1608.055
'0:19.691',1596.325
'0:19.695',1519.407
'0:19.699',1477.653
'0:19.703',1425.646
'0:19.707',1394.146
'0:19.711',1346.513
'0:19.715',1298.908
'0:19.719',1268.119
'0:19.723',1177.283
'0:19.727',1128.201
'0:19.730',1131.127
'0:19.734',1071.053
'0:19.738',1022.709
'0:19.742',994.135
'0:19.746',1014.643
'0:19.750',1010.268
'0:19.754',969.963
'0:19.758',1023.447
'0:19.762',1017.596
'0:19.766',1016.119
'0:19.770',1042.478
'0:19.773',1098.888
'0:19.777',1140.670
'0:19.781',1174.357
'0:19.785',1195.603
'0:19.789',1273.259
'0:19.793',1332.595
'0:19.797',1382.415
'0:19.801',1434.423
'0:19.805',1464.474
'0:19.809',1498.899
'0:19.813',1534.063
'0:19.816',1575.079
'0:19.820',1616.860
'0:19.824',1674.719
'0:19.828',1719.426
'0:19.832',1723.801
'0:19.836',1784.614
'0:19.840',1811.711
'0:19.844',1797.793
'0:19.848',1809.524
'0:19.852',1828.582
'0:19.855',1834.434
'0:19.859',1868.860
'0:19.863',1872.524
'0:19.867',1839.575
'0:19.871',1853.492
'0:19.875',1827.844
'0:19.879',1852.016
'0:19.883',1791.204
'0:19.887',1802.934
'0:19.891',1752.375
'0:19.895',1765.555
'0:19.898',1728.942
'0:19.902',1720.137
'0:19.906',1676.196
'0:19.910',1650.548
'0:19.914',1626.376
'0:19.918',1629.302
'0:19.922',1566.302
'0:19.926',1574.368
'0:19.930',1515.743
'0:19.934',1544.317
'0:19.938',1523.810
'0:19.941',1483.505
'0:19.945',1463.735
'0:19.949',1468.138
'0:19.953',1453.482
'0:19.957',1431.497
'0:19.961',1399.997
'0:19.965',1394.146
'0:19.969',1421.243
'0:19.973',1409.513
'0:19.977',1372.900
'0:19.980',1399.997
'0:19.984',1404.400
'0:19.988',1384.603
'0:19.992',1358.982
'0:19.996',1356.767
'0:20.000',1358.982
'0:20.004',1371.423
'0:20.008',1364.095
'0:20.012',1365.572
'0:20.016',1377.302
'0:20.020',1394.884
'0:20.023',1410.989
'0:20.027',1418.318
'0:20.031',1418.318
'0:20.035',1368.497
'0:20.039',1386.079
'0:20.043',1365.572
'0:20.047',1363.357
'0:20.051',1355.318
'0:20.055',1365.572
'0:20.059',1361.907
'0:20.063',1369.236
'0:20.066',1390.482
'0:20.070',1380.228
'0:20.074',1383.892
'0:20.078',1333.333
'0:20.082',1336.997
'0:20.086',1346.513
'0:20.090',1349.439
'0:20.094',1367.021
'0:20.098',1336.997
'0:20.102',1311.349
'0:20.105',1340.661
'0:20.109',1305.497
'0:20.113',1342.849
'0:20.117',1315.751
'0:20.121',1310.611
'0:20.125',1282.775
'0:20.129',1307.685
'0:20.133',1301.833
'0:20.137',1254.939
'0:20.141',1239.572
'0:20.145',1264.482
'0:20.148',1251.275
'0:20.152',1231.505
'0:20.156',1219.037
'0:20.160',1204.408
'0:20.164',1193.416
'0:20.168',1178.759
'0:20.172',1159.701
'0:20.176',1122.349
'0:20.180',1125.275
'0:20.184',1145.783
'0:20.188',1174.357
'0:20.191',1190.490
'0:20.195',1201.455
'0:20.199',1222.701
'0:20.203',1225.654
'0:20.207',1287.177
'0:20.211',1266.669
'0:20.215',1314.275
'0:20.219',1355.318
'0:20.223',1336.997
'0:20.227',1358.982
'0:20.230',1397.810
'0:20.234',1421.982
'0:20.238',1433.712
'0:20.242',1433.712
'0:20.246',1441.751
'0:20.250',1425.646
'0:20.254',1394.884
'0:20.258',1422.720
'0:20.262',1400.736
'0:20.266',1384.603
'0:20.270',1386.079
'0:20.273',1347.251
'0:20.277',1361.907
'0:20.281',1378.013
'0:20.285',1366.310
'0:20.289',1331.146
'0:20.293',1357.505
'0:20.297',1302.572
'0:20.301',1336.997
'0:20.305',1290.103
'0:20.309',1333.333
'0:20.313',1301.833
'0:20.316',1295.982
'0:20.320',1335.521
'0:20.324',1297.431
'0:20.328',1336.259
'0:20.332',1339.185
'0:20.336',1312.826
'0:20.340',1321.603
'0:20.344',1356.767
'0:20.348',1317.939
'0:20.352',1360.431
'0:20.355',1326.005
'0:20.359',1314.275
'0:20.363',1328.931
'0:20.367',1348.728
'0:20.371',1315.751
'0:20.375',1334.810
'0:20.379',1307.685
'0:20.383',1313.564
'0:20.387',1312.087
'0:20.391',1323.818
'0:20.395',1287.915
'0:20.398',1339.923
'0:20.402',1325.267
'0:20.406',1306.236
'0:20.410',1357.505
'0:20.414',1317.228
'0:20.418',1377.302
'0:20.422',1336.997
'0:20.426',1381.677
'0:20.430',1362.646
'0:20.434',1394.884
'0:20.438',1435.900
'0:20.441',1400.736
'0:20.445',1434.423
'0:20.449',1465.923
'0:20.453',1427.833
'0:20.457',1439.564
'0:20.461',1471.802
'0:20.465',1469.587
'0:20.469',1488.646
'0:20.473',1493.048
'0:20.477',1492.310
'0:20.480',1476.204
'0:20.484',1477.653
'0:20.488',1527.474
'0:20.492',1490.833
'0:20.496',1503.302
'0:20.500',1520.145
'0:20.504',1494.497
'0:20.508',1536.989
'0:20.512',1541.392
'0:20.516',1523.810
'0:20.520',1553.122
'0:20.523',1527.474
'0:20.527',1517.220
'0:20.531',1548.720
'0:20.535',1514.294
'0:20.539',1504.751
'0:20.543',1511.368
'0:20.547',1503.302
'0:20.551',1497.423
'0:20.555',1483.505
'0:20.559',1471.064
'0:20.563',1469.587
'0:20.566',1465.923
'0:20.570',1438.087
'0:20.574',1465.212
'0:20.578',1429.310
'0:20.582',1443.228
'0:20.586',1386.079
'0:20.590',1410.251
'0:20.594',1413.177
'0:20.598',1383.892
'0:20.602',1377.302
'0:20.605',1390.482
'0:20.609',1353.103
'0:20.613',1404.400
'0:20.617',1378.013
'0:20.621',1410.989
'0:20.625',1364.833
'0:20.629',1389.005
'0:20.633',1416.841
'0:20.637',1421.243
'0:20.641',1389.005
'0:20.645',1393.407
'0:20.648',1435.900
'0:20.652',1436.638
'0:20.656',1416.130
'0:20.660',1438.825
'0:20.664',1404.400
'0:20.668',1428.571
'0:20.672',1450.556
'0:20.676',1401.474
'0:20.680',1416.841
'0:20.684',1435.161
'0:20.688',1387.556
'0:20.691',1411.728
'0:20.695',1389.743
'0:20.699',1383.892
'0:20.703',1364.095
'0:20.707',1371.423
'0:20.711',1344.325
'0:20.715',1329.669
'0:20.719',1354.579
'0:20.723',1296.693
'0:20.727',1276.923
'0:20.730',1254.201
'0:20.734',1237.357
'0:20.738',1224.916
'0:20.742',1210.259
'0:20.746',1150.924
'0:20.750',1164.103
'0:20.754',1090.111
'0:20.758',1115.021
'0:20.762',1082.045
'0:20.766',1068.127
'0:20.770',1035.178
'0:20.773',1089.373
'0:20.777',1065.201
'0:20.781',1111.357
'0:20.785',1138.455
'0:20.789',1123.088
'0:20.793',1174.357
'0:20.797',1215.373
'0:20.801',1245.423
'0:20.805',1246.900
'0:20.809',1300.357
'0:20.813',1358.243
'0:20.816',1397.810
'0:20.820',1435.900
'0:20.824',1467.399
'0:20.828',1499.638
'0:20.832',1520.145
'0:20.836',1501.825
'0:20.840',1564.825
'0:20.844',1533.325
'0:20.848',1575.817
'0:20.852',1574.368
'0:20.855',1587.548
'0:20.859',1593.399
'0:20.863',1566.302
'0:20.867',1536.251
'0:20.871',1512.079
'0:20.875',1501.087
'0:20.879',1488.646
'0:20.883',1485.720
'0:20.887',1462.259
'0:20.891',1397.810
'0:20.895',1397.810
'0:20.898',1354.579
'0:20.902',1358.243
'0:20.906',1337.736
'0:20.910',1265.931
'0:20.914',1247.611
'0:20.918',1257.865
'0:20.922',1240.283
'0:20.926',1203.670
'0:20.930',1162.627
'0:20.934',1163.365
'0:20.938',1184.611
'0:20.941',1194.127
'0:20.945',1197.791
'0:20.949',1197.791
'0:20.953',1210.259
'0:20.957',1220.513
'0:20.961',1221.990
'0:20.965',1240.283
'0:20.969',1273.998
'0:20.973',1306.947
'0:20.977',1366.310
'0:20.980',1358.982
'0:20.984',1408.064
'0:20.988',1470.325
'0:20.992',1476.915
'0:20.996',1504.040
'0:21.000',1541.392
'0:21.004',1614.645
'0:21.008',1613.196
'0:21.012',1641.770
'0:21.016',1676.934
'0:21.020',1709.145
'0:21.023',1729.680
'0:21.027',1758.965
'0:21.031',1772.172
'0:21.035',1783.137
'0:21.039',1821.254
'0:21.043',1819.778
'0:21.047',1800.008
'0:21.051',1779.500
'0:21.055',1780.950
'0:21.059',1772.172
'0:21.063',1765.555
'0:21.066',1768.508
'0:21.070',1752.375
'0:21.074',1760.442
'0:21.078',1730.391
'0:21.082',1704.770
'0:21.086',1710.622
'0:21.090',1718.688
'0:21.094',1691.563
'0:21.098',1642.481
'0:21.102',1651.286
'0:21.105',1616.860
'0:21.109',1602.942
'0:21.113',1573.630
'0:21.117',1534.802
'0:21.121',1534.063
'0:21.125',1539.204
'0:21.129',1517.958
'0:21.133',1476.204
'0:21.137',1449.817
'0:21.141',1428.571
'0:21.145',1390.482
'0:21.148',1370.685
'0:21.152',1375.087
'0:21.156',1370.685
'0:21.160',1366.310
'0:21.164',1358.243
'0:21.168',1328.931
'0:21.172',1293.029
'0:21.176',1329.669
'0:21.180',1287.177
'0:21.184',1315.751
'0:21.188',1263.005
'0:21.191',1299.646
'0:21.195',1241.759
'0:21.199',1274.736
'0:21.203',1243.236
'0:21.207',1246.900
'0:21.211',1252.013
'0:21.215',1230.029
'0:21.219',1206.595
'0:21.223',1240.283
'0:21.227',1202.193
'0:21.230',1232.244
'0:21.234',1245.423
'0:21.238',1235.169
'0:21.242',1194.127
'0:21.246',1210.259
'0:21.250',1252.751
'0:21.254',1259.341
'0:21.258',1263.744
'0:21.262',1270.333
'0:21.266',1235.908
'0:21.270',1296.693
'0:21.273',1301.833
'0:21.277',1320.154
'0:21.281',1289.365
'0:21.285',1298.169
'0:21.289',1329.669
'0:21.293',1367.021
'0:21.297',1358.982
'0:21.301',1338.474
'0:21.305',1372.900
'0:21.309',1401.474
'0:21.313',1359.720
'0:21.316',1405.138
'0:21.320',1370.685
'0:21.324',1377.302
'0:21.328',1344.325
'0:21.332',1384.603
'0:21.336',1342.138
'0:21.340',1301.095
'0:21.344',1298.169
'0:21.348',1308.423
'0:21.352',1252.751
'0:21.355',1230.029
'0:21.359',1194.127
'0:21.363',1198.529
'0:21.367',1200.744
'0:21.371',1194.865
'0:21.375',1142.857
'0:21.379',1122.349
'0:21.383',1144.334
'0:21.387',1142.119
'0:21.391',1124.537
'0:21.395',1142.119
'0:21.398',1119.424
'0:21.402',1125.275
'0:21.406',1178.759
'0:21.410',1178.759
'0:21.414',1201.455
'0:21.418',1214.662
'0:21.422',1213.185
'0:21.426',1246.162
'0:21.430',1260.818
'0:21.434',1286.439
'0:21.438',1290.103
'0:21.441',1283.513
'0:21.445',1348.728
'0:21.449',1338.474
'0:21.453',1404.400
'0:21.457',1428.571
'0:21.461',1418.318
'0:21.465',1457.146
'0:21.469',1525.286
'0:21.473',1547.981
'0:21.477',1566.302
'0:21.480',1558.235
'0:21.484',1606.606
'0:21.488',1608.794
'0:21.492',1616.860
'0:21.496',1644.696
'0:21.500',1661.540
'0:21.504',1638.106
'0:21.508',1628.563
'0:21.512',1638.817
'0:21.516',1621.973
'0:21.520',1553.833
'0:21.523',1547.981
'0:21.527',1536.251
'0:21.531',1502.563
'0:21.535',1477.653
'0:21.539',1438.087
'0:21.543',1362.646
'0:21.547',1367.021
'0:21.551',1299.646
'0:21.555',1324.556
'0:21.559',1286.439
'0:21.563',1235.908
'0:21.566',1215.373
'0:21.570',1225.654
'0:21.574',1192.677
'0:21.578',1172.170
'0:21.582',1179.498
'0:21.586',1183.162
'0:21.590',1138.455
'0:21.594',1166.291
'0:21.598',1197.080
'0:21.602',1175.834
'0:21.605',1210.998
'0:21.609',1217.587
'0:21.613',1243.947
'0:21.617',1253.490
'0:21.621',1285.728
'0:21.625',1325.267
'0:21.629',1336.259
'0:21.633',1384.603
'0:21.637',1452.005
'0:21.641',1436.638
'0:21.645',1476.915
'0:21.648',1548.720
'0:21.652',1540.653
'0:21.656',1580.220
'0:21.660',1623.450
'0:21.664',1628.563
'0:21.668',1633.704
'0:21.672',1648.360
'0:21.676',1665.204
'0:21.680',1674.719
'0:21.684',1682.786
'0:21.688',1711.360
'0:21.691',1728.942
'0:21.695',1712.809
'0:21.699',1694.516
'0:21.703',1690.114
'0:21.707',1687.899
'0:21.711',1671.055
'0:21.715',1660.063
'0:21.719',1654.212
'0:21.723',1648.360
'0:21.727',1624.899
'0:21.730',1583.145
'0:21.734',1547.981
'0:21.738',1515.743
'0:21.742',1537.727
'0:21.746',1498.899
'0:21.750',1462.259
'0:21.754',1491.571
'0:21.758',1479.841
'0:21.762',1454.958
'0:21.766',1433.712
'0:21.770',1440.302
'0:21.773',1443.228
'0:21.777',1425.646
'0:21.781',1394.146
'0:21.785',1398.548
'0:21.789',1386.818
'0:21.793',1416.841
'0:21.797',1421.982
'0:21.801',1436.638
'0:21.805',1442.489
'0:21.809',1435.900
'0:21.813',1419.794
'0:21.816',1435.900
'0:21.820',1454.220
'0:21.824',1447.630
'0:21.828',1435.900
'0:21.832',1460.071
'0:21.836',1469.587
'0:21.840',1463.735
'0:21.844',1456.407
'0:21.848',1443.228
'0:21.852',1440.302
'0:21.855',1432.235
'0:21.859',1427.833
'0:21.863',1449.079
'0:21.867',1400.736
'0:21.871',1437.376
'0:21.875',1403.661
'0:21.879',1357.505
'0:21.883',1342.849
'0:21.887',1341.400
'0:21.891',1347.251
'0:21.895',1290.841
'0:21.898',1299.646
'0:21.902',1290.103
'0:21.906',1228.580
'0:21.910',1254.939
'0:21.914',1213.923
'0:21.918',1172.170
'0:21.922',1179.498
'0:21.926',1175.834
'0:21.930',1128.939
'0:21.934',1123.799
'0:21.938',1074.006
'0:21.941',1092.299
'0:21.945',1056.424
'0:21.949',1060.060
'0:21.953',1083.521
'0:21.957',1043.955
'0:21.961',1101.842
'0:21.965',1063.724
'0:21.969',1127.463
'0:21.973',1096.701
'0:21.977',1137.006
'0:21.980',1149.447
'0:21.984',1164.103
'0:21.988',1226.365
'0:21.992',1271.072
'0:21.996',1268.857
'0:22.000',1280.587
'0:22.004',1360.431
'0:22.008',1367.021
'0:22.012',1371.423
'0:22.016',1407.325
'0:22.020',1449.079
'0:22.023',1481.317
'0:22.027',1512.817
'0:22.031',1529.661
'0:22.035',1540.653
'0:22.039',1536.989
'0:22.043',1537.727
'0:22.047',1536.251
'0:22.051',1572.153
'0:22.055',1575.079
'0:22.059',1561.161
'0:22.063',1536.251
'0:22.066',1571.442
'0:22.070',1556.048
'0:22.074',1538.466
'0:22.078',1532.614
'0:22.082',1511.368
'0:22.086',1470.325
'0:22.090',1435.161
'0:22.094',1415.392
'0:22.098',1393.407
'0:22.102',1389.743
'0:22.105',1388.267
'0:22.109',1343.587
'0:22.113',1342.138
'0:22.117',1309.900
'0:22.121',1340.661
'0:22.125',1306.947
'0:22.129',1284.990
'0:22.133',1330.408
'0:22.137',1303.310
'0:22.141',1343.587
'0:22.145',1320.892
'0:22.148',1368.497
'0:22.152',1391.931
'0:22.156',1388.267
'0:22.160',1405.849
'0:22.164',1449.817
'0:22.168',1514.294
'0:22.172',1525.997
'0:22.176',1530.399
'0:22.180',1580.958
'0:22.184',1584.622
'0:22.188',1619.786
'0:22.191',1652.735
'0:22.195',1693.040
'0:22.199',1694.516
'0:22.203',1698.180
'0:22.207',1741.383
'0:22.211',1746.524
'0:22.215',1739.934
'0:22.219',1780.211
'0:22.223',1802.196
'0:22.227',1765.555
'0:22.230',1771.434
'0:22.234',1770.696
'0:22.238',1791.942
'0:22.242',1789.754
'0:22.246',1774.360
'0:22.250',1760.442
'0:22.254',1764.844
'0:22.258',1756.778
'0:22.262',1729.680
'0:22.266',1717.211
'0:22.270',1693.778
'0:22.273',1678.383
'0:22.277',1663.016
'0:22.281',1665.204
'0:22.285',1663.016
'0:22.289',1646.145
'0:22.293',1606.606
'0:22.297',1581.696
'0:22.301',1577.294
'0:22.305',1534.063
'0:22.309',1490.833
'0:22.313',1472.540
'0:22.316',1452.743
'0:22.320',1434.423
'0:22.324',1427.833
'0:22.328',1411.728
'0:22.332',1403.661
'0:22.336',1364.833
'0:22.340',1340.661
'0:22.344',1350.915
'0:22.348',1327.482
'0:22.352',1353.103
'0:22.355',1344.325
'0:22.359',1321.603
'0:22.363',1303.310
'0:22.367',1310.611
'0:22.371',1295.244
'0:22.375',1282.775
'0:22.379',1266.669
'0:22.383',1224.916
'0:22.387',1190.490
'0:22.391',1221.990
'0:22.395',1201.455
'0:22.398',1155.299
'0:22.402',1136.267
'0:22.406',1128.939
'0:22.410',1129.677
'0:22.414',1142.857
'0:22.418',1087.924
'0:22.422',1120.873
'0:22.426',1066.678
'0:22.430',1079.857
'0:22.434',1044.693
'0:22.438',1079.119
'0:22.441',1049.807
'0:22.445',1092.299
'0:22.449',1054.947
'0:22.453',1112.095
'0:22.457',1098.178
'0:22.461',1110.619
'0:22.465',1134.080
'0:22.469',1147.998
'0:22.473',1156.775
'0:22.477',1162.627
'0:22.480',1180.947
'0:22.484',1184.611
'0:22.488',1207.334
'0:22.492',1211.709
'0:22.496',1207.334
'0:22.500',1213.185
'0:22.504',1251.275
'0:22.508',1274.736
'0:22.512',1251.275
'0:22.516',1231.505
'0:22.520',1271.072
'0:22.523',1265.193
'0:22.527',1254.939
'0:22.531',1225.654
'0:22.535',1191.201
'0:22.539',1176.545
'0:22.543',1179.498
'0:22.547',1155.299
'0:22.551',1151.662
'0:22.555',1173.619
'0:22.559',1178.759
'0:22.563',1196.341
'0:22.566',1208.072
'0:22.570',1219.775
'0:22.574',1234.431
'0:22.578',1238.834
'0:22.582',1243.947
'0:22.586',1328.193
'0:22.590',1330.408
'0:22.594',1387.556
'0:22.598',1382.415
'0:22.602',1422.720
'0:22.605',1446.892
'0:22.609',1475.466
'0:22.613',1545.794
'0:22.617',1550.196
'0:22.621',1537.727
'0:22.625',1589.735
'0:22.629',1557.497
'0:22.633',1571.442
'0:22.637',1574.368
'0:22.641',1563.376
'0:22.645',1532.614
'0:22.648',1557.497
'0:22.652',1506.966
'0:22.656',1477.653
'0:22.660',1492.310
'0:22.664',1467.399
'0:22.668',1441.751
'0:22.672',1381.677
'0:22.676',1352.392
'0:22.680',1358.243
'0:22.684',1316.490
'0:22.688',1299.646
'0:22.691',1263.744
'0:22.695',1243.947
'0:22.699',1224.916
'0:22.703',1205.119
'0:22.707',1200.005
'0:22.711',1226.365
'0:22.715',1220.513
'0:22.719',1200.005
'0:22.723',1216.111
'0:22.727',1216.111
'0:22.730',1222.701
'0:22.734',1232.955
'0:22.738',1238.834
'0:22.742',1222.701
'0:22.746',1273.998
'0:22.750',1290.103
'0:22.754',1329.669
'0:22.758',1354.579
'0:22.762',1379.489
'0:22.766',1404.400
'0:22.770',1416.841
'0:22.773',1438.825
'0:22.777',1453.482
'0:22.781',1446.153
'0:22.785',1511.368
'0:22.789',1516.481
'0:22.793',1509.153
'0:22.797',1579.481
'0:22.801',1551.645
'0:22.805',1590.473
'0:22.809',1630.040
'0:22.813',1629.302
'0:22.816',1630.040
'0:22.820',1657.876
'0:22.824',1687.188
'0:22.828',1719.426
'0:22.832',1736.270
'0:22.836',1720.876
'0:22.840',1733.344
'0:22.844',1743.598
'0:22.848',1756.040
'0:22.852',1799.270
'0:22.855',1797.793
'0:22.859',1800.008
'0:22.863',1818.328
'0:22.867',1821.254
'0:22.871',1817.590
'0:22.875',1849.090
'0:22.879',1811.000
'0:22.883',1822.703
'0:22.887',1832.957
'0:22.891',1810.262
'0:22.895',1825.629
'0:22.898',1786.801
'0:22.902',1766.293
'0:22.906',1755.301
'0:22.910',1747.262
'0:22.914',1733.344
'0:22.918',1726.016
'0:22.922',1695.227
'0:22.926',1636.630
'0:22.930',1622.712
'0:22.934',1583.145
'0:22.938',1567.778
'0:22.941',1506.228
'0:22.945',1470.325
'0:22.949',1440.302
'0:22.953',1438.087
'0:22.957',1360.431
'0:22.961',1369.974
'0:22.965',1318.677
'0:22.969',1268.119
'0:22.973',1267.408
'0:22.977',1224.916
'0:22.980',1219.037
'0:22.984',1189.752
'0:22.988',1158.252
'0:22.992',1119.424
'0:22.996',1156.037
'0:23.000',1098.888
'0:23.004',1136.267
'0:23.008',1133.342
'0:23.012',1109.170
'0:23.016',1165.580
'0:23.020',1145.045
'0:23.023',1148.709
'0:23.027',1178.021
'0:23.031',1237.357
'0:23.035',1241.021
'0:23.039',1256.416
'0:23.043',1247.611
'0:23.047',1263.744
'0:23.051',1331.857
'0:23.055',1321.603
'0:23.059',1365.572
'0:23.063',1336.259
'0:23.066',1396.333
'0:23.070',1394.146
'0:23.074',1377.302
'0:23.078',1432.974
'0:23.082',1413.915
'0:23.086',1402.185
'0:23.090',1403.661
'0:23.094',1421.243
'0:23.098',1424.907
'0:23.102',1416.841
'0:23.105',1377.302
'0:23.109',1382.415
'0:23.113',1370.685
'0:23.117',1304.759
'0:23.121',1258.603
'0:23.125',1213.923
'0:23.129',1197.791
'0:23.133',1184.611
'0:23.137',1126.752
'0:23.141',1093.037
'0:23.145',1054.209
'0:23.148',1049.807
'0:23.152',1026.373
'0:23.156',1004.389
'0:23.160',971.440
'0:23.164',963.373
'0:23.168',975.104
'0:23.172',984.619
'0:23.176',1047.619
'0:23.180',1087.924
'0:23.184',1087.185
'0:23.188',1123.088
'0:23.191',1175.834
'0:23.195',1225.654
'0:23.199',1268.119
'0:23.203',1326.744
'0:23.207',1359.720
'0:23.211',1431.497
'0:23.215',1435.900
'0:23.219',1481.317
'0:23.223',1525.286
'0:23.227',1562.638
'0:23.230',1569.966
'0:23.234',1567.040
'0:23.238',1573.630
'0:23.242',1583.884
'0:23.246',1560.450
'0:23.250',1580.958
'0:23.254',1592.661
'0:23.258',1575.079
'0:23.262',1541.392
'0:23.266',1534.802
'0:23.270',1483.505
'0:23.273',1452.005
'0:23.277',1421.243
'0:23.281',1430.759
'0:23.285',1366.310
'0:23.289',1394.884
'0:23.293',1346.513
'0:23.297',1312.826
'0:23.301',1293.029
'0:23.305',1292.318
'0:23.309',1288.654
'0:23.313',1268.119
'0:23.316',1265.931
'0:23.320',1273.998
'0:23.324',1287.177
'0:23.328',1321.603
'0:23.332',1356.767
'0:23.336',1337.736
'0:23.340',1389.005
'0:23.344',1361.169
'0:23.348',1411.728
'0:23.352',1441.013
'0:23.355',1485.720
'0:23.359',1514.294
'0:23.363',1511.368
'0:23.367',1545.056
'0:23.371',1572.891
'0:23.375',1580.220
'0:23.379',1640.294
'0:23.383',1621.235
'0:23.387',1684.262
'0:23.391',1706.958
'0:23.395',1697.442
'0:23.398',1693.778
'0:23.402',1708.434
'0:23.406',1721.614
'0:23.410',1737.719
'0:23.414',1740.672
'0:23.418',1749.450
'0:23.422',1749.450
'0:23.426',1753.852
'0:23.430',1748.711
'0:23.434',1745.786
'0:23.438',1735.532
'0:23.441',1723.801
