'Elapsed time','wrist_ppg'
'hh:mm:ss.mmm','mV'
'0:00.000',1411.355
'0:00.004',1403.096
'0:00.008',1395.715
'0:00.012',1389.979
'0:00.016',1386.170
'0:00.020',1384.156
'0:00.023',1383.487
'0:00.027',1383.623
'0:00.031',1384.149
'0:00.035',1384.787
'0:00.039',1385.274
'0:00.043',1385.382
'0:00.047',1385.062
'0:00.051',1384.428
'0:00.055',1383.598
'0:00.059',1382.668
'0:00.063',1381.790
'0:00.066',1381.204
'0:00.070',1381.183
'0:00.074',1381.898
'0:00.078',1383.278
'0:00.082',1385.076
'0:00.086',1386.947
'0:00.090',1388.571
'0:00.094',1389.679
'0:00.098',1390.139
'0:00.102',1390.038
'0:00.105',1389.589
'0:00.109',1388.923
'0:00.113',1388.003
'0:00.117',1386.766
'0:00.121',1385.362
'0:00.125',1384.124
'0:00.129',1383.319
'0:00.133',1382.999
'0:00.137',1383.069
'0:00.141',1383.354
'0:00.145',1383.650
'0:00.148',1383.853
'0:00.152',1383.992
'0:00.156',1384.128
'0:00.160',1384.239
'0:00.164',1384.295
'0:00.168',1384.285
'0:00.172',1384.250
'0:00.176',1384.327
'0:00.180',1384.665
'0:00.184',1385.355
'0:00.188',1386.358
'0:00.191',1387.574
'0:00.195',1388.850
'0:00.199',1390.038
'0:00.203',1391.024
'0:00.207',1391.693
'0:00.211',1391.882
'0:00.215',1391.547
'0:00.219',1390.892
'0:00.223',1390.205
'0:00.227',1389.609
'0:00.230',1388.982
'0:00.234',1388.121
'0:00.238',1386.940
'0:00.242',1385.452
'0:00.246',1383.689
'0:00.250',1381.713
'0:00.254',1379.716
'0:00.258',1377.991
'0:00.262',1376.782
'0:00.266',1376.169
'0:00.270',1376.040
'0:00.273',1376.231
'0:00.277',1376.629
'0:00.281',1377.103
'0:00.285',1377.441
'0:00.289',1377.507
'0:00.293',1377.378
'0:00.297',1377.280
'0:00.301',1377.371
'0:00.305',1377.608
'0:00.309',1377.887
'0:00.313',1378.225
'0:00.316',1378.719
'0:00.320',1379.361
'0:00.324',1379.984
'0:00.328',1380.417
'0:00.332',1380.598
'0:00.336',1380.500
'0:00.340',1380.117
'0:00.344',1379.542
'0:00.348',1378.915
'0:00.352',1378.357
'0:00.355',1377.977
'0:00.359',1377.855
'0:00.363',1377.925
'0:00.367',1377.991
'0:00.371',1377.915
'0:00.375',1377.691
'0:00.379',1377.395
'0:00.383',1377.054
'0:00.387',1376.688
'0:00.391',1376.371
'0:00.395',1376.207
'0:00.398',1376.263
'0:00.402',1376.569
'0:00.406',1377.082
'0:00.410',1377.705
'0:00.414',1378.395
'0:00.418',1379.190
'0:00.422',1380.152
'0:00.426',1381.263
'0:00.430',1382.389
'0:00.434',1383.420
'0:00.438',1384.344
'0:00.441',1385.138
'0:00.445',1385.700
'0:00.449',1385.874
'0:00.453',1385.557
'0:00.457',1384.818
'0:00.461',1383.880
'0:00.465',1382.929
'0:00.469',1381.974
'0:00.473',1380.971
'0:00.477',1379.936
'0:00.480',1378.946
'0:00.484',1378.099
'0:00.488',1377.601
'0:00.492',1377.705
'0:00.496',1378.542
'0:00.500',1380.012
'0:00.504',1381.776
'0:00.508',1383.361
'0:00.512',1384.354
'0:00.516',1384.584
'0:00.520',1384.107
'0:00.523',1383.142
'0:00.527',1382.044
'0:00.531',1381.176
'0:00.535',1380.748
'0:00.539',1380.671
'0:00.543',1380.615
'0:00.547',1380.166
'0:00.551',1379.030
'0:00.555',1377.151
'0:00.559',1374.761
'0:00.563',1372.318
'0:00.566',1370.314
'0:00.570',1369.091
'0:00.574',1368.708
'0:00.578',1368.959
'0:00.582',1369.492
'0:00.586',1369.976
'0:00.590',1370.231
'0:00.594',1370.262
'0:00.598',1370.109
'0:00.602',1369.774
'0:00.605',1369.251
'0:00.609',1368.628
'0:00.613',1368.073
'0:00.617',1367.645
'0:00.621',1367.230
'0:00.625',1366.697
'0:00.629',1365.972
'0:00.633',1364.975
'0:00.637',1363.676
'0:00.641',1362.247
'0:00.645',1360.982
'0:00.648',1360.090
'0:00.652',1359.574
'0:00.656',1359.330
'0:00.660',1359.240
'0:00.664',1359.184
'0:00.668',1359.079
'0:00.672',1358.971
'0:00.676',1358.971
'0:00.680',1359.107
'0:00.684',1359.389
'0:00.688',1359.877
'0:00.691',1360.595
'0:00.695',1361.466
'0:00.699',1362.411
'0:00.703',1363.439
'0:00.707',1364.575
'0:00.711',1365.805
'0:00.715',1367.056
'0:00.719',1368.185
'0:00.723',1369.101
'0:00.727',1369.833
'0:00.730',1370.457
'0:00.734',1371.011
'0:00.738',1371.419
'0:00.742',1371.562
'0:00.746',1371.325
'0:00.750',1370.677
'0:00.754',1369.722
'0:00.758',1368.673
'0:00.762',1367.749
'0:00.766',1367.150
'0:00.770',1367.052
'0:00.773',1367.547
'0:00.777',1368.628
'0:00.781',1370.210
'0:00.785',1372.067
'0:00.789',1373.907
'0:00.793',1375.548
'0:00.797',1376.953
'0:00.801',1378.036
'0:00.805',1378.563
'0:00.809',1378.273
'0:00.813',1377.120
'0:00.816',1375.350
'0:00.820',1373.388
'0:00.824',1371.624
'0:00.828',1370.234
'0:00.832',1369.237
'0:00.836',1368.673
'0:00.840',1368.621
'0:00.844',1369.025
'0:00.848',1369.614
'0:00.852',1370.028
'0:00.855',1370.077
'0:00.859',1369.826
'0:00.863',1369.446
'0:00.867',1369.098
'0:00.871',1368.959
'0:00.875',1369.164
'0:00.879',1369.687
'0:00.883',1370.321
'0:00.887',1370.886
'0:00.891',1371.346
'0:00.895',1371.739
'0:00.898',1371.987
'0:00.902',1371.942
'0:00.906',1371.537
'0:00.910',1370.788
'0:00.914',1369.781
'0:00.918',1368.767
'0:00.922',1368.084
'0:00.926',1367.924
'0:00.930',1368.178
'0:00.934',1368.561
'0:00.938',1368.837
'0:00.941',1368.938
'0:00.945',1368.854
'0:00.949',1368.596
'0:00.953',1368.216
'0:00.957',1367.732
'0:00.961',1367.126
'0:00.965',1366.439
'0:00.969',1365.819
'0:00.973',1365.348
'0:00.977',1365.042
'0:00.980',1364.937
'0:00.984',1365.056
'0:00.988',1365.265
'0:00.992',1365.310
'0:00.996',1365.070
'0:01.000',1364.700
'0:01.004',1364.515
'0:01.008',1364.791
'0:01.012',1365.655
'0:01.016',1367.045
'0:01.020',1368.680
'0:01.023',1370.150
'0:01.027',1371.151
'0:01.031',1371.642
'0:01.035',1371.827
'0:01.039',1371.924
'0:01.043',1371.962
'0:01.047',1371.820
'0:01.051',1371.405
'0:01.055',1370.684
'0:01.059',1369.642
'0:01.063',1368.373
'0:01.066',1367.185
'0:01.070',1366.491
'0:01.074',1366.565
'0:01.078',1367.390
'0:01.082',1368.729
'0:01.086',1370.297
'0:01.090',1371.921
'0:01.094',1373.517
'0:01.098',1374.911
'0:01.102',1375.803
'0:01.105',1375.946
'0:01.109',1375.374
'0:01.113',1374.409
'0:01.117',1373.506
'0:01.121',1372.997
'0:01.125',1373.022
'0:01.129',1373.607
'0:01.133',1374.715
'0:01.137',1376.252
'0:01.141',1378.019
'0:01.145',1379.678
'0:01.148',1380.873
'0:01.152',1381.445
'0:01.156',1381.497
'0:01.160',1381.302
'0:01.164',1381.079
'0:01.168',1380.831
'0:01.172',1380.396
'0:01.176',1379.608
'0:01.180',1378.402
'0:01.184',1376.838
'0:01.188',1375.088
'0:01.191',1373.433
'0:01.195',1372.151
'0:01.199',1371.381
'0:01.203',1371.022
'0:01.207',1370.847
'0:01.211',1370.628
'0:01.215',1370.300
'0:01.219',1369.976
'0:01.223',1369.833
'0:01.227',1370.004
'0:01.230',1370.537
'0:01.234',1371.377
'0:01.238',1372.342
'0:01.242',1373.255
'0:01.246',1374.008
'0:01.250',1374.559
'0:01.254',1374.876
'0:01.258',1374.900
'0:01.262',1374.587
'0:01.266',1373.928
'0:01.270',1372.949
'0:01.273',1371.729
'0:01.277',1370.509
'0:01.281',1369.628
'0:01.285',1369.335
'0:01.289',1369.683
'0:01.293',1370.579
'0:01.297',1371.886
'0:01.301',1373.538
'0:01.305',1375.486
'0:01.309',1377.583
'0:01.313',1379.566
'0:01.316',1381.169
'0:01.320',1382.225
'0:01.324',1382.696
'0:01.328',1382.650
'0:01.332',1382.250
'0:01.336',1381.675
'0:01.340',1381.033
'0:01.344',1380.281
'0:01.348',1379.291
'0:01.352',1377.998
'0:01.355',1376.524
'0:01.359',1375.172
'0:01.363',1374.255
'0:01.367',1374.019
'0:01.371',1374.597
'0:01.375',1375.994
'0:01.379',1378.099
'0:01.383',1380.664
'0:01.387',1383.354
'0:01.391',1385.916
'0:01.395',1388.257
'0:01.398',1390.383
'0:01.402',1392.282
'0:01.406',1393.941
'0:01.410',1395.352
'0:01.414',1396.475
'0:01.418',1397.269
'0:01.422',1397.687
'0:01.426',1397.698
'0:01.430',1397.391
'0:01.434',1396.973
'0:01.438',1396.635
'0:01.441',1396.412
'0:01.445',1396.175
'0:01.449',1395.736
'0:01.453',1394.941
'0:01.457',1393.763
'0:01.461',1392.254
'0:01.465',1390.512
'0:01.469',1388.724
'0:01.473',1387.215
'0:01.477',1386.327
'0:01.480',1386.281
'0:01.484',1387.163
'0:01.488',1388.954
'0:01.492',1391.519
'0:01.496',1394.565
'0:01.500',1397.638
'0:01.504',1400.214
'0:01.508',1401.855
'0:01.512',1402.406
'0:01.516',1402.001
'0:01.520',1400.970
'0:01.523',1399.681
'0:01.527',1398.517
'0:01.531',1397.809
'0:01.535',1397.680
'0:01.539',1398.011
'0:01.543',1398.551
'0:01.547',1399.036
'0:01.551',1399.276
'0:01.555',1399.214
'0:01.559',1398.882
'0:01.563',1398.321
'0:01.566',1397.572
'0:01.570',1396.666
'0:01.574',1395.593
'0:01.578',1394.418
'0:01.582',1393.296
'0:01.586',1392.300
'0:01.590',1391.432
'0:01.594',1390.770
'0:01.598',1390.442
'0:01.602',1390.481
'0:01.605',1390.798
'0:01.609',1391.293
'0:01.613',1391.906
'0:01.617',1392.572
'0:01.621',1393.206
'0:01.625',1393.728
'0:01.629',1394.105
'0:01.633',1394.283
'0:01.637',1394.213
'0:01.641',1393.878
'0:01.645',1393.300
'0:01.648',1392.523
'0:01.652',1391.603
'0:01.656',1390.571
'0:01.660',1389.477
'0:01.664',1388.435
'0:01.668',1387.606
'0:01.672',1387.066
'0:01.676',1386.759
'0:01.680',1386.567
'0:01.684',1386.390
'0:01.688',1386.194
'0:01.691',1386.034
'0:01.695',1386.055
'0:01.699',1386.421
'0:01.703',1387.181
'0:01.707',1388.254
'0:01.711',1389.487
'0:01.715',1390.732
'0:01.719',1391.812
'0:01.723',1392.512
'0:01.727',1392.669
'0:01.730',1392.251
'0:01.734',1391.366
'0:01.738',1390.191
'0:01.742',1388.892
'0:01.746',1387.595
'0:01.750',1386.403
'0:01.754',1385.368
'0:01.758',1384.490
'0:01.762',1383.790
'0:01.766',1383.344
'0:01.770',1383.208
'0:01.773',1383.340
'0:01.777',1383.647
'0:01.781',1384.027
'0:01.785',1384.407
'0:01.789',1384.755
'0:01.793',1385.027
'0:01.797',1385.177
'0:01.801',1385.166
'0:01.805',1384.985
'0:01.809',1384.623
'0:01.813',1384.100
'0:01.816',1383.532
'0:01.820',1383.110
'0:01.824',1382.971
'0:01.828',1383.069
'0:01.832',1383.288
'0:01.836',1383.574
'0:01.840',1383.891
'0:01.844',1384.159
'0:01.848',1384.358
'0:01.852',1384.570
'0:01.855',1384.877
'0:01.859',1385.247
'0:01.863',1385.567
'0:01.867',1385.790
'0:01.871',1385.940
'0:01.875',1386.041
'0:01.879',1386.142
'0:01.883',1386.344
'0:01.887',1386.696
'0:01.891',1387.174
'0:01.895',1387.731
'0:01.898',1388.264
'0:01.902',1388.627
'0:01.906',1388.735
'0:01.910',1388.550
'0:01.914',1387.989
'0:01.918',1386.996
'0:01.922',1385.689
'0:01.926',1384.368
'0:01.930',1383.389
'0:01.934',1382.964
'0:01.938',1383.089
'0:01.941',1383.542
'0:01.945',1384.030
'0:01.949',1384.361
'0:01.953',1384.532
'0:01.957',1384.598
'0:01.961',1384.605
'0:01.965',1384.668
'0:01.969',1385.030
'0:01.973',1385.905
'0:01.977',1387.299
'0:01.980',1388.951
'0:01.984',1390.481
'0:01.988',1391.617
'0:01.992',1392.272
'0:01.996',1392.481
'0:02.000',1392.342
'0:02.004',1391.899
'0:02.008',1391.122
'0:02.012',1390.007
'0:02.016',1388.752
'0:02.020',1387.693
'0:02.023',1387.031
'0:02.027',1386.710
'0:02.031',1386.567
'0:02.035',1386.477
'0:02.039',1386.330
'0:02.043',1386.104
'0:02.047',1385.902
'0:02.051',1385.842
'0:02.055',1385.930
'0:02.059',1386.083
'0:02.063',1386.173
'0:02.066',1386.083
'0:02.070',1385.780
'0:02.074',1385.344
'0:02.078',1384.902
'0:02.082',1384.501
'0:02.086',1384.159
'0:02.090',1383.818
'0:02.094',1383.375
'0:02.098',1382.762
'0:02.102',1382.030
'0:02.105',1381.302
'0:02.109',1380.667
'0:02.113',1380.173
'0:02.117',1379.880
'0:02.121',1379.894
'0:02.125',1380.249
'0:02.129',1380.751
'0:02.133',1380.974
'0:02.137',1380.444
'0:02.141',1378.936
'0:02.145',1376.608
'0:02.148',1373.914
'0:02.152',1371.360
'0:02.156',1369.283
'0:02.160',1367.812
'0:02.164',1366.882
'0:02.168',1366.303
'0:02.172',1365.808
'0:02.176',1365.171
'0:02.180',1364.324
'0:02.184',1363.404
'0:02.188',1362.648
'0:02.191',1362.289
'0:02.195',1362.477
'0:02.199',1363.306
'0:02.203',1364.812
'0:02.207',1366.937
'0:02.211',1369.558
'0:02.215',1372.422
'0:02.219',1375.168
'0:02.223',1377.364
'0:02.227',1378.650
'0:02.230',1378.810
'0:02.234',1377.876
'0:02.238',1376.068
'0:02.242',1373.677
'0:02.246',1370.990
'0:02.250',1368.283
'0:02.254',1365.808
'0:02.258',1363.808
'0:02.262',1362.449
'0:02.266',1361.811
'0:02.270',1361.923
'0:02.273',1362.728
'0:02.277',1364.069
'0:02.281',1365.683
'0:02.285',1367.230
'0:02.289',1368.405
'0:02.293',1369.035
'0:02.297',1369.182
'0:02.301',1369.035
'0:02.305',1368.687
'0:02.309',1368.098
'0:02.313',1367.307
'0:02.316',1366.544
'0:02.320',1366.073
'0:02.324',1366.010
'0:02.328',1366.240
'0:02.332',1366.575
'0:02.336',1366.878
'0:02.340',1367.073
'0:02.344',1367.143
'0:02.348',1367.115
'0:02.352',1367.045
'0:02.355',1366.997
'0:02.359',1366.955
'0:02.363',1366.781
'0:02.367',1366.355
'0:02.371',1365.749
'0:02.375',1365.244
'0:02.379',1365.115
'0:02.383',1365.495
'0:02.387',1366.293
'0:02.391',1367.324
'0:02.395',1368.415
'0:02.398',1369.446
'0:02.402',1370.269
'0:02.406',1370.816
'0:02.410',1371.168
'0:02.414',1371.475
'0:02.418',1371.834
'0:02.422',1372.297
'0:02.426',1372.931
'0:02.430',1373.750
'0:02.434',1374.712
'0:02.438',1375.705
'0:02.441',1376.611
'0:02.445',1377.364
'0:02.449',1377.963
'0:02.453',1378.385
'0:02.457',1378.608
'0:02.461',1378.688
'0:02.465',1378.733
'0:02.469',1378.800
'0:02.473',1378.883
'0:02.477',1378.949
'0:02.480',1378.922
'0:02.484',1378.733
'0:02.488',1378.441
'0:02.492',1378.200
'0:02.496',1378.148
'0:02.500',1378.214
'0:02.504',1378.124
'0:02.508',1377.563
'0:02.512',1376.423
'0:02.516',1374.883
'0:02.520',1373.301
'0:02.523',1372.039
'0:02.527',1371.332
'0:02.531',1371.304
'0:02.535',1371.969
'0:02.539',1373.227
'0:02.543',1374.820
'0:02.547',1376.486
'0:02.551',1378.057
'0:02.555',1379.416
'0:02.559',1380.434
'0:02.563',1380.995
'0:02.566',1381.079
'0:02.570',1380.793
'0:02.574',1380.270
'0:02.578',1379.622
'0:02.582',1378.932
'0:02.586',1378.305
'0:02.590',1377.827
'0:02.594',1377.545
'0:02.598',1377.475
'0:02.602',1377.622
'0:02.605',1377.949
'0:02.609',1378.388
'0:02.613',1378.869
'0:02.617',1379.319
'0:02.621',1379.657
'0:02.625',1379.859
'0:02.629',1379.998
'0:02.633',1380.169
'0:02.637',1380.385
'0:02.641',1380.629
'0:02.645',1380.985
'0:02.648',1381.532
'0:02.652',1382.222
'0:02.656',1382.947
'0:02.660',1383.619
'0:02.664',1384.173
'0:02.668',1384.574
'0:02.672',1384.800
'0:02.676',1384.821
'0:02.680',1384.626
'0:02.684',1384.205
'0:02.688',1383.553
'0:02.691',1382.706
'0:02.695',1381.716
'0:02.699',1380.643
'0:02.703',1379.566
'0:02.707',1378.573
'0:02.711',1377.695
'0:02.715',1376.942
'0:02.719',1376.346
'0:02.723',1375.946
'0:02.727',1375.750
'0:02.730',1375.723
'0:02.734',1375.778
'0:02.738',1375.865
'0:02.742',1376.047
'0:02.746',1376.458
'0:02.750',1377.172
'0:02.754',1378.151
'0:02.758',1379.274
'0:02.762',1380.420
'0:02.766',1381.493
'0:02.770',1382.424
'0:02.773',1383.159
'0:02.777',1383.637
'0:02.781',1383.772
'0:02.785',1383.539
'0:02.789',1383.034
'0:02.793',1382.417
'0:02.797',1381.845
'0:02.801',1381.455
'0:02.805',1381.361
'0:02.809',1381.619
'0:02.813',1382.128
'0:02.816',1382.622
'0:02.820',1382.849
'0:02.824',1382.800
'0:02.828',1382.689
'0:02.832',1382.758
'0:02.836',1383.048
'0:02.840',1383.375
'0:02.844',1383.546
'0:02.848',1383.595
'0:02.852',1383.720
'0:02.855',1384.044
'0:02.859',1384.487
'0:02.863',1384.881
'0:02.867',1385.138
'0:02.871',1385.309
'0:02.875',1385.494
'0:02.879',1385.686
'0:02.883',1385.811
'0:02.887',1385.863
'0:02.891',1385.842
'0:02.895',1385.790
'0:02.898',1385.773
'0:02.902',1385.856
'0:02.906',1386.114
'0:02.910',1386.626
'0:02.914',1387.372
'0:02.918',1388.229
'0:02.922',1389.062
'0:02.926',1389.721
'0:02.930',1390.097
'0:02.934',1390.115
'0:02.938',1389.658
'0:02.941',1388.557
'0:02.945',1386.755
'0:02.949',1384.414
'0:02.953',1381.866
'0:02.957',1379.458
'0:02.961',1377.461
'0:02.965',1376.085
'0:02.969',1375.548
'0:02.973',1376.029
'0:02.977',1377.618
'0:02.980',1380.277
'0:02.984',1383.842
'0:02.988',1388.034
'0:02.992',1392.481
'0:02.996',1396.795
'0:03.000',1400.611
'0:03.004',1403.643
'0:03.008',1405.702
'0:03.012',1406.751
'0:03.016',1406.932
'0:03.020',1406.528
'0:03.023',1405.821
'0:03.027',1404.974
'0:03.031',1404.155
'0:03.035',1403.643
'0:03.039',1403.726
'0:03.043',1404.479
'0:03.047',1405.674
'0:03.051',1406.953
'0:03.055',1408.034
'0:03.059',1408.765
'0:03.063',1409.096
'0:03.066',1409.072
'0:03.070',1408.765
'0:03.074',1408.260
'0:03.078',1407.703
'0:03.082',1407.295
'0:03.086',1407.211
'0:03.090',1407.535
'0:03.094',1408.264
'0:03.098',1409.309
'0:03.102',1410.515
'0:03.105',1411.748
'0:03.109',1412.940
'0:03.113',1414.034
'0:03.117',1414.954
'0:03.121',1415.651
'0:03.125',1416.076
'0:03.129',1416.198
'0:03.133',1416.056
'0:03.137',1415.690
'0:03.141',1415.080
'0:03.145',1414.181
'0:03.148',1412.937
'0:03.152',1411.337
'0:03.156',1409.501
'0:03.160',1407.643
'0:03.164',1405.908
'0:03.168',1404.277
'0:03.172',1402.702
'0:03.176',1401.284
'0:03.180',1400.235
'0:03.184',1399.719
'0:03.188',1399.789
'0:03.191',1400.395
'0:03.195',1401.444
'0:03.199',1402.855
'0:03.203',1404.490
'0:03.207',1406.093
'0:03.211',1407.323
'0:03.215',1407.901
'0:03.219',1407.689
'0:03.223',1406.626
'0:03.227',1404.726
'0:03.230',1402.130
'0:03.234',1399.161
'0:03.238',1396.248
'0:03.242',1393.788
'0:03.246',1392.059
'0:03.250',1391.212
'0:03.254',1391.314
'0:03.258',1392.349
'0:03.262',1394.199
'0:03.266',1396.603
'0:03.270',1399.200
'0:03.273',1401.632
'0:03.277',1403.632
'0:03.281',1405.016
'0:03.285',1405.650
'0:03.289',1405.490
'0:03.293',1404.594
'0:03.297',1403.155
'0:03.301',1401.378
'0:03.305',1399.332
'0:03.309',1396.987
'0:03.313',1394.408
'0:03.316',1391.895
'0:03.320',1389.829
'0:03.324',1388.480
'0:03.328',1387.975
'0:03.332',1388.306
'0:03.336',1389.359
'0:03.340',1390.930
'0:03.344',1392.836
'0:03.348',1394.976
'0:03.352',1397.196
'0:03.355',1399.207
'0:03.359',1400.698
'0:03.363',1401.566
'0:03.367',1401.994
'0:03.371',1402.231
'0:03.375',1402.437
'0:03.379',1402.594
'0:03.383',1402.608
'0:03.387',1402.454
'0:03.391',1402.176
'0:03.395',1401.817
'0:03.398',1401.416
'0:03.402',1401.067
'0:03.406',1400.824
'0:03.410',1400.764
'0:03.414',1400.984
'0:03.418',1401.454
'0:03.422',1401.897
'0:03.426',1401.984
'0:03.430',1401.604
'0:03.434',1400.921
'0:03.438',1400.238
'0:03.441',1399.809
'0:03.445',1399.691
'0:03.449',1399.733
'0:03.453',1399.740
'0:03.457',1399.684
'0:03.461',1399.681
'0:03.465',1399.775
'0:03.469',1399.806
'0:03.473',1399.583
'0:03.477',1399.102
'0:03.480',1398.520
'0:03.484',1397.969
'0:03.488',1397.485
'0:03.492',1397.109
'0:03.496',1396.854
'0:03.500',1396.670
'0:03.504',1396.492
'0:03.508',1396.311
'0:03.512',1396.102
'0:03.516',1395.764
'0:03.520',1395.213
'0:03.523',1394.418
'0:03.527',1393.411
'0:03.531',1392.244
'0:03.535',1390.948
'0:03.539',1389.578
'0:03.543',1388.299
'0:03.547',1387.296
'0:03.551',1386.654
'0:03.555',1386.348
'0:03.559',1386.261
'0:03.563',1386.243
'0:03.566',1386.243
'0:03.570',1386.247
'0:03.574',1386.219
'0:03.578',1386.100
'0:03.582',1385.874
'0:03.586',1385.578
'0:03.590',1385.320
'0:03.594',1385.306
'0:03.598',1385.759
'0:03.602',1386.780
'0:03.605',1388.331
'0:03.609',1390.310
'0:03.613',1392.568
'0:03.617',1394.837
'0:03.621',1396.753
'0:03.625',1398.008
'0:03.629',1398.433
'0:03.633',1398.046
'0:03.637',1397.032
'0:03.641',1395.663
'0:03.645',1394.213
'0:03.648',1392.920
'0:03.652',1391.934
'0:03.656',1391.307
'0:03.660',1390.951
'0:03.664',1390.693
'0:03.668',1390.456
'0:03.672',1390.286
'0:03.676',1390.198
'0:03.680',1390.146
'0:03.684',1390.080
'0:03.688',1390.010
'0:03.691',1389.937
'0:03.695',1389.836
'0:03.699',1389.704
'0:03.703',1389.634
'0:03.707',1389.704
'0:03.711',1389.930
'0:03.715',1390.348
'0:03.719',1390.986
'0:03.723',1391.749
'0:03.727',1392.464
'0:03.730',1393.025
'0:03.734',1393.450
'0:03.738',1393.746
'0:03.742',1393.885
'0:03.746',1393.889
'0:03.750',1393.833
'0:03.754',1393.763
'0:03.758',1393.631
'0:03.762',1393.370
'0:03.766',1393.011
'0:03.770',1392.641
'0:03.773',1392.321
'0:03.777',1392.077
'0:03.781',1391.955
'0:03.785',1391.923
'0:03.789',1391.721
'0:03.793',1390.906
'0:03.797',1389.097
'0:03.801',1386.177
'0:03.805',1382.358
'0:03.809',1378.124
'0:03.813',1374.053
'0:03.816',1370.628
'0:03.820',1368.140
'0:03.824',1366.749
'0:03.828',1366.512
'0:03.832',1367.401
'0:03.836',1369.248
'0:03.840',1371.715
'0:03.844',1374.353
'0:03.848',1376.712
'0:03.852',1378.409
'0:03.855',1379.092
'0:03.859',1378.566
'0:03.863',1376.897
'0:03.867',1374.461
'0:03.871',1371.813
'0:03.875',1369.530
'0:03.879',1368.028
'0:03.883',1367.488
'0:03.887',1367.885
'0:03.891',1369.094
'0:03.895',1370.917
'0:03.898',1373.036
'0:03.902',1375.040
'0:03.906',1376.535
'0:03.910',1377.301
'0:03.914',1377.385
'0:03.918',1377.071
'0:03.922',1376.768
'0:03.926',1376.834
'0:03.930',1377.427
'0:03.934',1378.458
'0:03.938',1379.667
'0:03.941',1380.796
'0:03.945',1381.720
'0:03.949',1382.525
'0:03.953',1383.382
'0:03.957',1384.299
'0:03.961',1385.027
'0:03.965',1385.240
'0:03.969',1384.738
'0:03.973',1383.535
'0:03.977',1381.831
'0:03.980',1379.967
'0:03.984',1378.228
'0:03.988',1376.677
'0:03.992',1375.168
'0:03.996',1373.611
'0:04.000',1372.133
'0:04.004',1370.983
'0:04.008',1370.311
'0:04.012',1370.081
'0:04.016',1370.203
'0:04.020',1370.694
'0:04.023',1371.687
'0:04.027',1373.262
'0:04.031',1375.280
'0:04.035',1377.312
'0:04.039',1378.855
'0:04.043',1379.531
'0:04.047',1379.179
'0:04.051',1377.855
'0:04.055',1375.803
'0:04.059',1373.346
'0:04.063',1370.802
'0:04.066',1368.436
'0:04.070',1366.390
'0:04.074',1364.651
'0:04.078',1363.167
'0:04.082',1361.933
'0:04.086',1360.982
'0:04.090',1360.355
'0:04.094',1360.024
'0:04.098',1359.884
'0:04.102',1359.748
'0:04.105',1359.452
'0:04.109',1358.905
'0:04.113',1358.177
'0:04.117',1357.480
'0:04.121',1357.121
'0:04.125',1357.403
'0:04.129',1358.560
'0:04.133',1360.689
'0:04.137',1363.780
'0:04.141',1367.701
'0:04.145',1372.161
'0:04.148',1376.643
'0:04.152',1380.500
'0:04.156',1383.194
'0:04.160',1384.417
'0:04.164',1384.069
'0:04.168',1382.173
'0:04.172',1378.852
'0:04.176',1374.367
'0:04.180',1369.216
'0:04.184',1364.059
'0:04.188',1359.511
'0:04.191',1356.016
'0:04.195',1353.828
'0:04.199',1353.030
'0:04.203',1353.577
'0:04.207',1355.333
'0:04.211',1358.055
'0:04.215',1361.407
'0:04.219',1364.958
'0:04.223',1368.227
'0:04.227',1370.785
'0:04.230',1372.429
'0:04.234',1373.308
'0:04.238',1373.733
'0:04.242',1373.924
'0:04.246',1373.921
'0:04.250',1373.761
'0:04.254',1373.559
'0:04.258',1373.423
'0:04.262',1373.370
'0:04.266',1373.503
'0:04.270',1374.043
'0:04.273',1375.186
'0:04.277',1376.918
'0:04.281',1379.019
'0:04.285',1381.190
'0:04.289',1383.138
'0:04.293',1384.612
'0:04.297',1385.480
'0:04.301',1385.815
'0:04.305',1385.839
'0:04.309',1385.787
'0:04.313',1385.766
'0:04.316',1385.801
'0:04.320',1385.860
'0:04.324',1385.877
'0:04.328',1385.790
'0:04.332',1385.647
'0:04.336',1385.598
'0:04.340',1385.825
'0:04.344',1386.532
'0:04.348',1387.926
'0:04.352',1390.094
'0:04.355',1392.917
'0:04.359',1396.102
'0:04.363',1399.266
'0:04.367',1402.054
'0:04.371',1404.249
'0:04.375',1405.793
'0:04.379',1406.681
'0:04.383',1406.904
'0:04.387',1406.479
'0:04.391',1405.507
'0:04.395',1404.162
'0:04.398',1402.660
'0:04.402',1401.235
'0:04.406',1400.120
'0:04.410',1399.503
'0:04.414',1399.475
'0:04.418',1399.893
'0:04.422',1400.377
'0:04.426',1400.475
'0:04.430',1399.942
'0:04.434',1398.834
'0:04.438',1397.464
'0:04.441',1396.231
'0:04.445',1395.474
'0:04.449',1395.352
'0:04.453',1395.826
'0:04.457',1396.711
'0:04.461',1397.691
'0:04.465',1398.464
'0:04.469',1398.931
'0:04.473',1399.214
'0:04.477',1399.499
'0:04.480',1399.917
'0:04.484',1400.566
'0:04.488',1401.465
'0:04.492',1402.555
'0:04.496',1403.740
'0:04.500',1404.897
'0:04.504',1405.922
'0:04.508',1406.796
'0:04.512',1407.591
'0:04.516',1408.302
'0:04.520',1408.772
'0:04.523',1408.832
'0:04.527',1408.476
'0:04.531',1407.873
'0:04.535',1407.176
'0:04.539',1406.451
'0:04.543',1405.821
'0:04.547',1405.462
'0:04.551',1405.525
'0:04.555',1406.012
'0:04.559',1406.765
'0:04.563',1407.473
'0:04.566',1407.776
'0:04.570',1407.490
'0:04.574',1406.744
'0:04.578',1405.936
'0:04.582',1405.462
'0:04.586',1405.500
'0:04.590',1405.925
'0:04.594',1406.438
'0:04.598',1406.838
'0:04.602',1407.128
'0:04.605',1407.323
'0:04.609',1407.274
'0:04.613',1406.765
'0:04.617',1405.741
'0:04.621',1404.343
'0:04.625',1402.723
'0:04.629',1401.050
'0:04.633',1399.552
'0:04.637',1398.478
'0:04.641',1397.997
'0:04.645',1398.172
'0:04.648',1398.914
'0:04.652',1399.984
'0:04.656',1401.088
'0:04.660',1402.085
'0:04.664',1403.019
'0:04.668',1403.939
'0:04.672',1404.726
'0:04.676',1405.218
'0:04.680',1405.392
'0:04.684',1405.364
'0:04.688',1405.183
'0:04.691',1404.873
'0:04.695',1404.521
'0:04.699',1404.239
'0:04.703',1404.127
'0:04.707',1404.308
'0:04.711',1404.838
'0:04.715',1405.545
'0:04.719',1406.075
'0:04.723',1406.113
'0:04.727',1405.584
'0:04.730',1404.625
'0:04.734',1403.374
'0:04.738',1401.865
'0:04.742',1400.179
'0:04.746',1398.541
'0:04.750',1397.203
'0:04.754',1396.255
'0:04.758',1395.614
'0:04.762',1395.150
'0:04.766',1394.791
'0:04.770',1394.547
'0:04.773',1394.439
'0:04.777',1394.457
'0:04.781',1394.530
'0:04.785',1394.589
'0:04.789',1394.621
'0:04.793',1394.621
'0:04.797',1394.586
'0:04.801',1394.509
'0:04.805',1394.272
'0:04.809',1393.690
'0:04.813',1392.680
'0:04.816',1391.422
'0:04.820',1390.317
'0:04.824',1389.690
'0:04.828',1389.616
'0:04.832',1389.951
'0:04.836',1390.529
'0:04.840',1391.247
'0:04.844',1391.990
'0:04.848',1392.624
'0:04.852',1393.059
'0:04.855',1393.181
'0:04.859',1392.885
'0:04.863',1392.209
'0:04.867',1391.310
'0:04.871',1390.258
'0:04.875',1388.944
'0:04.879',1387.289
'0:04.883',1385.417
'0:04.887',1383.626
'0:04.891',1382.225
'0:04.895',1381.413
'0:04.898',1381.263
'0:04.902',1381.744
'0:04.906',1382.751
'0:04.910',1384.142
'0:04.914',1385.706
'0:04.918',1387.146
'0:04.922',1388.153
'0:04.926',1388.599
'0:04.930',1388.648
'0:04.934',1388.592
'0:04.938',1388.602
'0:04.941',1388.637
'0:04.945',1388.494
'0:04.949',1387.993
'0:04.953',1387.059
'0:04.957',1385.773
'0:04.961',1384.327
'0:04.965',1382.954
'0:04.969',1381.828
'0:04.973',1381.019
'0:04.977',1380.532
'0:04.980',1380.336
'0:04.984',1380.403
'0:04.988',1380.695
'0:04.992',1381.166
'0:04.996',1381.702
'0:05.000',1382.225
'0:05.004',1382.730
'0:05.008',1383.330
'0:05.012',1384.163
'0:05.016',1385.267
'0:05.020',1386.543
'0:05.023',1387.825
'0:05.027',1388.986
'0:05.031',1389.982
'0:05.035',1390.801
'0:05.039',1391.408
'0:05.043',1391.868
'0:05.047',1392.275
'0:05.051',1392.652
'0:05.055',1392.983
'0:05.059',1393.262
'0:05.063',1393.397
'0:05.066',1393.293
'0:05.070',1392.997
'0:05.074',1392.676
'0:05.078',1392.387
'0:05.082',1392.066
'0:05.086',1391.669
'0:05.090',1391.216
'0:05.094',1390.773
'0:05.098',1390.387
'0:05.102',1390.069
'0:05.105',1389.787
'0:05.109',1389.501
'0:05.113',1389.205
'0:05.117',1388.986
'0:05.121',1388.930
'0:05.125',1389.031
'0:05.129',1389.163
'0:05.133',1389.167
'0:05.137',1388.916
'0:05.141',1388.446
'0:05.145',1387.933
'0:05.148',1387.543
'0:05.152',1387.320
'0:05.156',1387.181
'0:05.160',1386.996
'0:05.164',1386.748
'0:05.168',1386.567
'0:05.172',1386.564
'0:05.176',1386.741
'0:05.180',1387.010
'0:05.184',1387.254
'0:05.188',1387.383
'0:05.191',1387.275
'0:05.195',1386.801
'0:05.199',1386.027
'0:05.203',1385.222
'0:05.207',1384.605
'0:05.211',1384.222
'0:05.215',1383.985
'0:05.219',1383.783
'0:05.223',1383.549
'0:05.227',1383.285
'0:05.230',1383.023
'0:05.234',1382.790
'0:05.238',1382.626
'0:05.242',1382.602
'0:05.246',1382.807
'0:05.250',1383.260
'0:05.254',1383.853
'0:05.258',1384.386
'0:05.262',1384.668
'0:05.266',1384.522
'0:05.270',1383.825
'0:05.273',1382.602
'0:05.277',1381.016
'0:05.281',1379.159
'0:05.285',1376.876
'0:05.289',1373.907
'0:05.293',1370.199
'0:05.297',1366.021
'0:05.301',1361.839
'0:05.305',1358.083
'0:05.309',1355.051
'0:05.313',1352.904
'0:05.316',1351.712
'0:05.320',1351.472
'0:05.324',1352.113
'0:05.328',1353.486
'0:05.332',1355.344
'0:05.336',1357.361
'0:05.340',1359.240
'0:05.344',1360.839
'0:05.348',1362.184
'0:05.352',1363.303
'0:05.355',1364.049
'0:05.359',1364.198
'0:05.363',1363.707
'0:05.367',1362.815
'0:05.371',1361.916
'0:05.375',1361.275
'0:05.379',1360.891
'0:05.383',1360.588
'0:05.387',1360.198
'0:05.391',1359.644
'0:05.395',1358.888
'0:05.398',1358.006
'0:05.402',1357.163
'0:05.406',1356.521
'0:05.410',1356.135
'0:05.414',1355.922
'0:05.418',1355.727
'0:05.422',1355.445
'0:05.426',1355.082
'0:05.430',1354.709
'0:05.434',1354.472
'0:05.438',1354.570
'0:05.441',1355.093
'0:05.445',1355.898
'0:05.449',1356.804
'0:05.453',1357.661
'0:05.457',1358.326
'0:05.461',1358.678
'0:05.465',1358.665
'0:05.469',1358.267
'0:05.473',1357.522
'0:05.477',1356.535
'0:05.480',1355.452
'0:05.484',1354.458
'0:05.488',1353.779
'0:05.492',1353.573
'0:05.496',1353.911
'0:05.500',1354.667
'0:05.504',1355.479
'0:05.508',1355.946
'0:05.512',1355.856
'0:05.516',1355.340
'0:05.520',1354.793
'0:05.523',1354.577
'0:05.527',1354.828
'0:05.531',1355.427
'0:05.535',1356.152
'0:05.539',1356.842
'0:05.543',1357.452
'0:05.547',1357.947
'0:05.551',1358.299
'0:05.555',1358.581
'0:05.559',1358.947
'0:05.563',1359.466
'0:05.566',1360.027
'0:05.570',1360.330
'0:05.574',1360.125
'0:05.578',1359.372
'0:05.582',1358.187
'0:05.586',1356.622
'0:05.590',1354.612
'0:05.594',1352.085
'0:05.598',1349.144
'0:05.602',1346.060
'0:05.605',1343.157
'0:05.609',1340.711
'0:05.613',1338.909
'0:05.617',1337.871
'0:05.621',1337.648
'0:05.625',1338.278
'0:05.629',1339.763
'0:05.633',1342.087
'0:05.637',1345.178
'0:05.641',1348.851
'0:05.645',1352.744
'0:05.648',1356.382
'0:05.652',1359.267
'0:05.656',1361.003
'0:05.660',1361.383
'0:05.664',1360.407
'0:05.668',1358.285
'0:05.672',1355.410
'0:05.676',1352.319
'0:05.680',1349.520
'0:05.684',1347.325
'0:05.688',1345.774
'0:05.691',1344.677
'0:05.695',1343.753
'0:05.699',1342.885
'0:05.703',1342.213
'0:05.707',1342.004
'0:05.711',1342.457
'0:05.715',1343.568
'0:05.719',1345.123
'0:05.723',1346.753
'0:05.727',1348.137
'0:05.730',1349.165
'0:05.734',1349.946
'0:05.738',1350.590
'0:05.742',1351.165
'0:05.746',1351.719
'0:05.750',1352.263
'0:05.754',1352.838
'0:05.758',1353.542
'0:05.762',1354.455
'0:05.766',1355.535
'0:05.770',1356.696
'0:05.773',1357.870
'0:05.777',1358.950
'0:05.781',1359.776
'0:05.785',1360.264
'0:05.789',1360.498
'0:05.793',1360.640
'0:05.797',1360.843
'0:05.801',1361.222
'0:05.805',1361.839
'0:05.809',1362.658
'0:05.813',1363.522
'0:05.816',1364.244
'0:05.820',1364.752
'0:05.824',1365.059
'0:05.828',1365.160
'0:05.832',1365.066
'0:05.836',1364.885
'0:05.840',1364.714
'0:05.844',1364.488
'0:05.848',1364.052
'0:05.852',1363.400
'0:05.855',1362.731
'0:05.859',1362.317
'0:05.863',1362.355
'0:05.867',1362.916
'0:05.871',1363.972
'0:05.875',1365.432
'0:05.879',1367.157
'0:05.883',1368.976
'0:05.887',1370.704
'0:05.891',1372.165
'0:05.895',1373.179
'0:05.898',1373.653
'0:05.902',1373.674
'0:05.906',1373.468
'0:05.910',1373.252
'0:05.914',1373.168
'0:05.918',1373.356
'0:05.922',1373.970
'0:05.926',1375.151
'0:05.930',1376.946
'0:05.934',1379.193
'0:05.938',1381.493
'0:05.941',1383.393
'0:05.945',1384.675
'0:05.949',1385.386
'0:05.953',1385.644
'0:05.957',1385.550
'0:05.961',1385.229
'0:05.965',1384.839
'0:05.969',1384.483
'0:05.973',1384.274
'0:05.977',1384.281
'0:05.980',1384.522
'0:05.984',1384.971
'0:05.988',1385.644
'0:05.992',1386.525
'0:05.996',1387.512
'0:06.000',1388.421
'0:06.004',1389.066
'0:06.008',1389.407
'0:06.012',1389.599
'0:06.016',1389.836
'0:06.020',1390.195
'0:06.023',1390.676
'0:06.027',1391.293
'0:06.031',1392.014
'0:06.035',1392.676
'0:06.039',1393.101
'0:06.043',1393.241
'0:06.047',1393.136
'0:06.051',1392.781
'0:06.055',1392.105
'0:06.059',1391.150
'0:06.063',1390.212
'0:06.066',1389.697
'0:06.070',1389.864
'0:06.074',1390.700
'0:06.078',1391.937
'0:06.082',1393.199
'0:06.086',1394.213
'0:06.090',1394.885
'0:06.094',1395.237
'0:06.098',1395.328
'0:06.102',1395.192
'0:06.105',1394.840
'0:06.109',1394.276
'0:06.113',1393.593
'0:06.117',1392.896
'0:06.121',1392.188
'0:06.125',1391.383
'0:06.129',1390.484
'0:06.133',1389.627
'0:06.137',1388.923
'0:06.141',1388.372
'0:06.145',1387.871
'0:06.148',1387.261
'0:06.152',1386.421
'0:06.156',1385.372
'0:06.160',1384.264
'0:06.164',1383.292
'0:06.168',1382.598
'0:06.172',1382.155
'0:06.176',1381.884
'0:06.180',1381.702
'0:06.184',1381.563
'0:06.188',1381.420
'0:06.191',1381.201
'0:06.195',1380.807
'0:06.199',1380.214
'0:06.203',1379.430
'0:06.207',1378.437
'0:06.211',1377.326
'0:06.215',1376.364
'0:06.219',1375.862
'0:06.223',1375.925
'0:06.227',1376.374
'0:06.230',1376.904
'0:06.234',1377.252
'0:06.238',1377.284
'0:06.242',1376.988
'0:06.246',1376.416
'0:06.250',1375.618
'0:06.254',1374.656
'0:06.258',1373.611
'0:06.262',1372.590
'0:06.266',1371.708
'0:06.270',1371.042
'0:06.273',1370.656
'0:06.277',1370.565
'0:06.281',1370.753
'0:06.285',1371.245
'0:06.289',1372.032
'0:06.293',1373.011
'0:06.297',1373.998
'0:06.301',1374.830
'0:06.305',1375.426
'0:06.309',1375.782
'0:06.313',1375.973
'0:06.316',1376.050
'0:06.320',1376.029
'0:06.324',1376.001
'0:06.328',1376.127
'0:06.332',1376.500
'0:06.336',1377.057
'0:06.340',1377.643
'0:06.344',1378.183
'0:06.348',1378.716
'0:06.352',1379.267
'0:06.355',1379.741
'0:06.359',1379.974
'0:06.363',1379.856
'0:06.367',1379.497
'0:06.371',1379.200
'0:06.375',1379.288
'0:06.379',1379.894
'0:06.383',1380.932
'0:06.387',1382.159
'0:06.391',1383.337
'0:06.395',1384.386
'0:06.398',1385.362
'0:06.402',1386.250
'0:06.406',1386.850
'0:06.410',1386.898
'0:06.414',1386.278
'0:06.418',1384.999
'0:06.422',1383.117
'0:06.426',1380.814
'0:06.430',1378.458
'0:06.434',1376.430
'0:06.438',1374.987
'0:06.441',1374.245
'0:06.445',1374.217
'0:06.449',1374.830
'0:06.453',1375.932
'0:06.457',1377.319
'0:06.461',1378.862
'0:06.465',1380.605
'0:06.469',1382.598
'0:06.473',1384.769
'0:06.477',1386.902
'0:06.480',1388.738
'0:06.484',1390.080
'0:06.488',1390.902
'0:06.492',1391.317
'0:06.496',1391.470
'0:06.500',1391.460
'0:06.504',1391.289
'0:06.508',1390.934
'0:06.512',1390.411
'0:06.516',1389.784
'0:06.520',1389.104
'0:06.523',1388.383
'0:06.527',1387.602
'0:06.531',1386.696
'0:06.535',1385.557
'0:06.539',1384.065
'0:06.543',1382.135
'0:06.547',1379.737
'0:06.551',1376.977
'0:06.555',1374.109
'0:06.559',1371.436
'0:06.563',1369.213
'0:06.566',1367.666
'0:06.570',1366.951
'0:06.574',1367.098
'0:06.578',1367.997
'0:06.582',1369.408
'0:06.586',1370.945
'0:06.590',1372.084
'0:06.594',1372.384
'0:06.598',1371.736
'0:06.602',1370.457
'0:06.605',1369.074
'0:06.609',1368.070
'0:06.613',1367.739
'0:06.617',1368.168
'0:06.621',1369.269
'0:06.625',1370.844
'0:06.629',1372.579
'0:06.633',1374.116
'0:06.637',1375.224
'0:06.641',1375.935
'0:06.645',1376.423
'0:06.648',1376.841
'0:06.652',1377.259
'0:06.656',1377.702
'0:06.660',1378.092
'0:06.664',1378.266
'0:06.668',1378.064
'0:06.672',1377.364
'0:06.676',1376.106
'0:06.680',1374.336
'0:06.684',1372.248
'0:06.688',1370.098
'0:06.691',1368.133
'0:06.695',1366.578
'0:06.699',1365.519
'0:06.703',1364.840
'0:06.707',1364.223
'0:06.711',1363.285
'0:06.715',1361.829
'0:06.719',1360.024
'0:06.723',1358.326
'0:06.727',1357.190
'0:06.730',1356.873
'0:06.734',1357.393
'0:06.738',1358.515
'0:06.742',1359.842
'0:06.746',1360.916
'0:06.750',1361.351
'0:06.754',1360.975
'0:06.758',1359.898
'0:06.762',1358.455
'0:06.766',1357.006
'0:06.770',1355.744
'0:06.773',1354.664
'0:06.777',1353.573
'0:06.781',1352.221
'0:06.785',1350.468
'0:06.789',1348.381
'0:06.793',1346.248
'0:06.797',1344.391
'0:06.801',1343.056
'0:06.805',1342.401
'0:06.809',1342.478
'0:06.813',1343.286
'0:06.816',1344.760
'0:06.820',1346.802
'0:06.824',1349.256
'0:06.828',1351.855
'0:06.832',1354.281
'0:06.836',1356.270
'0:06.840',1357.755
'0:06.844',1358.786
'0:06.848',1359.400
'0:06.852',1359.623
'0:06.855',1359.546
'0:06.859',1359.323
'0:06.863',1359.079
'0:06.867',1358.804
'0:06.871',1358.393
'0:06.875',1357.835
'0:06.879',1357.225
'0:06.883',1356.685
'0:06.887',1356.288
'0:06.891',1356.002
'0:06.895',1355.713
'0:06.898',1355.309
'0:06.902',1354.765
'0:06.906',1354.166
'0:06.910',1353.626
'0:06.914',1353.176
'0:06.918',1352.754
'0:06.922',1352.200
'0:06.926',1351.423
'0:06.930',1350.489
'0:06.934',1349.562
'0:06.938',1348.796
'0:06.941',1348.255
'0:06.945',1347.924
'0:06.949',1347.729
'0:06.953',1347.642
'0:06.957',1347.656
'0:06.961',1347.785
'0:06.965',1348.043
'0:06.969',1348.444
'0:06.973',1348.952
'0:06.977',1349.458
'0:06.980',1349.768
'0:06.984',1349.688
'0:06.988',1349.175
'0:06.992',1348.343
'0:06.996',1347.381
'0:07.000',1346.461
'0:07.004',1345.652
'0:07.008',1344.976
'0:07.012',1344.467
'0:07.016',1344.231
'0:07.020',1344.373
'0:07.023',1344.952
'0:07.027',1345.914
'0:07.031',1347.102
'0:07.035',1348.336
'0:07.039',1349.433
'0:07.043',1350.176
'0:07.047',1350.339
'0:07.051',1349.883
'0:07.055',1349.026
'0:07.059',1348.127
'0:07.063',1347.391
'0:07.066',1346.809
'0:07.070',1346.259
'0:07.074',1345.516
'0:07.078',1344.339
'0:07.082',1342.638
'0:07.086',1340.589
'0:07.090',1338.526
'0:07.094',1336.756
'0:07.098',1335.456
'0:07.102',1334.696
'0:07.105',1334.487
'0:07.109',1334.794
'0:07.113',1335.519
'0:07.117',1336.512
'0:07.121',1337.557
'0:07.125',1338.421
'0:07.129',1338.920
'0:07.133',1338.989
'0:07.137',1338.679
'0:07.141',1338.104
'0:07.145',1337.453
'0:07.148',1336.979
'0:07.152',1336.961
'0:07.156',1337.627
'0:07.160',1339.111
'0:07.164',1341.450
'0:07.168',1344.555
'0:07.172',1348.182
'0:07.176',1351.914
'0:07.180',1355.225
'0:07.184',1357.685
'0:07.188',1359.135
'0:07.191',1359.682
'0:07.195',1359.511
'0:07.199',1358.769
'0:07.203',1357.619
'0:07.207',1356.375
'0:07.211',1355.472
'0:07.215',1355.270
'0:07.219',1355.814
'0:07.223',1356.783
'0:07.227',1357.699
'0:07.230',1358.239
'0:07.234',1358.372
'0:07.238',1358.218
'0:07.242',1357.800
'0:07.246',1356.922
'0:07.250',1355.333
'0:07.254',1352.977
'0:07.258',1350.106
'0:07.262',1347.119
'0:07.266',1344.401
'0:07.270',1342.227
'0:07.273',1340.791
'0:07.277',1340.240
'0:07.281',1340.634
'0:07.285',1341.958
'0:07.289',1344.105
'0:07.293',1346.886
'0:07.297',1349.980
'0:07.301',1352.936
'0:07.305',1355.298
'0:07.309',1356.866
'0:07.313',1357.772
'0:07.316',1358.253
'0:07.320',1358.407
'0:07.324',1358.243
'0:07.328',1357.880
'0:07.332',1357.497
'0:07.336',1357.170
'0:07.340',1356.891
'0:07.344',1356.661
'0:07.348',1356.497
'0:07.352',1356.427
'0:07.355',1356.466
'0:07.359',1356.643
'0:07.363',1357.089
'0:07.367',1358.006
'0:07.371',1359.483
'0:07.375',1361.445
'0:07.379',1363.759
'0:07.383',1366.355
'0:07.387',1369.171
'0:07.391',1372.025
'0:07.395',1374.573
'0:07.398',1376.420
'0:07.402',1377.225
'0:07.406',1376.789
'0:07.410',1375.109
'0:07.414',1372.468
'0:07.418',1369.384
'0:07.422',1366.446
'0:07.426',1364.129
'0:07.430',1362.710
'0:07.434',1362.289
'0:07.438',1362.839
'0:07.441',1364.216
'0:07.445',1366.129
'0:07.449',1368.188
'0:07.453',1370.119
'0:07.457',1371.900
'0:07.461',1373.726
'0:07.465',1375.764
'0:07.469',1378.036
'0:07.473',1380.431
'0:07.477',1382.790
'0:07.480',1384.968
'0:07.484',1386.790
'0:07.488',1388.062
'0:07.492',1388.634
'0:07.496',1388.599
'0:07.500',1388.289
'0:07.504',1388.069
'0:07.508',1388.146
'0:07.512',1388.568
'0:07.516',1389.359
'0:07.520',1390.505
'0:07.523',1391.916
'0:07.527',1393.492
'0:07.531',1395.070
'0:07.535',1396.398
'0:07.539',1397.206
'0:07.543',1397.374
'0:07.547',1396.983
'0:07.551',1396.335
'0:07.555',1395.785
'0:07.559',1395.586
'0:07.563',1395.771
'0:07.566',1396.171
'0:07.570',1396.548
'0:07.574',1396.785
'0:07.578',1396.889
'0:07.582',1396.882
'0:07.586',1396.746
'0:07.590',1396.450
'0:07.594',1395.931
'0:07.598',1395.199
'0:07.602',1394.377
'0:07.605',1393.659
'0:07.609',1393.289
'0:07.613',1393.509
'0:07.617',1394.446
'0:07.621',1396.063
'0:07.625',1398.116
'0:07.629',1400.144
'0:07.633',1401.622
'0:07.637',1402.186
'0:07.641',1401.663
'0:07.645',1400.036
'0:07.648',1397.457
'0:07.652',1394.279
'0:07.656',1391.003
'0:07.660',1388.142
'0:07.664',1386.027
'0:07.668',1384.724
'0:07.672',1384.121
'0:07.676',1384.041
'0:07.680',1384.347
'0:07.684',1384.954
'0:07.688',1385.727
'0:07.691',1386.431
'0:07.695',1386.839
'0:07.699',1386.895
'0:07.703',1386.762
'0:07.707',1386.654
'0:07.711',1386.595
'0:07.715',1386.390
'0:07.719',1385.752
'0:07.723',1384.539
'0:07.727',1382.954
'0:07.730',1381.441
'0:07.734',1380.410
'0:07.738',1380.051
'0:07.742',1380.371
'0:07.746',1381.187
'0:07.750',1382.190
'0:07.754',1383.100
'0:07.758',1383.835
'0:07.762',1384.490
'0:07.766',1385.118
'0:07.770',1385.578
'0:07.773',1385.710
'0:07.777',1385.501
'0:07.781',1385.093
'0:07.785',1384.626
'0:07.789',1384.170
'0:07.793',1383.692
'0:07.797',1383.177
'0:07.801',1382.668
'0:07.805',1382.166
'0:07.809',1381.581
'0:07.813',1380.856
'0:07.816',1380.033
'0:07.820',1379.169
'0:07.824',1378.319
'0:07.828',1377.570
'0:07.832',1376.988
'0:07.836',1376.555
'0:07.840',1376.224
'0:07.844',1375.946
'0:07.848',1375.663
'0:07.852',1375.350
'0:07.855',1375.040
'0:07.859',1374.820
'0:07.863',1374.823
'0:07.867',1375.165
'0:07.871',1375.932
'0:07.875',1377.179
'0:07.879',1378.876
'0:07.883',1380.863
'0:07.887',1382.926
'0:07.891',1384.748
'0:07.895',1385.933
'0:07.898',1386.166
'0:07.902',1385.334
'0:07.906',1383.542
'0:07.910',1381.110
'0:07.914',1378.517
'0:07.918',1376.176
'0:07.922',1374.221
'0:07.926',1372.524
'0:07.930',1370.962
'0:07.934',1369.638
'0:07.938',1368.784
'0:07.941',1368.526
'0:07.945',1368.750
'0:07.949',1369.265
'0:07.953',1370.028
'0:07.957',1371.175
'0:07.961',1372.795
'0:07.965',1374.705
'0:07.969',1376.482
'0:07.973',1377.678
'0:07.977',1377.988
'0:07.980',1377.371
'0:07.984',1375.977
'0:07.988',1374.032
'0:07.992',1371.715
'0:07.996',1369.234
'0:08.000',1366.923
'0:08.004',1365.143
'0:08.008',1364.010
'0:08.012',1363.327
'0:08.016',1362.766
'0:08.020',1362.142
'0:08.023',1361.526
'0:08.027',1361.121
'0:08.031',1361.041
'0:08.035',1361.191
'0:08.039',1361.397
'0:08.043',1361.609
'0:08.047',1361.916
'0:08.051',1362.379
'0:08.055',1362.975
'0:08.059',1363.704
'0:08.063',1364.624
'0:08.066',1365.728
'0:08.070',1366.815
'0:08.074',1367.586
'0:08.078',1367.795
'0:08.082',1367.415
'0:08.086',1366.669
'0:08.090',1365.833
'0:08.094',1365.035
'0:08.098',1364.268
'0:08.102',1363.501
'0:08.105',1362.669
'0:08.109',1361.703
'0:08.113',1360.564
'0:08.117',1359.257
'0:08.121',1357.821
'0:08.125',1356.284
'0:08.129',1354.688
'0:08.133',1353.183
'0:08.137',1352.061
'0:08.141',1351.604
'0:08.145',1352.002
'0:08.148',1353.281
'0:08.152',1355.270
'0:08.156',1357.616
'0:08.160',1359.870
'0:08.164',1361.630
'0:08.168',1362.672
'0:08.172',1362.961
'0:08.176',1362.550
'0:08.180',1361.553
'0:08.184',1360.180
'0:08.188',1358.734
'0:08.191',1357.570
'0:08.195',1356.964
'0:08.199',1356.999
'0:08.203',1357.480
'0:08.207',1358.051
'0:08.211',1358.403
'0:08.215',1358.410
'0:08.219',1358.107
'0:08.223',1357.522
'0:08.227',1356.581
'0:08.230',1355.253
'0:08.234',1353.671
'0:08.238',1352.057
'0:08.242',1350.608
'0:08.246',1349.426
'0:08.250',1348.520
'0:08.254',1347.876
'0:08.258',1347.538
'0:08.262',1347.520
'0:08.266',1347.715
'0:08.270',1347.942
'0:08.273',1348.099
'0:08.277',1348.179
'0:08.281',1348.144
'0:08.285',1347.959
'0:08.289',1347.663
'0:08.293',1347.370
'0:08.297',1347.172
'0:08.301',1347.071
'0:08.305',1347.018
'0:08.309',1346.994
'0:08.313',1346.980
'0:08.316',1346.980
'0:08.320',1347.001
'0:08.324',1347.008
'0:08.328',1346.875
'0:08.332',1346.482
'0:08.336',1345.837
'0:08.340',1345.060
'0:08.344',1344.258
'0:08.348',1343.492
'0:08.352',1342.844
'0:08.355',1342.363
'0:08.359',1342.007
'0:08.363',1341.739
'0:08.367',1341.624
'0:08.371',1341.760
'0:08.375',1342.199
'0:08.379',1342.917
'0:08.383',1343.774
'0:08.387',1344.579
'0:08.391',1345.175
'0:08.395',1345.482
'0:08.398',1345.471
'0:08.402',1345.150
'0:08.406',1344.534
'0:08.410',1343.673
'0:08.414',1342.641
'0:08.418',1341.512
'0:08.422',1340.348
'0:08.426',1339.202
'0:08.430',1338.122
'0:08.434',1337.240
'0:08.438',1336.763
'0:08.441',1336.832
'0:08.445',1337.386
'0:08.449',1338.209
'0:08.453',1339.136
'0:08.457',1340.094
'0:08.461',1341.007
'0:08.465',1341.826
'0:08.469',1342.568
'0:08.473',1343.241
'0:08.477',1343.767
'0:08.480',1344.109
'0:08.484',1344.356
'0:08.488',1344.603
'0:08.492',1344.858
'0:08.496',1345.164
'0:08.500',1345.590
'0:08.504',1346.084
'0:08.508',1346.492
'0:08.512',1346.712
'0:08.516',1346.726
'0:08.520',1346.590
'0:08.523',1346.377
'0:08.527',1346.057
'0:08.531',1345.461
'0:08.535',1344.394
'0:08.539',1342.781
'0:08.543',1340.788
'0:08.547',1338.718
'0:08.551',1336.850
'0:08.555',1335.344
'0:08.559',1334.278
'0:08.563',1333.682
'0:08.566',1333.529
'0:08.570',1333.724
'0:08.574',1334.163
'0:08.578',1334.815
'0:08.582',1335.707
'0:08.586',1336.905
'0:08.590',1338.453
'0:08.594',1340.335
'0:08.598',1342.439
'0:08.602',1344.576
'0:08.605',1346.527
'0:08.609',1348.130
'0:08.613',1349.318
'0:08.617',1350.148
'0:08.621',1350.712
'0:08.625',1351.050
'0:08.629',1351.207
'0:08.633',1351.367
'0:08.637',1351.786
'0:08.641',1352.587
'0:08.645',1353.685
'0:08.648',1354.904
'0:08.652',1356.148
'0:08.656',1357.368
'0:08.660',1358.515
'0:08.664',1359.539
'0:08.668',1360.344
'0:08.672',1360.780
'0:08.676',1360.776
'0:08.680',1360.403
'0:08.684',1359.787
'0:08.688',1359.104
'0:08.691',1358.563
'0:08.695',1358.302
'0:08.699',1358.354
'0:08.703',1358.727
'0:08.707',1359.428
'0:08.711',1360.466
'0:08.715',1361.794
'0:08.719',1363.285
'0:08.723',1364.773
'0:08.727',1366.101
'0:08.730',1367.171
'0:08.734',1367.955
'0:08.738',1368.478
'0:08.742',1368.791
'0:08.746',1368.892
'0:08.750',1368.781
'0:08.754',1368.537
'0:08.758',1368.265
'0:08.762',1368.070
'0:08.766',1368.028
'0:08.770',1368.185
'0:08.773',1368.537
'0:08.777',1369.060
'0:08.781',1369.704
'0:08.785',1370.328
'0:08.789',1370.764
'0:08.793',1370.966
'0:08.797',1371.063
'0:08.801',1371.238
'0:08.805',1371.628
'0:08.809',1372.297
'0:08.813',1373.137
'0:08.816',1373.904
'0:08.820',1374.374
'0:08.824',1374.566
'0:08.828',1374.684
'0:08.832',1374.911
'0:08.836',1375.242
'0:08.840',1375.559
'0:08.844',1375.806
'0:08.848',1376.005
'0:08.852',1376.179
'0:08.855',1376.266
'0:08.859',1376.176
'0:08.863',1375.886
'0:08.867',1375.486
'0:08.871',1375.088
'0:08.875',1374.799
'0:08.879',1374.681
'0:08.883',1374.792
'0:08.887',1375.203
'0:08.891',1375.928
'0:08.895',1376.876
'0:08.898',1377.876
'0:08.902',1378.758
'0:08.906',1379.392
'0:08.910',1379.768
'0:08.914',1380.023
'0:08.918',1380.298
'0:08.922',1380.633
'0:08.926',1381.019
'0:08.930',1381.469
'0:08.934',1381.884
'0:08.938',1382.075
'0:08.941',1381.905
'0:08.945',1381.431
'0:08.949',1380.922
'0:08.953',1380.678
'0:08.957',1380.828
'0:08.961',1381.291
'0:08.965',1381.845
'0:08.969',1382.225
'0:08.973',1382.302
'0:08.977',1382.162
'0:08.980',1382.114
'0:08.984',1382.431
'0:08.988',1383.180
'0:08.992',1384.218
'0:08.996',1385.278
'0:09.000',1386.125
'0:09.004',1386.606
'0:09.008',1386.686
'0:09.012',1386.431
'0:09.016',1385.856
'0:09.020',1384.919
'0:09.023',1383.678
'0:09.027',1382.389
'0:09.031',1381.316
'0:09.035',1380.654
'0:09.039',1380.518
'0:09.043',1380.988
'0:09.047',1382.061
'0:09.051',1383.581
'0:09.055',1385.215
'0:09.059',1386.613
'0:09.063',1387.616
'0:09.066',1388.278
'0:09.070',1388.689
'0:09.074',1388.822
'0:09.078',1388.627
'0:09.082',1388.212
'0:09.086',1387.864
'0:09.090',1387.857
'0:09.094',1388.240
'0:09.098',1388.857
'0:09.102',1389.536
'0:09.105',1390.202
'0:09.109',1390.805
'0:09.113',1391.212
'0:09.117',1391.219
'0:09.121',1390.679
'0:09.125',1389.613
'0:09.129',1388.195
'0:09.133',1386.644
'0:09.137',1385.173
'0:09.141',1383.922
'0:09.145',1382.905
'0:09.148',1382.072
'0:09.152',1381.420
'0:09.156',1380.943
'0:09.160',1380.539
'0:09.164',1380.040
'0:09.168',1379.281
'0:09.172',1378.253
'0:09.176',1377.040
'0:09.180',1375.712
'0:09.184',1374.318
'0:09.188',1372.949
'0:09.191',1371.694
'0:09.195',1370.614
'0:09.199',1369.697
'0:09.203',1368.913
'0:09.207',1368.248
'0:09.211',1367.746
'0:09.215',1367.478
'0:09.219',1367.523
'0:09.223',1367.927
'0:09.227',1368.669
'0:09.230',1369.687
'0:09.234',1370.854
'0:09.238',1371.997
'0:09.242',1372.977
'0:09.246',1373.722
'0:09.250',1374.196
'0:09.254',1374.353
'0:09.258',1374.217
'0:09.262',1373.841
'0:09.266',1373.231
'0:09.270',1372.409
'0:09.273',1371.502
'0:09.277',1370.687
'0:09.281',1370.084
'0:09.285',1369.687
'0:09.289',1369.429
'0:09.293',1369.304
'0:09.297',1369.345
'0:09.301',1369.492
'0:09.305',1369.666
'0:09.309',1369.889
'0:09.313',1370.255
'0:09.316',1370.851
'0:09.320',1371.757
'0:09.324',1373.032
'0:09.328',1374.674
'0:09.332',1376.587
'0:09.336',1378.573
'0:09.340',1380.371
'0:09.344',1381.783
'0:09.348',1382.793
'0:09.352',1383.441
'0:09.355',1383.755
'0:09.359',1383.772
'0:09.363',1383.591
'0:09.367',1383.407
'0:09.371',1383.490
'0:09.375',1383.999
'0:09.379',1384.891
'0:09.383',1385.964
'0:09.387',1386.958
'0:09.391',1387.665
'0:09.395',1387.965
'0:09.398',1387.850
'0:09.402',1387.341
'0:09.406',1386.438
'0:09.410',1385.222
'0:09.414',1383.884
'0:09.418',1382.588
'0:09.422',1381.476
'0:09.426',1380.657
'0:09.430',1380.162
'0:09.434',1379.880
'0:09.438',1379.646
'0:09.441',1379.403
'0:09.445',1379.138
'0:09.449',1378.866
'0:09.453',1378.653
'0:09.457',1378.639
'0:09.461',1378.855
'0:09.465',1379.127
'0:09.469',1379.197
'0:09.473',1378.946
'0:09.477',1378.437
'0:09.480',1377.719
'0:09.484',1376.691
'0:09.488',1375.189
'0:09.492',1373.220
'0:09.496',1371.046
'0:09.500',1369.011
'0:09.504',1367.415
'0:09.508',1366.439
'0:09.512',1366.098
'0:09.516',1366.178
'0:09.520',1366.244
'0:09.523',1365.770
'0:09.527',1364.421
'0:09.531',1362.240
'0:09.535',1359.585
'0:09.539',1356.863
'0:09.543',1354.371
'0:09.547',1352.319
'0:09.551',1350.855
'0:09.555',1350.088
'0:09.559',1350.081
'0:09.563',1350.859
'0:09.566',1352.374
'0:09.570',1354.511
'0:09.574',1357.142
'0:09.578',1360.180
'0:09.582',1363.575
'0:09.586',1367.146
'0:09.590',1370.572
'0:09.594',1373.478
'0:09.598',1375.541
'0:09.602',1376.535
'0:09.605',1376.350
'0:09.609',1375.040
'0:09.613',1372.823
'0:09.617',1370.098
'0:09.621',1367.376
'0:09.625',1365.097
'0:09.629',1363.428
'0:09.633',1362.282
'0:09.637',1361.480
'0:09.641',1360.933
'0:09.645',1360.637
'0:09.648',1360.550
'0:09.652',1360.529
'0:09.656',1360.369
'0:09.660',1359.909
'0:09.664',1359.152
'0:09.668',1358.211
'0:09.672',1357.121
'0:09.676',1355.810
'0:09.680',1354.291
'0:09.684',1352.789
'0:09.688',1351.632
'0:09.691',1351.068
'0:09.695',1351.148
'0:09.699',1351.733
'0:09.703',1352.531
'0:09.707',1353.211
'0:09.711',1353.570
'0:09.715',1353.681
'0:09.719',1353.800
'0:09.723',1354.106
'0:09.727',1354.573
'0:09.730',1355.075
'0:09.734',1355.594
'0:09.738',1356.201
'0:09.742',1356.852
'0:09.746',1357.337
'0:09.750',1357.438
'0:09.754',1357.013
'0:09.758',1355.884
'0:09.762',1353.950
'0:09.766',1351.353
'0:09.770',1348.440
'0:09.773',1345.593
'0:09.777',1343.133
'0:09.781',1341.321
'0:09.785',1340.352
'0:09.789',1340.335
'0:09.793',1341.268
'0:09.797',1343.004
'0:09.801',1345.300
'0:09.805',1347.830
'0:09.809',1350.183
'0:09.813',1351.967
'0:09.816',1352.998
'0:09.820',1353.427
'0:09.824',1353.580
'0:09.828',1353.720
'0:09.832',1353.943
'0:09.836',1354.295
'0:09.840',1354.779
'0:09.844',1355.270
'0:09.848',1355.514
'0:09.852',1355.312
'0:09.855',1354.678
'0:09.859',1353.772
'0:09.863',1352.716
'0:09.867',1351.563
'0:09.871',1350.413
'0:09.875',1349.465
'0:09.879',1348.938
'0:09.883',1348.925
'0:09.887',1349.315
'0:09.891',1349.813
'0:09.895',1350.113
'0:09.898',1350.106
'0:09.902',1349.858
'0:09.906',1349.447
'0:09.910',1348.963
'0:09.914',1348.607
'0:09.918',1348.618
'0:09.922',1349.116
'0:09.926',1349.966
'0:09.930',1350.852
'0:09.934',1351.461
'0:09.938',1351.684
'0:09.941',1351.667
'0:09.945',1351.751
'0:09.949',1352.252
'0:09.953',1353.343
'0:09.957',1354.953
'0:09.961',1356.849
'0:09.965',1358.776
'0:09.969',1360.536
'0:09.973',1362.013
'0:09.977',1363.156
'0:09.980',1364.003
'0:09.984',1364.630
'0:09.988',1365.129
'0:09.992',1365.568
'0:09.996',1365.986
'0:10.000',1366.463
'0:10.004',1367.087
'0:10.008',1367.847
'0:10.012',1368.617
'0:10.016',1369.255
'0:10.020',1369.666
'0:10.023',1369.802
'0:10.027',1369.663
'0:10.031',1369.297
'0:10.035',1368.767
'0:10.039',1368.094
'0:10.043',1367.272
'0:10.047',1366.352
'0:10.051',1365.481
'0:10.055',1364.829
'0:10.059',1364.502
'0:10.063',1364.536
'0:10.066',1364.888
'0:10.070',1365.495
'0:10.074',1366.300
'0:10.078',1367.258
'0:10.082',1368.321
'0:10.086',1369.419
'0:10.090',1370.478
'0:10.094',1371.433
'0:10.098',1372.269
'0:10.102',1373.022
'0:10.105',1373.740
'0:10.109',1374.447
'0:10.113',1375.137
'0:10.117',1375.841
'0:10.121',1376.587
'0:10.125',1377.367
'0:10.129',1378.110
'0:10.133',1378.664
'0:10.137',1378.838
'0:10.141',1378.521
'0:10.145',1377.747
'0:10.148',1376.663
'0:10.152',1375.458
'0:10.156',1374.280
'0:10.160',1373.214
'0:10.164',1372.255
'0:10.168',1371.335
'0:10.172',1370.356
'0:10.176',1369.241
'0:10.180',1367.969
'0:10.184',1366.613
'0:10.188',1365.366
'0:10.191',1364.498
'0:10.195',1364.289
'0:10.199',1364.864
'0:10.203',1366.139
'0:10.207',1367.850
'0:10.211',1369.638
'0:10.215',1371.161
'0:10.219',1372.234
'0:10.223',1372.858
'0:10.227',1373.172
'0:10.230',1373.367
'0:10.234',1373.590
'0:10.238',1373.872
'0:10.242',1374.182
'0:10.246',1374.461
'0:10.250',1374.663
'0:10.254',1374.778
'0:10.258',1374.841
'0:10.262',1374.904
'0:10.266',1375.022
'0:10.270',1375.196
'0:10.273',1375.367
'0:10.277',1375.451
'0:10.281',1375.433
'0:10.285',1375.364
'0:10.289',1375.315
'0:10.293',1375.388
'0:10.297',1375.691
'0:10.301',1376.287
'0:10.305',1377.211
'0:10.309',1378.437
'0:10.313',1379.849
'0:10.316',1381.277
'0:10.320',1382.609
'0:10.324',1383.786
'0:10.328',1384.748
'0:10.332',1385.421
'0:10.336',1385.703
'0:10.340',1385.487
'0:10.344',1384.724
'0:10.348',1383.567
'0:10.352',1382.291
'0:10.355',1381.103
'0:10.359',1380.113
'0:10.363',1379.385
'0:10.367',1378.911
'0:10.371',1378.604
'0:10.375',1378.388
'0:10.379',1378.246
'0:10.383',1378.183
'0:10.387',1378.172
'0:10.391',1378.155
'0:10.395',1378.158
'0:10.398',1378.385
'0:10.402',1379.078
'0:10.406',1380.329
'0:10.410',1381.985
'0:10.414',1383.692
'0:10.418',1385.023
'0:10.422',1385.616
'0:10.426',1385.288
'0:10.430',1384.023
'0:10.434',1382.040
'0:10.438',1379.782
'0:10.441',1377.758
'0:10.445',1376.381
'0:10.449',1375.946
'0:10.453',1376.639
'0:10.457',1378.545
'0:10.461',1381.567
'0:10.465',1385.403
'0:10.469',1389.592
'0:10.473',1393.575
'0:10.477',1396.826
'0:10.480',1399.001
'0:10.484',1399.987
'0:10.488',1399.848
'0:10.492',1398.778
'0:10.496',1397.056
'0:10.500',1394.983
'0:10.504',1392.767
'0:10.508',1390.502
'0:10.512',1388.254
'0:10.516',1386.201
'0:10.520',1384.612
'0:10.523',1383.637
'0:10.527',1383.184
'0:10.531',1383.009
'0:10.535',1382.898
'0:10.539',1382.845
'0:10.543',1383.006
'0:10.547',1383.438
'0:10.551',1384.065
'0:10.555',1384.790
'0:10.559',1385.581
'0:10.563',1386.330
'0:10.566',1386.930
'0:10.570',1387.452
'0:10.574',1388.142
'0:10.578',1389.170
'0:10.582',1390.449
'0:10.586',1391.721
'0:10.590',1392.742
'0:10.594',1393.394
'0:10.598',1393.687
'0:10.602',1393.732
'0:10.605',1393.669
'0:10.609',1393.648
'0:10.613',1393.864
'0:10.617',1394.398
'0:10.621',1395.119
'0:10.625',1395.816
'0:10.629',1396.325
'0:10.633',1396.576
'0:10.637',1396.537
'0:10.641',1396.178
'0:10.645',1395.516
'0:10.648',1394.645
'0:10.652',1393.690
'0:10.656',1392.690
'0:10.660',1391.652
'0:10.664',1390.634
'0:10.668',1389.731
'0:10.672',1389.028
'0:10.676',1388.588
'0:10.680',1388.466
'0:10.684',1388.689
'0:10.688',1389.205
'0:10.691',1389.853
'0:10.695',1390.390
'0:10.699',1390.620
'0:10.703',1390.536
'0:10.707',1390.233
'0:10.711',1389.826
'0:10.715',1389.404
'0:10.719',1389.041
'0:10.723',1388.815
'0:10.727',1388.721
'0:10.730',1388.679
'0:10.734',1388.623
'0:10.738',1388.519
'0:10.742',1388.282
'0:10.746',1387.857
'0:10.750',1387.236
'0:10.754',1386.386
'0:10.758',1385.295
'0:10.762',1384.023
'0:10.766',1382.671
'0:10.770',1381.344
'0:10.773',1380.148
'0:10.777',1379.239
'0:10.781',1378.723
'0:10.785',1378.573
'0:10.789',1378.678
'0:10.793',1378.956
'0:10.797',1379.322
'0:10.801',1379.573
'0:10.805',1379.476
'0:10.809',1378.988
'0:10.813',1378.305
'0:10.816',1377.709
'0:10.820',1377.336
'0:10.824',1377.110
'0:10.828',1376.900
'0:10.832',1376.754
'0:10.836',1376.886
'0:10.840',1377.434
'0:10.844',1378.315
'0:10.848',1379.322
'0:10.852',1380.187
'0:10.855',1380.626
'0:10.859',1380.382
'0:10.863',1379.399
'0:10.867',1377.873
'0:10.871',1376.197
'0:10.875',1374.813
'0:10.879',1373.994
'0:10.883',1373.743
'0:10.887',1373.869
'0:10.891',1374.154
'0:10.895',1374.433
'0:10.898',1374.559
'0:10.902',1374.391
'0:10.906',1373.827
'0:10.910',1372.869
'0:10.914',1371.701
'0:10.918',1370.656
'0:10.922',1370.039
'0:10.926',1369.955
'0:10.930',1370.272
'0:10.934',1370.795
'0:10.938',1371.367
'0:10.941',1371.914
'0:10.945',1372.426
'0:10.949',1372.997
'0:10.953',1373.792
'0:10.957',1374.921
'0:10.961',1376.217
'0:10.965',1377.284
'0:10.969',1377.702
'0:10.973',1377.228
'0:10.977',1375.893
'0:10.980',1373.998
'0:10.984',1371.976
'0:10.988',1370.203
'0:10.992',1368.837
'0:10.996',1367.836
'0:11.000',1367.087
'0:11.004',1366.505
'0:11.008',1366.052
'0:11.012',1365.739
'0:11.016',1365.571
'0:11.020',1365.568
'0:11.023',1365.829
'0:11.027',1366.429
'0:11.031',1367.307
'0:11.035',1368.307
'0:11.039',1369.182
'0:11.043',1369.697
'0:11.047',1369.778
'0:11.051',1369.561
'0:11.055',1369.293
'0:11.059',1369.143
'0:11.063',1369.171
'0:11.066',1369.338
'0:11.070',1369.568
'0:11.074',1369.778
'0:11.078',1369.903
'0:11.082',1369.858
'0:11.086',1369.506
'0:11.090',1368.760
'0:11.094',1367.704
'0:11.098',1366.585
'0:11.102',1365.592
'0:11.105',1364.707
'0:11.109',1363.829
'0:11.113',1362.996
'0:11.117',1362.379
'0:11.121',1362.038
'0:11.125',1361.850
'0:11.129',1361.668
'0:11.133',1361.456
'0:11.137',1361.191
'0:11.141',1360.752
'0:11.145',1360.062
'0:11.148',1359.246
'0:11.152',1358.602
'0:11.156',1358.365
'0:11.160',1358.588
'0:11.164',1359.201
'0:11.168',1360.076
'0:11.172',1361.048
'0:11.176',1361.979
'0:11.180',1362.832
'0:11.184',1363.620
'0:11.188',1364.331
'0:11.191',1364.937
'0:11.195',1365.432
'0:11.199',1365.878
'0:11.203',1366.314
'0:11.207',1366.704
'0:11.211',1366.920
'0:11.215',1366.767
'0:11.219',1366.108
'0:11.223',1364.965
'0:11.227',1363.561
'0:11.230',1362.233
'0:11.234',1361.236
'0:11.238',1360.592
'0:11.242',1360.104
'0:11.246',1359.609
'0:11.250',1359.159
'0:11.254',1358.936
'0:11.258',1358.996
'0:11.262',1359.240
'0:11.266',1359.591
'0:11.270',1360.114
'0:11.273',1360.860
'0:11.277',1361.724
'0:11.281',1362.487
'0:11.285',1362.933
'0:11.289',1362.839
'0:11.293',1362.024
'0:11.297',1360.550
'0:11.301',1358.790
'0:11.305',1357.250
'0:11.309',1356.337
'0:11.313',1356.229
'0:11.316',1356.953
'0:11.320',1358.389
'0:11.324',1360.177
'0:11.328',1361.742
'0:11.332',1362.554
'0:11.336',1362.351
'0:11.340',1361.240
'0:11.344',1359.546
'0:11.348',1357.612
'0:11.352',1355.682
'0:11.355',1354.012
'0:11.359',1352.894
'0:11.363',1352.510
'0:11.367',1352.838
'0:11.371',1353.751
'0:11.375',1355.089
'0:11.379',1356.608
'0:11.383',1358.002
'0:11.387',1359.016
'0:11.391',1359.511
'0:11.395',1359.490
'0:11.398',1359.107
'0:11.402',1358.539
'0:11.406',1357.814
'0:11.410',1356.790
'0:11.414',1355.316
'0:11.418',1353.396
'0:11.422',1351.266
'0:11.426',1349.336
'0:11.430',1347.987
'0:11.434',1347.395
'0:11.438',1347.457
'0:11.441',1347.917
'0:11.445',1348.580
'0:11.449',1349.353
'0:11.453',1350.158
'0:11.457',1350.789
'0:11.461',1350.994
'0:11.465',1350.670
'0:11.469',1350.005
'0:11.473',1349.336
'0:11.477',1348.907
'0:11.480',1348.740
'0:11.484',1348.785
'0:11.488',1349.071
'0:11.492',1349.667
'0:11.496',1350.555
'0:11.500',1351.587
'0:11.504',1352.629
'0:11.508',1353.514
'0:11.512',1353.960
'0:11.516',1353.587
'0:11.520',1352.200
'0:11.523',1349.987
'0:11.527',1347.454
'0:11.531',1345.175
'0:11.535',1343.600
'0:11.539',1342.993
'0:11.543',1343.464
'0:11.547',1344.917
'0:11.551',1347.067
'0:11.555',1349.454
'0:11.559',1351.611
'0:11.563',1353.298
'0:11.566',1354.549
'0:11.570',1355.431
'0:11.574',1355.856
'0:11.578',1355.615
'0:11.582',1354.647
'0:11.586',1353.096
'0:11.590',1351.238
'0:11.594',1349.465
'0:11.598',1348.228
'0:11.602',1347.907
'0:11.605',1348.705
'0:11.609',1350.615
'0:11.613',1353.413
'0:11.617',1356.706
'0:11.621',1359.964
'0:11.625',1362.637
'0:11.629',1364.383
'0:11.633',1365.125
'0:11.637',1365.035
'0:11.641',1364.481
'0:11.645',1363.920
'0:11.648',1363.710
'0:11.652',1363.902
'0:11.656',1364.209
'0:11.660',1364.205
'0:11.664',1363.609
'0:11.668',1362.421
'0:11.672',1360.898
'0:11.676',1359.459
'0:11.680',1358.553
'0:11.684',1358.508
'0:11.688',1359.361
'0:11.691',1360.815
'0:11.695',1362.376
'0:11.699',1363.609
'0:11.703',1364.268
'0:11.707',1364.362
'0:11.711',1364.055
'0:11.715',1363.480
'0:11.719',1362.700
'0:11.723',1361.790
'0:11.727',1360.856
'0:11.730',1359.912
'0:11.734',1358.929
'0:11.738',1357.940
'0:11.742',1357.065
'0:11.746',1356.504
'0:11.750',1356.410
'0:11.754',1356.793
'0:11.758',1357.556
'0:11.762',1358.539
'0:11.766',1359.515
'0:11.770',1360.264
'0:11.773',1360.672
'0:11.777',1360.714
'0:11.781',1360.386
'0:11.785',1359.748
'0:11.789',1358.954
'0:11.793',1358.100
'0:11.797',1357.194
'0:11.801',1356.284
'0:11.805',1355.518
'0:11.809',1355.093
'0:11.813',1355.197
'0:11.816',1355.922
'0:11.820',1357.211
'0:11.824',1358.940
'0:11.828',1360.958
'0:11.832',1363.118
'0:11.836',1365.233
'0:11.840',1367.153
'0:11.844',1368.844
'0:11.848',1370.366
'0:11.852',1371.781
'0:11.855',1373.133
'0:11.859',1374.503
'0:11.863',1375.928
'0:11.867',1377.340
'0:11.871',1378.643
'0:11.875',1379.772
'0:11.879',1380.744
'0:11.883',1381.629
'0:11.887',1382.469
'0:11.891',1383.253
'0:11.895',1383.943
'0:11.898',1384.459
'0:11.902',1384.769
'0:11.906',1384.943
'0:11.910',1385.062
'0:11.914',1385.173
'0:11.918',1385.334
'0:11.922',1385.588
'0:11.926',1385.950
'0:11.930',1386.435
'0:11.934',1387.052
'0:11.938',1387.763
'0:11.941',1388.491
'0:11.945',1389.202
'0:11.949',1389.958
'0:11.953',1390.819
'0:11.957',1391.794
'0:11.961',1392.836
'0:11.965',1393.843
'0:11.969',1394.680
'0:11.973',1395.196
'0:11.977',1395.297
'0:11.980',1395.070
'0:11.984',1394.774
'0:11.988',1394.596
'0:11.992',1394.485
'0:11.996',1394.216
'0:12.000',1393.631
'0:12.004',1392.777
'0:12.008',1391.780
'0:12.012',1390.787
'0:12.016',1390.003
'0:12.020',1389.630
'0:12.023',1389.756
'0:12.027',1390.292
'0:12.031',1391.073
'0:12.035',1391.934
'0:12.039',1392.735
'0:12.043',1393.335
'0:12.047',1393.617
'0:12.051',1393.547
'0:12.055',1393.202
'0:12.059',1392.753
'0:12.063',1392.443
'0:12.066',1392.436
'0:12.070',1392.645
'0:12.074',1392.781
'0:12.078',1392.599
'0:12.082',1392.094
'0:12.086',1391.456
'0:12.090',1390.906
'0:12.094',1390.637
'0:12.098',1390.780
'0:12.102',1391.394
'0:12.105',1392.422
'0:12.109',1393.711
'0:12.113',1395.088
'0:12.117',1396.412
'0:12.121',1397.597
'0:12.125',1398.628
'0:12.129',1399.545
'0:12.133',1400.374
'0:12.137',1401.074
'0:12.141',1401.548
'0:12.145',1401.775
'0:12.148',1401.799
'0:12.152',1401.580
'0:12.156',1400.998
'0:12.160',1400.060
'0:12.164',1398.956
'0:12.168',1397.865
'0:12.172',1396.886
'0:12.176',1396.105
'0:12.180',1395.589
'0:12.184',1395.293
'0:12.188',1395.129
'0:12.191',1395.053
'0:12.195',1395.018
'0:12.199',1394.938
'0:12.203',1394.697
'0:12.207',1394.171
'0:12.211',1393.230
'0:12.215',1391.739
'0:12.219',1389.585
'0:12.223',1386.863
'0:12.227',1383.898
'0:12.230',1381.145
'0:12.234',1379.026
'0:12.238',1377.824
'0:12.242',1377.660
'0:12.246',1378.496
'0:12.250',1380.180
'0:12.254',1382.490
'0:12.258',1385.194
'0:12.262',1387.993
'0:12.266',1390.491
'0:12.270',1392.216
'0:12.273',1392.711
'0:12.277',1391.704
'0:12.281',1389.219
'0:12.285',1385.651
'0:12.289',1381.633
'0:12.293',1377.848
'0:12.297',1374.844
'0:12.301',1372.942
'0:12.305',1372.269
'0:12.309',1372.778
'0:12.313',1374.276
'0:12.316',1376.416
'0:12.320',1378.758
'0:12.324',1380.863
'0:12.328',1382.420
'0:12.332',1383.386
'0:12.336',1383.891
'0:12.340',1383.995
'0:12.344',1383.657
'0:12.348',1382.912
'0:12.352',1381.971
'0:12.355',1381.089
'0:12.359',1380.441
'0:12.363',1380.131
'0:12.367',1380.228
'0:12.371',1380.737
'0:12.375',1381.563
'0:12.379',1382.609
'0:12.383',1383.776
'0:12.387',1384.898
'0:12.391',1385.672
'0:12.395',1385.849
'0:12.398',1385.417
'0:12.402',1384.584
'0:12.406',1383.623
'0:12.410',1382.786
'0:12.414',1382.277
'0:12.418',1382.194
'0:12.422',1382.553
'0:12.426',1383.337
'0:12.430',1384.476
'0:12.434',1385.888
'0:12.438',1387.536
'0:12.441',1389.338
'0:12.445',1391.073
'0:12.449',1392.491
'0:12.453',1393.467
'0:12.457',1394.063
'0:12.461',1394.558
'0:12.465',1395.387
'0:12.469',1396.934
'0:12.473',1399.304
'0:12.477',1402.263
'0:12.480',1405.361
'0:12.484',1408.142
'0:12.488',1410.257
'0:12.492',1411.497
'0:12.496',1411.804
'0:12.500',1411.208
'0:12.504',1409.783
'0:12.508',1407.661
'0:12.512',1405.110
'0:12.516',1402.503
'0:12.520',1400.168
'0:12.523',1398.252
'0:12.527',1396.649
'0:12.531',1395.126
'0:12.535',1393.554
'0:12.539',1391.979
'0:12.543',1390.505
'0:12.547',1389.163
'0:12.551',1387.979
'0:12.555',1386.999
'0:12.559',1386.250
'0:12.563',1385.672
'0:12.566',1385.128
'0:12.570',1384.522
'0:12.574',1383.863
'0:12.578',1383.204
'0:12.582',1382.588
'0:12.586',1382.072
'0:12.590',1381.692
'0:12.594',1381.427
'0:12.598',1381.211
'0:12.602',1381.009
'0:12.605',1380.877
'0:12.609',1380.866
'0:12.613',1380.992
'0:12.617',1381.218
'0:12.621',1381.459
'0:12.625',1381.636
'0:12.629',1381.716
'0:12.633',1381.615
'0:12.637',1381.211
'0:12.641',1380.514
'0:12.645',1379.754
'0:12.648',1379.228
'0:12.652',1379.009
'0:12.656',1378.883
'0:12.660',1378.423
'0:12.664',1377.186
'0:12.668',1374.890
'0:12.672',1371.534
'0:12.676',1367.397
'0:12.680',1362.951
'0:12.684',1358.665
'0:12.688',1354.866
'0:12.691',1351.723
'0:12.695',1349.252
'0:12.699',1347.381
'0:12.703',1346.018
'0:12.707',1345.077
'0:12.711',1344.506
'0:12.715',1344.342
'0:12.719',1344.684
'0:12.723',1345.607
'0:12.727',1347.123
'0:12.730',1349.175
'0:12.734',1351.688
'0:12.738',1354.545
'0:12.742',1357.549
'0:12.746',1360.379
'0:12.750',1362.609
'0:12.754',1363.825
'0:12.758',1363.787
'0:12.762',1362.606
'0:12.766',1360.731
'0:12.770',1358.783
'0:12.773',1357.239
'0:12.777',1356.239
'0:12.781',1355.619
'0:12.785',1355.120
'0:12.789',1354.667
'0:12.793',1354.371
'0:12.797',1354.389
'0:12.801',1354.720
'0:12.805',1355.263
'0:12.809',1355.978
'0:12.813',1356.870
'0:12.816',1357.891
'0:12.820',1358.992
'0:12.824',1360.212
'0:12.828',1361.522
'0:12.832',1362.658
'0:12.836',1363.202
'0:12.840',1362.871
'0:12.844',1361.724
'0:12.848',1360.104
'0:12.852',1358.375
'0:12.855',1356.689
'0:12.859',1354.918
'0:12.863',1352.786
'0:12.867',1350.141
'0:12.871',1347.119
'0:12.875',1344.077
'0:12.879',1341.397
'0:12.883',1339.359
'0:12.887',1338.122
'0:12.891',1337.700
'0:12.895',1337.989
'0:12.898',1338.836
'0:12.902',1340.115
'0:12.906',1341.718
'0:12.910',1343.565
'0:12.914',1345.544
'0:12.918',1347.457
'0:12.922',1349.015
'0:12.926',1350.001
'0:12.930',1350.444
'0:12.934',1350.569
'0:12.938',1350.555
'0:12.941',1350.353
'0:12.945',1349.848
'0:12.949',1349.074
'0:12.953',1348.269
'0:12.957',1347.642
'0:12.961',1347.266
'0:12.965',1347.095
'0:12.969',1347.064
'0:12.973',1347.074
'0:12.977',1347.050
'0:12.980',1346.956
'0:12.984',1346.900
'0:12.988',1347.039
'0:12.992',1347.381
'0:12.996',1347.848
'0:13.000',1348.395
'0:13.004',1349.012
'0:13.008',1349.611
'0:13.012',1350.064
'0:13.016',1350.284
'0:13.020',1350.263
'0:13.023',1350.068
'0:13.027',1349.834
'0:13.031',1349.688
'0:13.035',1349.670
'0:13.039',1349.743
'0:13.043',1349.806
'0:13.047',1349.803
'0:13.051',1349.858
'0:13.055',1350.231
'0:13.059',1351.075
'0:13.063',1352.319
'0:13.066',1353.793
'0:13.070',1355.302
'0:13.074',1356.560
'0:13.078',1357.180
'0:13.082',1356.870
'0:13.086',1355.594
'0:13.090',1353.598
'0:13.094',1351.357
'0:13.098',1349.374
'0:13.102',1347.998
'0:13.105',1347.409
'0:13.109',1347.642
'0:13.113',1348.632
'0:13.117',1350.270
'0:13.121',1352.427
'0:13.125',1354.960
'0:13.129',1357.671
'0:13.133',1360.316
'0:13.137',1362.676
'0:13.141',1364.627
'0:13.145',1366.129
'0:13.148',1367.192
'0:13.152',1367.854
'0:13.156',1368.181
'0:13.160',1368.206
'0:13.164',1367.945
'0:13.168',1367.373
'0:13.172',1366.491
'0:13.176',1365.415
'0:13.180',1364.341
'0:13.184',1363.390
'0:13.188',1362.567
'0:13.191',1361.871
'0:13.195',1361.386
'0:13.199',1361.208
'0:13.203',1361.407
'0:13.207',1362.080
'0:13.211',1363.285
'0:13.215',1364.937
'0:13.219',1366.875
'0:13.223',1368.920
'0:13.227',1370.813
'0:13.230',1372.213
'0:13.234',1372.970
'0:13.238',1373.189
'0:13.242',1373.105
'0:13.246',1372.889
'0:13.250',1372.600
'0:13.254',1372.255
'0:13.258',1371.921
'0:13.262',1371.719
'0:13.266',1371.732
'0:13.270',1371.928
'0:13.273',1372.255
'0:13.277',1372.694
'0:13.281',1373.238
'0:13.285',1373.872
'0:13.289',1374.621
'0:13.293',1375.454
'0:13.297',1376.231
'0:13.301',1376.803
'0:13.305',1377.116
'0:13.309',1377.218
'0:13.313',1377.207
'0:13.316',1377.190
'0:13.320',1377.228
'0:13.324',1377.385
'0:13.328',1377.782
'0:13.332',1378.542
'0:13.336',1379.688
'0:13.340',1381.148
'0:13.344',1382.779
'0:13.348',1384.379
'0:13.352',1385.731
'0:13.355',1386.637
'0:13.359',1386.919
'0:13.363',1386.393
'0:13.367',1384.968
'0:13.371',1382.772
'0:13.375',1380.169
'0:13.379',1377.587
'0:13.383',1375.308
'0:13.387',1373.363
'0:13.391',1371.670
'0:13.395',1370.196
'0:13.398',1368.990
'0:13.402',1368.014
'0:13.406',1367.171
'0:13.410',1366.418
'0:13.414',1365.808
'0:13.418',1365.449
'0:13.422',1365.401
'0:13.426',1365.683
'0:13.430',1366.296
'0:13.434',1367.195
'0:13.438',1368.296
'0:13.441',1369.488
'0:13.445',1370.645
'0:13.449',1371.666
'0:13.453',1372.541
'0:13.457',1373.367
'0:13.461',1374.287
'0:13.465',1375.440
'0:13.469',1376.932
'0:13.473',1378.803
'0:13.477',1381.006
'0:13.480',1383.354
'0:13.484',1385.581
'0:13.488',1387.428
'0:13.492',1388.832
'0:13.496',1389.961
'0:13.500',1391.066
'0:13.504',1392.289
'0:13.508',1393.610
'0:13.512',1394.959
'0:13.516',1396.349
'0:13.520',1397.795
'0:13.523',1399.214
'0:13.527',1400.479
'0:13.531',1401.527
'0:13.535',1402.312
'0:13.539',1402.716
'0:13.543',1402.716
'0:13.547',1402.447
'0:13.551',1402.176
'0:13.555',1402.071
'0:13.559',1402.102
'0:13.563',1402.141
'0:13.566',1402.183
'0:13.570',1402.360
'0:13.574',1402.778
'0:13.578',1403.420
'0:13.582',1404.214
'0:13.586',1405.120
'0:13.590',1406.023
'0:13.594',1406.720
'0:13.598',1407.037
'0:13.602',1406.950
'0:13.605',1406.553
'0:13.609',1405.988
'0:13.613',1405.399
'0:13.617',1404.883
'0:13.621',1404.476
'0:13.625',1404.211
'0:13.629',1404.200
'0:13.633',1404.535
'0:13.637',1405.186
'0:13.641',1406.054
'0:13.645',1407.082
'0:13.648',1408.232
'0:13.652',1409.445
'0:13.656',1410.609
'0:13.660',1411.595
'0:13.664',1412.313
'0:13.668',1412.818
'0:13.672',1413.212
'0:13.676',1413.560
'0:13.680',1413.818
'0:13.684',1413.895
'0:13.688',1413.742
'0:13.691',1413.404
'0:13.695',1412.999
'0:13.699',1412.654
'0:13.703',1412.421
'0:13.707',1412.302
'0:13.711',1412.282
'0:13.715',1412.383
'0:13.719',1412.658
'0:13.723',1413.142
'0:13.727',1413.822
'0:13.730',1414.637
'0:13.734',1415.526
'0:13.738',1416.425
'0:13.742',1417.254
'0:13.746',1417.962
'0:13.750',1418.495
'0:13.754',1418.864
'0:13.758',1419.154
'0:13.762',1419.338
'0:13.766',1419.286
'0:13.770',1418.917
'0:13.773',1418.345
'0:13.777',1417.801
'0:13.781',1417.442
'0:13.785',1417.345
'0:13.789',1417.582
'0:13.793',1418.119
'0:13.797',1418.680
'0:13.801',1418.816
'0:13.805',1418.178
'0:13.809',1416.707
'0:13.813',1414.613
'0:13.816',1412.198
'0:13.820',1409.790
'0:13.824',1407.678
'0:13.828',1406.016
'0:13.832',1404.789
'0:13.836',1403.981
'0:13.840',1403.695
'0:13.844',1404.054
'0:13.848',1405.002
'0:13.852',1406.288
'0:13.855',1407.574
'0:13.859',1408.650
'0:13.863',1409.536
'0:13.867',1410.347
'0:13.871',1411.132
'0:13.875',1411.783
'0:13.879',1412.121
'0:13.883',1412.024
'0:13.887',1411.515
'0:13.891',1410.699
'0:13.895',1409.675
'0:13.898',1408.532
'0:13.902',1407.358
'0:13.906',1406.249
'0:13.910',1405.281
'0:13.914',1404.472
'0:13.918',1403.820
'0:13.922',1403.259
'0:13.926',1402.705
'0:13.930',1402.043
'0:13.934',1401.179
'0:13.938',1400.123
'0:13.941',1399.029
'0:13.945',1398.078
'0:13.949',1397.381
'0:13.953',1396.962
'0:13.957',1396.750
'0:13.961',1396.628
'0:13.965',1396.475
'0:13.969',1396.206
'0:13.973',1395.753
'0:13.977',1395.122
'0:13.980',1394.443
'0:13.984',1393.878
'0:13.988',1393.516
'0:13.992',1393.317
'0:13.996',1393.147
'0:14.000',1392.868
'0:14.004',1392.397
'0:14.008',1391.655
'0:14.012',1390.603
'0:14.016',1389.320
'0:14.020',1388.003
'0:14.023',1386.815
'0:14.027',1385.842
'0:14.031',1385.145
'0:14.035',1384.793
'0:14.039',1384.856
'0:14.043',1385.389
'0:14.047',1386.390
'0:14.051',1387.745
'0:14.055',1389.244
'0:14.059',1390.620
'0:14.063',1391.606
'0:14.066',1392.000
'0:14.070',1391.794
'0:14.074',1391.219
'0:14.078',1390.610
'0:14.082',1390.164
'0:14.086',1389.941
'0:14.090',1389.954
'0:14.094',1390.198
'0:14.098',1390.571
'0:14.102',1390.948
'0:14.105',1391.240
'0:14.109',1391.387
'0:14.113',1391.268
'0:14.117',1390.794
'0:14.121',1389.927
'0:14.125',1388.724
'0:14.129',1387.316
'0:14.133',1385.874
'0:14.137',1384.490
'0:14.141',1383.225
'0:14.145',1382.145
'0:14.148',1381.249
'0:14.152',1380.441
'0:14.156',1379.709
'0:14.160',1379.225
'0:14.164',1379.190
'0:14.168',1379.601
'0:14.172',1380.218
'0:14.176',1380.751
'0:14.180',1381.103
'0:14.184',1381.361
'0:14.188',1381.629
'0:14.191',1381.901
'0:14.195',1382.114
'0:14.199',1382.229
'0:14.203',1382.229
'0:14.207',1382.096
'0:14.211',1381.835
'0:14.215',1381.490
'0:14.219',1381.110
'0:14.223',1380.626
'0:14.227',1379.908
'0:14.230',1378.963
'0:14.234',1378.026
'0:14.238',1377.420
'0:14.242',1377.343
'0:14.246',1377.709
'0:14.250',1378.138
'0:14.254',1378.148
'0:14.258',1377.468
'0:14.262',1376.183
'0:14.266',1374.646
'0:14.270',1373.245
'0:14.273',1372.241
'0:14.277',1371.694
'0:14.281',1371.506
'0:14.285',1371.530
'0:14.289',1371.666
'0:14.293',1371.858
'0:14.297',1372.158
'0:14.301',1372.666
'0:14.305',1373.419
'0:14.309',1374.332
'0:14.313',1375.283
'0:14.316',1376.137
'0:14.320',1376.782
'0:14.324',1377.148
'0:14.328',1377.228
'0:14.332',1377.106
'0:14.336',1376.946
'0:14.340',1376.876
'0:14.344',1376.900
'0:14.348',1376.935
'0:14.352',1376.942
'0:14.355',1377.026
'0:14.359',1377.392
'0:14.363',1378.186
'0:14.367',1379.389
'0:14.371',1380.817
'0:14.375',1382.257
'0:14.379',1383.581
'0:14.383',1384.745
'0:14.387',1385.745
'0:14.391',1386.574
'0:14.395',1387.229
'0:14.398',1387.724
'0:14.402',1388.090
'0:14.406',1388.376
'0:14.410',1388.599
'0:14.414',1388.742
'0:14.418',1388.759
'0:14.422',1388.627
'0:14.426',1388.372
'0:14.430',1388.062
'0:14.434',1387.717
'0:14.438',1387.268
'0:14.441',1386.658
'0:14.445',1385.881
'0:14.449',1384.964
'0:14.453',1383.905
'0:14.457',1382.724
'0:14.461',1381.500
'0:14.465',1380.343
'0:14.469',1379.336
'0:14.473',1378.479
'0:14.477',1377.705
'0:14.480',1376.904
'0:14.484',1375.973
'0:14.488',1374.778
'0:14.492',1373.259
'0:14.496',1371.604
'0:14.500',1370.206
'0:14.504',1369.471
'0:14.508',1369.621
'0:14.512',1370.638
'0:14.516',1372.290
'0:14.520',1374.168
'0:14.523',1375.845
'0:14.527',1377.015
'0:14.531',1377.566
'0:14.535',1377.528
'0:14.539',1377.001
'0:14.543',1376.113
'0:14.547',1374.987
'0:14.551',1373.761
'0:14.555',1372.590
'0:14.559',1371.638
'0:14.563',1371.004
'0:14.566',1370.708
'0:14.570',1370.771
'0:14.574',1371.189
'0:14.578',1371.844
'0:14.582',1372.524
'0:14.586',1373.060
'0:14.590',1373.388
'0:14.594',1373.510
'0:14.598',1373.409
'0:14.602',1373.036
'0:14.605',1372.409
'0:14.609',1371.611
'0:14.613',1370.799
'0:14.617',1370.150
'0:14.621',1369.826
'0:14.625',1369.899
'0:14.629',1370.346
'0:14.633',1371.060
'0:14.637',1371.882
'0:14.641',1372.628
'0:14.645',1373.182
'0:14.648',1373.572
'0:14.652',1373.862
'0:14.656',1374.064
'0:14.660',1374.120
'0:14.664',1373.876
'0:14.668',1373.172
'0:14.672',1371.907
'0:14.676',1370.095
'0:14.680',1367.854
'0:14.684',1365.383
'0:14.688',1362.954
'0:14.691',1360.923
'0:14.695',1359.644
'0:14.699',1359.382
'0:14.703',1360.254
'0:14.707',1362.247
'0:14.711',1365.181
'0:14.715',1368.732
'0:14.719',1372.468
'0:14.723',1375.925
'0:14.727',1378.601
'0:14.730',1380.044
'0:14.734',1380.044
'0:14.738',1378.699
'0:14.742',1376.413
'0:14.746',1373.771
'0:14.750',1371.346
'0:14.754',1369.523
'0:14.758',1368.443
'0:14.762',1368.080
'0:14.766',1368.324
'0:14.770',1369.018
'0:14.773',1369.913
'0:14.777',1370.694
'0:14.781',1371.036
'0:14.785',1370.718
'0:14.789',1369.781
'0:14.793',1368.554
'0:14.797',1367.502
'0:14.801',1367.018
'0:14.805',1367.255
'0:14.809',1368.087
'0:14.813',1369.192
'0:14.816',1370.269
'0:14.820',1371.213
'0:14.824',1372.036
'0:14.828',1372.736
'0:14.832',1373.248
'0:14.836',1373.485
'0:14.840',1373.454
'0:14.844',1373.245
'0:14.848',1373.001
'0:14.852',1372.855
'0:14.855',1372.903
'0:14.859',1373.172
'0:14.863',1373.667
'0:14.867',1374.437
'0:14.871',1375.454
'0:14.875',1376.587
'0:14.879',1377.681
'0:14.883',1378.622
'0:14.887',1379.305
'0:14.891',1379.639
'0:14.895',1379.570
'0:14.898',1379.085
'0:14.902',1378.246
'0:14.906',1377.186
'0:14.910',1376.071
'0:14.914',1375.043
'0:14.918',1374.214
'0:14.922',1373.632
'0:14.926',1373.283
'0:14.930',1373.078
'0:14.934',1373.001
'0:14.938',1373.151
'0:14.941',1373.611
'0:14.945',1374.374
'0:14.949',1375.381
'0:14.953',1376.479
'0:14.957',1377.385
'0:14.961',1377.869
'0:14.965',1377.974
'0:14.969',1377.967
'0:14.973',1378.131
'0:14.977',1378.601
'0:14.980',1379.420
'0:14.984',1380.587
'0:14.988',1382.044
'0:14.992',1383.595
'0:14.996',1384.922
'0:15.000',1385.679
'0:15.004',1385.717
'0:15.008',1385.163
'0:15.012',1384.333
'0:15.016',1383.553
'0:15.020',1383.062
'0:15.023',1382.971
'0:15.027',1383.288
'0:15.031',1383.975
'0:15.035',1385.010
'0:15.039',1386.424
'0:15.043',1388.257
'0:15.047',1390.529
'0:15.051',1393.241
'0:15.055',1396.342
'0:15.059',1399.642
'0:15.063',1402.775
'0:15.066',1405.291
'0:15.070',1406.884
'0:15.074',1407.581
'0:15.078',1407.682
'0:15.082',1407.511
'0:15.086',1407.218
'0:15.090',1406.814
'0:15.094',1406.291
'0:15.098',1405.591
'0:15.102',1404.587
'0:15.105',1403.197
'0:15.109',1401.423
'0:15.113',1399.329
'0:15.117',1397.025
'0:15.121',1394.715
'0:15.125',1392.582
'0:15.129',1390.742
'0:15.133',1389.285
'0:15.137',1388.278
'0:15.141',1387.731
'0:15.145',1387.578
'0:15.148',1387.721
'0:15.152',1388.034
'0:15.156',1388.383
'0:15.160',1388.634
'0:15.164',1388.662
'0:15.168',1388.331
'0:15.172',1387.599
'0:15.176',1386.592
'0:15.180',1385.553
'0:15.184',1384.710
'0:15.188',1384.205
'0:15.191',1384.076
'0:15.195',1384.264
'0:15.199',1384.630
'0:15.203',1385.013
'0:15.207',1385.341
'0:15.211',1385.682
'0:15.215',1386.201
'0:15.219',1387.052
'0:15.223',1388.271
'0:15.227',1389.756
'0:15.230',1391.268
'0:15.234',1392.540
'0:15.238',1393.429
'0:15.242',1394.004
'0:15.246',1394.412
'0:15.250',1394.722
'0:15.254',1394.969
'0:15.258',1395.216
'0:15.262',1395.523
'0:15.266',1395.920
'0:15.270',1396.440
'0:15.273',1397.084
'0:15.277',1397.792
'0:15.281',1398.482
'0:15.285',1399.102
'0:15.289',1399.632
'0:15.293',1400.067
'0:15.297',1400.377
'0:15.301',1400.517
'0:15.305',1400.423
'0:15.309',1400.113
'0:15.313',1399.684
'0:15.316',1399.301
'0:15.320',1399.119
'0:15.324',1399.210
'0:15.328',1399.517
'0:15.332',1399.911
'0:15.336',1400.287
'0:15.340',1400.653
'0:15.344',1401.071
'0:15.348',1401.538
'0:15.352',1401.949
'0:15.355',1402.172
'0:15.359',1402.102
'0:15.363',1401.667
'0:15.367',1400.865
'0:15.371',1399.747
'0:15.375',1398.388
'0:15.379',1396.889
'0:15.383',1395.370
'0:15.387',1393.931
'0:15.391',1392.690
'0:15.395',1391.749
'0:15.398',1391.181
'0:15.402',1391.021
'0:15.406',1391.303
'0:15.410',1392.017
'0:15.414',1393.045
'0:15.418',1394.244
'0:15.422',1395.516
'0:15.426',1396.746
'0:15.430',1397.708
'0:15.434',1398.091
'0:15.438',1397.624
'0:15.441',1396.255
'0:15.445',1394.213
'0:15.449',1391.923
'0:15.453',1389.721
'0:15.457',1387.689
'0:15.461',1385.731
'0:15.465',1383.696
'0:15.469',1381.525
'0:15.473',1379.389
'0:15.477',1377.685
'0:15.480',1376.775
'0:15.484',1376.820
'0:15.488',1377.758
'0:15.492',1379.305
'0:15.496',1381.006
'0:15.500',1382.417
'0:15.504',1383.305
'0:15.508',1383.734
'0:15.512',1383.901
'0:15.516',1383.961
'0:15.520',1384.009
'0:15.523',1384.135
'0:15.527',1384.337
'0:15.531',1384.438
'0:15.535',1384.239
'0:15.539',1383.699
'0:15.543',1382.842
'0:15.547',1381.720
'0:15.551',1380.399
'0:15.555',1379.026
'0:15.559',1377.841
'0:15.563',1377.054
'0:15.566',1376.670
'0:15.570',1376.489
'0:15.574',1376.336
'0:15.578',1376.242
'0:15.582',1376.381
'0:15.586',1376.859
'0:15.590',1377.597
'0:15.594',1378.423
'0:15.598',1379.221
'0:15.602',1379.883
'0:15.605',1380.239
'0:15.609',1380.099
'0:15.613',1379.382
'0:15.617',1378.169
'0:15.621',1376.719
'0:15.625',1375.287
'0:15.629',1374.005
'0:15.633',1372.935
'0:15.637',1372.098
'0:15.641',1371.492
'0:15.645',1371.126
'0:15.648',1371.018
'0:15.652',1371.217
'0:15.656',1371.736
'0:15.660',1372.583
'0:15.664',1373.743
'0:15.668',1375.214
'0:15.672',1377.022
'0:15.676',1379.186
'0:15.680',1381.671
'0:15.684',1384.299
'0:15.688',1386.794
'0:15.691',1388.916
'0:15.695',1390.550
'0:15.699',1391.697
'0:15.703',1392.411
'0:15.707',1392.728
'0:15.711',1392.648
'0:15.715',1392.195
'0:15.719',1391.467
'0:15.723',1390.589
'0:15.727',1389.693
'0:15.730',1388.899
'0:15.734',1388.275
'0:15.738',1387.878
'0:15.742',1387.728
'0:15.746',1387.714
'0:15.750',1387.512
'0:15.754',1386.752
'0:15.758',1385.240
'0:15.762',1383.058
'0:15.766',1380.493
'0:15.770',1377.866
'0:15.773',1375.412
'0:15.777',1373.280
'0:15.781',1371.482
'0:15.785',1369.906
'0:15.789',1368.425
'0:15.793',1366.962
'0:15.797',1365.564
'0:15.801',1364.460
'0:15.805',1363.930
'0:15.809',1364.143
'0:15.813',1365.052
'0:15.816',1366.394
'0:15.820',1367.763
'0:15.824',1368.791
'0:15.828',1369.349
'0:15.832',1369.513
'0:15.836',1369.453
'0:15.840',1369.335
'0:15.844',1369.283
'0:15.848',1369.349
'0:15.852',1369.471
'0:15.855',1369.481
'0:15.859',1369.209
'0:15.863',1368.680
'0:15.867',1368.136
'0:15.871',1367.871
'0:15.875',1367.972
'0:15.879',1368.248
'0:15.883',1368.380
'0:15.887',1368.060
'0:15.891',1367.178
'0:15.895',1365.882
'0:15.898',1364.456
'0:15.902',1363.136
'0:15.906',1362.020
'0:15.910',1361.188
'0:15.914',1360.822
'0:15.918',1361.135
'0:15.922',1362.160
'0:15.926',1363.693
'0:15.930',1365.307
'0:15.934',1366.505
'0:15.938',1366.927
'0:15.941',1366.495
'0:15.945',1365.394
'0:15.949',1363.996
'0:15.953',1362.714
'0:15.957',1361.874
'0:15.961',1361.553
'0:15.965',1361.595
'0:15.969',1361.742
'0:15.973',1361.846
'0:15.977',1361.909
'0:15.980',1361.905
'0:15.984',1361.658
'0:15.988',1360.923
'0:15.992',1359.640
'0:15.996',1357.988
'0:16.000',1356.211
'0:16.004',1354.472
'0:16.008',1352.793
'0:16.012',1351.200
'0:16.016',1349.886
'0:16.020',1349.196
'0:16.023',1349.482
'0:16.027',1350.946
'0:16.031',1353.612
'0:16.035',1357.285
'0:16.039',1361.529
'0:16.043',1365.728
'0:16.047',1369.283
'0:16.051',1371.767
'0:16.055',1372.942
'0:16.059',1372.740
'0:16.063',1371.231
'0:16.066',1368.641
'0:16.070',1365.369
'0:16.074',1361.926
'0:16.078',1358.842
'0:16.082',1356.574
'0:16.086',1355.396
'0:16.090',1355.309
'0:16.094',1356.068
'0:16.098',1357.326
'0:16.102',1358.762
'0:16.105',1360.139
'0:16.109',1361.316
'0:16.113',1362.233
'0:16.117',1362.797
'0:16.121',1362.912
'0:16.125',1362.606
'0:16.129',1362.059
'0:16.133',1361.494
'0:16.137',1360.968
'0:16.141',1360.393
'0:16.145',1359.720
'0:16.148',1359.100
'0:16.152',1358.783
'0:16.156',1358.874
'0:16.160',1359.243
'0:16.164',1359.703
'0:16.168',1360.173
'0:16.172',1360.647
'0:16.176',1361.104
'0:16.180',1361.526
'0:16.184',1361.867
'0:16.188',1362.087
'0:16.191',1362.184
'0:16.195',1362.139
'0:16.199',1361.912
'0:16.203',1361.557
'0:16.207',1361.177
'0:16.211',1360.863
'0:16.215',1360.654
'0:16.219',1360.525
'0:16.223',1360.414
'0:16.227',1360.278
'0:16.230',1360.118
'0:16.234',1359.950
'0:16.238',1359.828
'0:16.242',1359.814
'0:16.246',1359.929
'0:16.250',1360.184
'0:16.254',1360.553
'0:16.258',1360.975
'0:16.262',1361.365
'0:16.266',1361.703
'0:16.270',1362.055
'0:16.273',1362.491
'0:16.277',1362.996
'0:16.281',1363.439
'0:16.285',1363.707
'0:16.289',1363.819
'0:16.293',1363.853
'0:16.297',1363.850
'0:16.301',1363.801
'0:16.305',1363.665
'0:16.309',1363.411
'0:16.313',1363.122
'0:16.316',1363.014
'0:16.320',1363.230
'0:16.324',1363.683
'0:16.328',1364.101
'0:16.332',1364.195
'0:16.336',1363.843
'0:16.340',1363.139
'0:16.344',1362.379
'0:16.348',1361.895
'0:16.352',1361.860
'0:16.355',1362.257
'0:16.359',1362.895
'0:16.363',1363.547
'0:16.367',1364.101
'0:16.371',1364.641
'0:16.375',1365.324
'0:16.379',1366.199
'0:16.383',1367.094
'0:16.387',1367.666
'0:16.391',1367.575
'0:16.395',1366.666
'0:16.398',1365.090
'0:16.402',1363.278
'0:16.406',1361.721
'0:16.410',1360.766
'0:16.414',1360.581
'0:16.418',1361.146
'0:16.422',1362.313
'0:16.426',1363.864
'0:16.430',1365.596
'0:16.434',1367.397
'0:16.438',1369.244
'0:16.441',1371.074
'0:16.445',1372.722
'0:16.449',1374.046
'0:16.453',1375.071
'0:16.457',1375.960
'0:16.461',1376.820
'0:16.465',1377.608
'0:16.469',1378.207
'0:16.473',1378.542
'0:16.477',1378.667
'0:16.480',1378.719
'0:16.484',1378.737
'0:16.488',1378.625
'0:16.492',1378.329
'0:16.496',1377.970
'0:16.500',1377.786
'0:16.504',1377.911
'0:16.508',1378.294
'0:16.512',1378.768
'0:16.516',1379.183
'0:16.520',1379.403
'0:16.523',1379.312
'0:16.527',1378.834
'0:16.531',1378.005
'0:16.535',1377.026
'0:16.539',1376.162
'0:16.543',1375.583
'0:16.547',1375.350
'0:16.551',1375.489
'0:16.555',1375.994
'0:16.559',1376.758
'0:16.563',1377.580
'0:16.566',1378.256
'0:16.570',1378.598
'0:16.574',1378.486
'0:16.578',1377.918
'0:16.582',1376.949
'0:16.586',1375.719
'0:16.590',1374.499
'0:16.594',1373.635
'0:16.598',1373.353
'0:16.602',1373.733
'0:16.605',1374.757
'0:16.609',1376.263
'0:16.613',1377.974
'0:16.617',1379.622
'0:16.621',1381.061
'0:16.625',1382.257
'0:16.629',1383.218
'0:16.633',1383.936
'0:16.637',1384.386
'0:16.641',1384.602
'0:16.645',1384.668
'0:16.648',1384.644
'0:16.652',1384.595
'0:16.656',1384.591
'0:16.660',1384.727
'0:16.664',1385.111
'0:16.668',1385.801
'0:16.672',1386.700
'0:16.676',1387.665
'0:16.680',1388.609
'0:16.684',1389.491
'0:16.688',1390.275
'0:16.691',1390.840
'0:16.695',1390.979
'0:16.699',1390.585
'0:16.703',1389.801
'0:16.707',1388.906
'0:16.711',1388.101
'0:16.715',1387.386
'0:16.719',1386.748
'0:16.723',1386.344
'0:16.727',1386.491
'0:16.730',1387.498
'0:16.734',1389.446
'0:16.738',1392.115
'0:16.742',1395.007
'0:16.746',1397.544
'0:16.750',1399.276
'0:16.754',1399.935
'0:16.758',1399.409
'0:16.762',1397.733
'0:16.766',1395.088
'0:16.770',1391.784
'0:16.773',1388.236
'0:16.777',1384.853
'0:16.781',1382.016
'0:16.785',1380.065
'0:16.789',1379.190
'0:16.793',1379.281
'0:16.797',1379.974
'0:16.801',1380.821
'0:16.805',1381.528
'0:16.809',1381.992
'0:16.813',1382.149
'0:16.816',1381.926
'0:16.820',1381.298
'0:16.824',1380.319
'0:16.828',1379.078
'0:16.832',1377.650
'0:16.836',1376.057
'0:16.840',1374.360
'0:16.844',1372.701
'0:16.848',1371.276
'0:16.852',1370.269
'0:16.855',1369.788
'0:16.859',1369.812
'0:16.863',1370.196
'0:16.867',1370.795
'0:16.871',1371.551
'0:16.875',1372.468
'0:16.879',1373.538
'0:16.883',1374.761
'0:16.887',1376.172
'0:16.891',1377.698
'0:16.895',1379.176
'0:16.898',1380.399
'0:16.902',1381.249
'0:16.906',1381.734
'0:16.910',1382.013
'0:16.914',1382.379
'0:16.918',1383.110
'0:16.922',1384.309
'0:16.926',1385.815
'0:16.930',1387.257
'0:16.934',1388.264
'0:16.938',1388.609
'0:16.941',1388.313
'0:16.945',1387.651
'0:16.949',1387.027
'0:16.953',1386.773
'0:16.957',1386.992
'0:16.961',1387.564
'0:16.965',1388.278
'0:16.969',1389.041
'0:16.973',1389.909
'0:16.977',1390.916
'0:16.980',1392.000
'0:16.984',1393.021
'0:16.988',1393.784
'0:16.992',1394.014
'0:16.996',1393.492
'0:17.000',1392.167
'0:17.004',1390.132
'0:17.008',1387.477
'0:17.012',1384.309
'0:17.016',1380.859
'0:17.020',1377.458
'0:17.023',1374.402
'0:17.027',1371.893
'0:17.031',1370.021
'0:17.035',1368.763
'0:17.039',1368.032
'0:17.043',1367.721
'0:17.047',1367.767
'0:17.051',1368.161
'0:17.055',1369.004
'0:17.059',1370.426
'0:17.063',1372.499
'0:17.066',1375.186
'0:17.070',1378.315
'0:17.074',1381.584
'0:17.078',1384.665
'0:17.082',1387.264
'0:17.086',1389.083
'0:17.090',1389.878
'0:17.094',1389.564
'0:17.098',1388.299
'0:17.102',1386.435
'0:17.105',1384.379
'0:17.109',1382.347
'0:17.113',1380.378
'0:17.117',1378.458
'0:17.121',1376.639
'0:17.125',1375.029
'0:17.129',1373.743
'0:17.133',1372.865
'0:17.137',1372.391
'0:17.141',1372.297
'0:17.145',1372.572
'0:17.148',1373.234
'0:17.152',1374.315
'0:17.156',1375.750
'0:17.160',1377.413
'0:17.164',1379.159
'0:17.168',1380.800
'0:17.172',1382.030
'0:17.176',1382.626
'0:17.180',1382.591
'0:17.184',1382.089
'0:17.188',1381.274
'0:17.191',1380.197
'0:17.195',1378.953
'0:17.199',1377.765
'0:17.203',1376.880
'0:17.207',1376.392
'0:17.211',1376.231
'0:17.215',1376.318
'0:17.219',1376.545
'0:17.223',1376.765
'0:17.227',1376.838
'0:17.230',1376.688
'0:17.234',1376.388
'0:17.238',1376.137
'0:17.242',1376.127
'0:17.246',1376.357
'0:17.250',1376.681
'0:17.254',1377.026
'0:17.258',1377.444
'0:17.262',1377.991
'0:17.266',1378.622
'0:17.270',1379.239
'0:17.273',1379.720
'0:17.277',1379.932
'0:17.281',1379.761
'0:17.285',1379.173
'0:17.289',1378.242
'0:17.293',1377.116
'0:17.297',1375.946
'0:17.301',1374.810
'0:17.305',1373.674
'0:17.309',1372.489
'0:17.313',1371.342
'0:17.316',1370.429
'0:17.320',1369.854
'0:17.324',1369.513
'0:17.328',1369.122
'0:17.332',1368.394
'0:17.336',1367.178
'0:17.340',1365.554
'0:17.344',1363.752
'0:17.348',1362.090
'0:17.352',1360.895
'0:17.355',1360.414
'0:17.359',1360.734
'0:17.363',1361.759
'0:17.367',1363.303
'0:17.371',1365.178
'0:17.375',1367.220
'0:17.379',1369.255
'0:17.383',1371.070
'0:17.387',1372.433
'0:17.391',1373.137
'0:17.395',1373.067
'0:17.398',1372.276
'0:17.402',1370.952
'0:17.406',1369.370
'0:17.410',1367.694
'0:17.414',1365.861
'0:17.418',1363.634
'0:17.422',1360.891
'0:17.426',1357.786
'0:17.430',1354.695
'0:17.434',1352.005
'0:17.438',1349.949
'0:17.441',1348.600
'0:17.445',1347.907
'0:17.449',1347.754
'0:17.453',1347.977
'0:17.457',1348.384
'0:17.461',1348.733
'0:17.465',1348.855
'0:17.469',1348.796
'0:17.473',1348.851
'0:17.477',1349.343
'0:17.480',1350.451
'0:17.484',1352.186
'0:17.488',1354.396
'0:17.492',1356.811
'0:17.496',1359.083
'0:17.500',1360.891
'0:17.504',1362.041
'0:17.508',1362.599
'0:17.512',1362.843
'0:17.516',1363.080
'0:17.520',1363.411
'0:17.523',1363.690
'0:17.527',1363.724
'0:17.531',1363.512
'0:17.535',1363.177
'0:17.539',1362.794
'0:17.543',1362.376
'0:17.547',1361.954
'0:17.551',1361.546
'0:17.555',1361.100
'0:17.559',1360.567
'0:17.563',1359.961
'0:17.566',1359.260
'0:17.570',1358.330
'0:17.574',1357.082
'0:17.578',1355.685
'0:17.582',1354.514
'0:17.586',1353.932
'0:17.590',1354.180
'0:17.594',1355.371
'0:17.598',1357.494
'0:17.602',1360.396
'0:17.605',1363.829
'0:17.609',1367.572
'0:17.613',1371.440
'0:17.617',1375.224
'0:17.621',1378.604
'0:17.625',1381.215
'0:17.629',1382.751
'0:17.633',1383.075
'0:17.637',1382.204
'0:17.641',1380.277
'0:17.645',1377.566
'0:17.648',1374.454
'0:17.652',1371.367
'0:17.656',1368.631
'0:17.660',1366.477
'0:17.664',1365.056
'0:17.668',1364.400
'0:17.672',1364.407
'0:17.676',1364.874
'0:17.680',1365.606
'0:17.684',1366.422
'0:17.688',1367.223
'0:17.691',1367.990
'0:17.695',1368.739
'0:17.699',1369.415
'0:17.703',1369.903
'0:17.707',1370.182
'0:17.711',1370.335
'0:17.715',1370.398
'0:17.719',1370.339
'0:17.723',1370.189
'0:17.727',1370.018
'0:17.730',1369.868
'0:17.734',1369.743
'0:17.738',1369.649
'0:17.742',1369.572
'0:17.746',1369.523
'0:17.750',1369.527
'0:17.754',1369.568
'0:17.758',1369.589
'0:17.762',1369.558
'0:17.766',1369.450
'0:17.770',1369.265
'0:17.773',1369.035
'0:17.777',1368.837
'0:17.781',1368.830
'0:17.785',1369.199
'0:17.789',1369.997
'0:17.793',1371.074
'0:17.797',1372.210
'0:17.801',1373.217
'0:17.805',1373.952
'0:17.809',1374.360
'0:17.813',1374.458
'0:17.816',1374.329
'0:17.820',1374.140
'0:17.824',1374.067
'0:17.828',1374.196
'0:17.832',1374.573
'0:17.836',1375.158
'0:17.840',1375.785
'0:17.844',1376.197
'0:17.848',1376.249
'0:17.852',1375.991
'0:17.855',1375.527
'0:17.859',1374.956
'0:17.863',1374.377
'0:17.867',1373.890
'0:17.871',1373.517
'0:17.875',1373.294
'0:17.879',1373.290
'0:17.883',1373.562
'0:17.887',1374.064
'0:17.891',1374.695
'0:17.895',1375.392
'0:17.898',1376.099
'0:17.902',1376.716
'0:17.906',1377.186
'0:17.910',1377.531
'0:17.914',1377.796
'0:17.918',1377.984
'0:17.922',1378.145
'0:17.926',1378.368
'0:17.930',1378.625
'0:17.934',1378.723
'0:17.938',1378.441
'0:17.941',1377.758
'0:17.945',1376.897
'0:17.949',1376.169
'0:17.953',1375.764
'0:17.957',1375.684
'0:17.961',1375.845
'0:17.965',1376.270
'0:17.969',1377.144
'0:17.973',1378.653
'0:17.977',1380.779
'0:17.980',1383.302
'0:17.984',1385.870
'0:17.988',1388.069
'0:17.992',1389.582
'0:17.996',1390.334
'0:18.000',1390.491
'0:18.004',1390.247
'0:18.008',1389.711
'0:18.012',1389.010
'0:18.016',1388.362
'0:18.020',1387.954
'0:18.023',1387.818
'0:18.027',1387.857
'0:18.031',1387.972
'0:18.035',1388.177
'0:18.039',1388.561
'0:18.043',1389.191
'0:18.047',1390.101
'0:18.051',1391.310
'0:18.055',1392.739
'0:18.059',1394.087
'0:18.063',1395.032
'0:18.066',1395.408
'0:18.070',1395.185
'0:18.074',1394.279
'0:18.078',1392.603
'0:18.082',1390.275
'0:18.086',1387.661
'0:18.090',1385.222
'0:18.094',1383.333
'0:18.098',1382.208
'0:18.102',1381.932
'0:18.105',1382.518
'0:18.109',1383.926
'0:18.113',1386.072
'0:18.117',1388.811
'0:18.121',1391.941
'0:18.125',1395.203
'0:18.129',1398.262
'0:18.133',1400.827
'0:18.137',1402.778
'0:18.141',1404.152
'0:18.145',1404.998
'0:18.148',1405.378
'0:18.152',1405.357
'0:18.156',1405.068
'0:18.160',1404.730
'0:18.164',1404.549
'0:18.168',1404.625
'0:18.172',1404.939
'0:18.176',1405.423
'0:18.180',1406.068
'0:18.184',1406.995
'0:18.188',1408.379
'0:18.191',1410.253
'0:18.195',1412.417
'0:18.199',1414.477
'0:18.203',1416.021
'0:18.207',1416.854
'0:18.211',1417.080
'0:18.215',1416.948
'0:18.219',1416.669
'0:18.223',1416.286
'0:18.227',1415.738
'0:18.230',1415.021
'0:18.234',1414.243
'0:18.238',1413.473
'0:18.242',1412.647
'0:18.246',1411.717
'0:18.250',1410.762
'0:18.254',1409.915
'0:18.258',1409.225
'0:18.262',1408.692
'0:18.266',1408.417
'0:18.270',1408.570
'0:18.273',1409.208
'0:18.277',1410.194
'0:18.281',1411.250
'0:18.285',1412.038
'0:18.289',1412.299
'0:18.293',1411.978
'0:18.297',1411.208
'0:18.301',1410.166
'0:18.305',1408.954
'0:18.309',1407.584
'0:18.313',1406.100
'0:18.316',1404.598
'0:18.320',1403.211
'0:18.324',1402.005
'0:18.328',1400.959
'0:18.332',1400.001
'0:18.336',1399.064
'0:18.340',1398.133
'0:18.344',1397.269
'0:18.348',1396.516
'0:18.352',1395.879
'0:18.355',1395.359
'0:18.359',1394.962
'0:18.363',1394.701
'0:18.367',1394.631
'0:18.371',1394.802
'0:18.375',1395.182
'0:18.379',1395.635
'0:18.383',1395.987
'0:18.387',1396.081
'0:18.391',1395.844
'0:18.395',1395.325
'0:18.398',1394.725
'0:18.402',1394.310
'0:18.406',1394.241
'0:18.410',1394.492
'0:18.414',1394.885
'0:18.418',1395.227
'0:18.422',1395.440
'0:18.426',1395.537
'0:18.430',1395.520
'0:18.434',1395.387
'0:18.438',1395.192
'0:18.441',1394.993
'0:18.445',1394.830
'0:18.449',1394.732
'0:18.453',1394.666
'0:18.457',1394.530
'0:18.461',1394.269
'0:18.465',1393.924
'0:18.469',1393.579
'0:18.473',1393.293
'0:18.477',1393.087
'0:18.480',1392.976
'0:18.484',1392.962
'0:18.488',1393.045
'0:18.492',1393.227
'0:18.496',1393.457
'0:18.500',1393.666
'0:18.504',1393.781
'0:18.508',1393.708
'0:18.512',1393.331
'0:18.516',1392.558
'0:18.520',1391.345
'0:18.523',1389.756
'0:18.527',1387.916
'0:18.531',1386.020
'0:18.535',1384.288
'0:18.539',1382.870
'0:18.543',1381.831
'0:18.547',1381.208
'0:18.551',1380.999
'0:18.555',1381.194
'0:18.559',1381.817
'0:18.563',1382.804
'0:18.566',1383.915
'0:18.570',1384.828
'0:18.574',1385.267
'0:18.578',1385.034
'0:18.582',1384.152
'0:18.586',1382.901
'0:18.590',1381.591
'0:18.594',1380.403
'0:18.598',1379.420
'0:18.602',1378.768
'0:18.605',1378.542
'0:18.609',1378.709
'0:18.613',1379.166
'0:18.617',1379.754
'0:18.621',1380.319
'0:18.625',1380.723
'0:18.629',1380.894
'0:18.633',1380.814
'0:18.637',1380.493
'0:18.641',1379.946
'0:18.645',1379.214
'0:18.648',1378.378
'0:18.652',1377.594
'0:18.656',1377.061
'0:18.660',1376.880
'0:18.664',1376.981
'0:18.668',1377.172
'0:18.672',1377.287
'0:18.676',1377.273
'0:18.680',1377.242
'0:18.684',1377.336
'0:18.688',1377.636
'0:18.691',1378.120
'0:18.695',1378.681
'0:18.699',1379.169
'0:18.703',1379.430
'0:18.707',1379.357
'0:18.711',1378.963
'0:18.715',1378.343
'0:18.719',1377.608
'0:18.723',1376.845
'0:18.727',1376.137
'0:18.730',1375.566
'0:18.734',1375.294
'0:18.738',1375.517
'0:18.742',1376.312
'0:18.746',1377.507
'0:18.750',1378.719
'0:18.754',1379.535
'0:18.758',1379.789
'0:18.762',1379.667
'0:18.766',1379.514
'0:18.770',1379.643
'0:18.773',1380.256
'0:18.777',1381.420
'0:18.781',1383.023
'0:18.785',1384.759
'0:18.789',1386.205
'0:18.793',1387.010
'0:18.797',1386.954
'0:18.801',1385.978
'0:18.805',1384.205
'0:18.809',1381.922
'0:18.813',1379.458
'0:18.816',1377.162
'0:18.820',1375.367
'0:18.824',1374.315
'0:18.828',1374.130
'0:18.832',1374.785
'0:18.836',1376.162
'0:18.840',1378.050
'0:18.844',1380.183
'0:18.848',1382.274
'0:18.852',1384.072
'0:18.855',1385.428
'0:18.859',1386.264
'0:18.863',1386.525
'0:18.867',1386.219
'0:18.871',1385.487
'0:18.875',1384.511
'0:18.879',1383.344
'0:18.883',1381.912
'0:18.887',1380.225
'0:18.891',1378.503
'0:18.895',1377.078
'0:18.898',1376.259
'0:18.902',1376.190
'0:18.906',1376.838
'0:18.910',1377.981
'0:18.914',1379.298
'0:18.918',1380.504
'0:18.922',1381.472
'0:18.926',1382.201
'0:18.930',1382.682
'0:18.934',1382.884
'0:18.938',1382.772
'0:18.941',1382.358
'0:18.945',1381.706
'0:18.949',1380.957
'0:18.953',1380.242
'0:18.957',1379.681
'0:18.961',1379.347
'0:18.965',1379.214
'0:18.969',1379.148
'0:18.973',1378.967
'0:18.977',1378.528
'0:18.980',1377.820
'0:18.984',1376.984
'0:18.988',1376.113
'0:18.992',1375.179
'0:18.996',1374.210
'0:19.000',1373.332
'0:19.004',1372.646
'0:19.008',1372.140
'0:19.012',1371.781
'0:19.016',1371.509
'0:19.020',1371.199
'0:19.023',1370.785
'0:19.027',1370.314
'0:19.031',1369.861
'0:19.035',1369.495
'0:19.039',1369.373
'0:19.043',1369.614
'0:19.047',1370.182
'0:19.051',1370.952
'0:19.055',1371.921
'0:19.059',1373.200
'0:19.063',1374.757
'0:19.066',1376.263
'0:19.070',1377.225
'0:19.074',1377.242
'0:19.078',1376.179
'0:19.082',1374.161
'0:19.086',1371.489
'0:19.090',1368.495
'0:19.094',1365.481
'0:19.098',1362.731
'0:19.102',1360.518
'0:19.105',1359.086
'0:19.109',1358.543
'0:19.113',1358.825
'0:19.117',1359.717
'0:19.121',1360.815
'0:19.125',1361.630
'0:19.129',1361.717
'0:19.133',1360.856
'0:19.137',1359.100
'0:19.141',1356.765
'0:19.145',1354.322
'0:19.148',1352.242
'0:19.152',1350.869
'0:19.156',1350.461
'0:19.160',1351.169
'0:19.164',1352.991
'0:19.168',1355.727
'0:19.172',1358.975
'0:19.176',1362.233
'0:19.180',1365.094
'0:19.184',1367.411
'0:19.188',1369.213
'0:19.191',1370.468
'0:19.195',1370.969
'0:19.199',1370.513
'0:19.203',1369.143
'0:19.207',1367.213
'0:19.211',1365.223
'0:19.215',1363.602
'0:19.219',1362.508
'0:19.223',1361.867
'0:19.227',1361.560
'0:19.230',1361.581
'0:19.234',1361.926
'0:19.238',1362.459
'0:19.242',1363.010
'0:19.246',1363.554
'0:19.250',1364.223
'0:19.254',1365.108
'0:19.258',1366.066
'0:19.262',1366.795
'0:19.266',1367.056
'0:19.270',1366.920
'0:19.273',1366.707
'0:19.277',1366.777
'0:19.281',1367.321
'0:19.285',1368.269
'0:19.289',1369.377
'0:19.293',1370.408
'0:19.297',1371.217
'0:19.301',1371.722
'0:19.305',1371.903
'0:19.309',1371.802
'0:19.313',1371.429
'0:19.316',1370.732
'0:19.320',1369.687
'0:19.324',1368.418
'0:19.328',1367.059
'0:19.332',1365.652
'0:19.336',1364.254
'0:19.340',1363.080
'0:19.344',1362.383
'0:19.348',1362.320
'0:19.352',1362.895
'0:19.355',1364.007
'0:19.359',1365.491
'0:19.363',1367.209
'0:19.367',1369.081
'0:19.371',1371.070
'0:19.375',1373.210
'0:19.379',1375.656
'0:19.383',1378.573
'0:19.387',1381.957
'0:19.391',1385.557
'0:19.395',1388.888
'0:19.398',1391.401
'0:19.402',1392.704
'0:19.406',1392.704
'0:19.410',1391.610
'0:19.414',1389.864
'0:19.418',1388.017
'0:19.422',1386.539
'0:19.426',1385.644
'0:19.430',1385.271
'0:19.434',1385.247
'0:19.438',1385.529
'0:19.441',1386.184
'0:19.445',1387.222
'0:19.449',1388.505
'0:19.453',1389.864
'0:19.457',1391.199
'0:19.461',1392.470
'0:19.465',1393.711
'0:19.469',1394.980
'0:19.473',1396.300
'0:19.477',1397.516
'0:19.480',1398.314
'0:19.484',1398.409
'0:19.488',1397.733
'0:19.492',1396.527
'0:19.496',1395.258
'0:19.500',1394.391
'0:19.504',1394.126
'0:19.508',1394.342
'0:19.512',1394.701
'0:19.516',1394.791
'0:19.520',1394.303
'0:19.523',1393.157
'0:19.527',1391.631
'0:19.531',1390.237
'0:19.535',1389.477
'0:19.539',1389.634
'0:19.543',1390.752
'0:19.547',1392.606
'0:19.551',1394.718
'0:19.555',1396.506
'0:19.559',1397.558
'0:19.563',1397.837
'0:19.566',1397.635
'0:19.570',1397.360
'0:19.574',1397.283
'0:19.578',1397.471
'0:19.582',1397.757
'0:19.586',1397.896
'0:19.590',1397.764
'0:19.594',1397.374
'0:19.598',1396.816
'0:19.602',1396.248
'0:19.605',1395.823
'0:19.609',1395.565
'0:19.613',1395.408
'0:19.617',1395.373
'0:19.621',1395.614
'0:19.625',1396.290
'0:19.629',1397.401
'0:19.633',1398.740
'0:19.637',1399.970
'0:19.641',1400.792
'0:19.645',1401.123
'0:19.648',1401.095
'0:19.652',1400.911
'0:19.656',1400.649
'0:19.660',1400.203
'0:19.664',1399.367
'0:19.668',1398.081
'0:19.672',1396.502
'0:19.676',1394.934
'0:19.680',1393.673
'0:19.684',1392.871
'0:19.688',1392.544
'0:19.691',1392.641
'0:19.695',1393.195
'0:19.699',1394.269
'0:19.703',1395.819
'0:19.707',1397.638
'0:19.711',1399.356
'0:19.715',1400.597
'0:19.719',1401.182
'0:19.723',1401.273
'0:19.727',1401.200
'0:19.730',1401.231
'0:19.734',1401.412
'0:19.738',1401.677
'0:19.742',1401.977
'0:19.746',1402.339
'0:19.750',1402.796
'0:19.754',1403.319
'0:19.758',1403.789
'0:19.762',1404.050
'0:19.766',1403.925
'0:19.770',1403.347
'0:19.773',1402.406
'0:19.777',1401.270
'0:19.781',1400.092
'0:19.785',1398.970
'0:19.789',1397.956
'0:19.793',1397.119
'0:19.797',1396.506
'0:19.801',1396.109
'0:19.805',1395.889
'0:19.809',1395.833
'0:19.813',1395.920
'0:19.816',1396.130
'0:19.820',1396.391
'0:19.824',1396.596
'0:19.828',1396.656
'0:19.832',1396.534
'0:19.836',1396.241
'0:19.840',1395.785
'0:19.844',1395.213
'0:19.848',1394.547
'0:19.852',1393.760
'0:19.855',1392.805
'0:19.859',1391.686
'0:19.863',1390.425
'0:19.867',1389.010
'0:19.871',1387.442
'0:19.875',1385.818
'0:19.879',1384.428
'0:19.883',1383.584
'0:19.887',1383.441
'0:19.891',1383.926
'0:19.895',1384.863
'0:19.898',1386.139
'0:19.902',1387.641
'0:19.906',1389.240
'0:19.910',1390.840
'0:19.914',1392.450
'0:19.918',1394.098
'0:19.922',1395.798
'0:19.926',1397.499
'0:19.930',1399.032
'0:19.934',1400.158
'0:19.938',1400.712
'0:19.941',1400.722
'0:19.945',1400.329
'0:19.949',1399.625
'0:19.953',1398.621
'0:19.957',1397.311
'0:19.961',1395.725
'0:19.965',1393.903
'0:19.969',1391.882
'0:19.973',1389.773
'0:19.977',1387.783
'0:19.980',1386.072
'0:19.984',1384.699
'0:19.988',1383.668
'0:19.992',1383.051
'0:19.996',1383.051
'0:20.000',1383.891
'0:20.004',1385.720
'0:20.008',1388.561
'0:20.012',1392.254
'0:20.016',1396.436
'0:20.020',1400.548
'0:20.023',1403.967
'0:20.027',1406.169
'0:20.031',1406.849
'0:20.035',1405.932
'0:20.039',1403.587
'0:20.043',1400.182
'0:20.047',1396.133
'0:20.051',1391.843
'0:20.055',1387.703
'0:20.059',1384.100
'0:20.063',1381.298
'0:20.066',1379.416
'0:20.070',1378.472
'0:20.074',1378.455
'0:20.078',1379.357
'0:20.082',1381.131
'0:20.086',1383.612
'0:20.090',1386.522
'0:20.094',1389.508
'0:20.098',1392.157
'0:20.102',1394.087
'0:20.105',1395.126
'0:20.109',1395.380
'0:20.113',1395.129
'0:20.117',1394.558
'0:20.121',1393.697
'0:20.125',1392.561
'0:20.129',1391.240
'0:20.133',1389.878
'0:20.137',1388.623
'0:20.141',1387.574
'0:20.145',1386.776
'0:20.148',1386.229
'0:20.152',1385.940
'0:20.156',1385.950
'0:20.160',1386.254
'0:20.164',1386.738
'0:20.168',1387.240
'0:20.172',1387.578
'0:20.176',1387.592
'0:20.180',1387.215
'0:20.184',1386.484
'0:20.188',1385.445
'0:20.191',1384.117
'0:20.195',1382.525
'0:20.199',1380.737
'0:20.203',1378.873
'0:20.207',1377.110
'0:20.211',1375.663
'0:20.215',1374.719
'0:20.219',1374.325
'0:20.223',1374.374
'0:20.227',1374.681
'0:20.230',1375.134
'0:20.234',1375.733
'0:20.238',1376.458
'0:20.242',1377.183
'0:20.246',1377.796
'0:20.250',1378.266
'0:20.254',1378.563
'0:20.258',1378.608
'0:20.262',1378.357
'0:20.266',1377.876
'0:20.270',1377.343
'0:20.273',1376.911
'0:20.277',1376.653
'0:20.281',1376.684
'0:20.285',1377.092
'0:20.289',1377.820
'0:20.293',1378.709
'0:20.297',1379.667
'0:20.301',1380.692
'0:20.305',1381.713
'0:20.309',1382.535
'0:20.313',1382.999
'0:20.316',1383.069
'0:20.320',1382.734
'0:20.324',1381.891
'0:20.328',1380.497
'0:20.332',1378.692
'0:20.336',1376.768
'0:20.340',1374.984
'0:20.344',1373.552
'0:20.348',1372.757
'0:20.352',1372.910
'0:20.355',1374.130
'0:20.359',1376.210
'0:20.363',1378.678
'0:20.367',1380.995
'0:20.371',1382.772
'0:20.375',1383.853
'0:20.379',1384.260
'0:20.383',1384.069
'0:20.387',1383.295
'0:20.391',1382.027
'0:20.395',1380.486
'0:20.398',1378.974
'0:20.402',1377.688
'0:20.406',1376.608
'0:20.410',1375.527
'0:20.414',1374.221
'0:20.418',1372.579
'0:20.422',1370.649
'0:20.426',1368.495
'0:20.430',1366.125
'0:20.434',1363.557
'0:20.438',1360.982
'0:20.441',1358.703
'0:20.445',1356.964
'0:20.449',1355.859
'0:20.453',1355.347
'0:20.457',1355.284
'0:20.461',1355.500
'0:20.465',1355.842
'0:20.469',1356.128
'0:20.473',1356.222
'0:20.477',1356.180
'0:20.480',1356.246
'0:20.484',1356.643
'0:20.488',1357.372
'0:20.492',1358.184
'0:20.496',1358.717
'0:20.500',1358.682
'0:20.504',1358.016
'0:20.508',1356.859
'0:20.512',1355.469
'0:20.516',1354.124
'0:20.520',1353.057
'0:20.523',1352.354
'0:20.527',1351.995
'0:20.531',1351.988
'0:20.535',1352.343
'0:20.539',1353.085
'0:20.543',1354.253
'0:20.547',1355.835
'0:20.551',1357.664
'0:20.555',1359.431
'0:20.559',1360.832
'0:20.563',1361.756
'0:20.566',1362.303
'0:20.570',1362.665
'0:20.574',1362.909
'0:20.578',1362.958
'0:20.582',1362.818
'0:20.586',1362.616
'0:20.590',1362.494
'0:20.594',1362.515
'0:20.598',1362.707
'0:20.602',1363.097
'0:20.605',1363.686
'0:20.609',1364.414
'0:20.613',1365.216
'0:20.617',1366.073
'0:20.621',1366.944
'0:20.625',1367.735
'0:20.629',1368.331
'0:20.633',1368.648
'0:20.637',1368.701
'0:20.641',1368.607
'0:20.645',1368.474
'0:20.648',1368.373
'0:20.652',1368.317
'0:20.656',1368.276
'0:20.660',1368.248
'0:20.664',1368.269
'0:20.668',1368.335
'0:20.672',1368.429
'0:20.676',1368.551
'0:20.680',1368.743
'0:20.684',1369.021
'0:20.688',1369.359
'0:20.691',1369.687
'0:20.695',1369.931
'0:20.699',1370.095
'0:20.703',1370.227
'0:20.707',1370.373
'0:20.711',1370.530
'0:20.715',1370.610
'0:20.719',1370.523
'0:20.723',1370.213
'0:20.727',1369.687
'0:20.730',1369.011
'0:20.734',1368.269
'0:20.738',1367.568
'0:20.742',1367.032
'0:20.746',1366.711
'0:20.750',1366.582
'0:20.754',1366.568
'0:20.758',1366.603
'0:20.762',1366.687
'0:20.766',1366.861
'0:20.770',1367.143
'0:20.773',1367.509
'0:20.777',1367.979
'0:20.781',1368.596
'0:20.785',1369.377
'0:20.789',1370.304
'0:20.793',1371.307
'0:20.797',1372.280
'0:20.801',1373.140
'0:20.805',1373.820
'0:20.809',1374.242
'0:20.813',1374.315
'0:20.816',1374.032
'0:20.820',1373.555
'0:20.824',1373.116
'0:20.828',1372.841
'0:20.832',1372.659
'0:20.836',1372.454
'0:20.840',1372.158
'0:20.844',1371.764
'0:20.848',1371.318
'0:20.852',1370.858
'0:20.855',1370.356
'0:20.859',1369.802
'0:20.863',1369.300
'0:20.867',1368.986
'0:20.871',1368.938
'0:20.875',1369.140
'0:20.879',1369.523
'0:20.883',1370.018
'0:20.887',1370.527
'0:20.891',1370.927
'0:20.895',1371.091
'0:20.898',1370.952
'0:20.902',1370.551
'0:20.906',1370.042
'0:20.910',1369.638
'0:20.914',1369.502
'0:20.918',1369.673
'0:20.922',1369.976
'0:20.926',1370.105
'0:20.930',1369.823
'0:20.934',1369.133
'0:20.938',1368.314
'0:20.941',1367.728
'0:20.945',1367.620
'0:20.949',1367.990
'0:20.953',1368.624
'0:20.957',1369.223
'0:20.961',1369.631
'0:20.965',1369.917
'0:20.969',1370.227
'0:20.973',1370.635
'0:20.977',1371.178
'0:20.980',1371.841
'0:20.984',1372.513
'0:20.988',1373.085
'0:20.992',1373.559
'0:20.996',1374.032
'0:21.000',1374.531
'0:21.004',1374.932
'0:21.008',1374.966
'0:21.012',1374.360
'0:21.016',1373.011
'0:21.020',1371.147
'0:21.023',1369.230
'0:21.027',1367.742
'0:21.031',1366.972
'0:21.035',1366.993
'0:21.039',1367.659
'0:21.043',1368.736
'0:21.047',1370.004
'0:21.051',1371.279
'0:21.055',1372.363
'0:21.059',1373.053
'0:21.063',1373.266
'0:21.066',1373.182
'0:21.070',1373.234
'0:21.074',1373.862
'0:21.078',1375.283
'0:21.082',1377.416
'0:21.086',1379.901
'0:21.090',1382.257
'0:21.094',1384.100
'0:21.098',1385.152
'0:21.102',1385.170
'0:21.105',1383.995
'0:21.109',1381.783
'0:21.113',1379.005
'0:21.117',1376.305
'0:21.121',1374.214
'0:21.125',1373.025
'0:21.129',1372.792
'0:21.133',1373.342
'0:21.137',1374.318
'0:21.141',1375.287
'0:21.145',1375.900
'0:21.148',1375.949
'0:21.152',1375.336
'0:21.156',1374.130
'0:21.160',1372.663
'0:21.164',1371.426
'0:21.168',1370.844
'0:21.172',1371.175
'0:21.176',1372.471
'0:21.180',1374.625
'0:21.184',1377.350
'0:21.188',1380.281
'0:21.191',1383.058
'0:21.195',1385.386
'0:21.199',1387.080
'0:21.203',1388.121
'0:21.207',1388.721
'0:21.211',1389.184
'0:21.215',1389.763
'0:21.219',1390.571
'0:21.223',1391.721
'0:21.227',1393.429
'0:21.230',1395.875
'0:21.234',1399.011
'0:21.238',1402.465
'0:21.242',1405.699
'0:21.246',1408.232
'0:21.250',1409.786
'0:21.254',1410.309
'0:21.258',1409.929
'0:21.262',1408.832
'0:21.266',1407.208
'0:21.270',1405.305
'0:21.273',1403.493
'0:21.277',1402.165
'0:21.281',1401.569
'0:21.285',1401.670
'0:21.289',1402.158
'0:21.293',1402.636
'0:21.297',1402.838
'0:21.301',1402.674
'0:21.305',1402.165
'0:21.309',1401.444
'0:21.313',1400.698
'0:21.316',1400.137
'0:21.320',1399.914
'0:21.324',1400.085
'0:21.328',1400.632
'0:21.332',1401.489
'0:21.336',1402.475
'0:21.340',1403.252
'0:21.344',1403.416
'0:21.348',1402.625
'0:21.352',1400.750
'0:21.355',1397.980
'0:21.359',1394.788
'0:21.363',1391.746
'0:21.367',1389.331
'0:21.371',1387.843
'0:21.375',1387.428
'0:21.379',1388.087
'0:21.383',1389.693
'0:21.387',1391.958
'0:21.391',1394.457
'0:21.395',1396.673
'0:21.398',1398.140
'0:21.402',1398.663
'0:21.406',1398.405
'0:21.410',1397.753
'0:21.414',1397.070
'0:21.418',1396.558
'0:21.422',1396.217
'0:21.426',1395.966
'0:21.430',1395.812
'0:21.434',1395.851
'0:21.438',1396.084
'0:21.441',1396.304
'0:21.445',1396.203
'0:21.449',1395.513
'0:21.453',1394.147
'0:21.457',1392.335
'0:21.461',1390.526
'0:21.465',1389.160
'0:21.469',1388.414
'0:21.473',1388.205
'0:21.477',1388.257
'0:21.480',1388.289
'0:21.484',1388.128
'0:21.488',1387.850
'0:21.492',1387.689
'0:21.496',1387.825
'0:21.500',1388.261
'0:21.504',1388.864
'0:21.508',1389.487
'0:21.512',1390.017
'0:21.516',1390.327
'0:21.520',1390.282
'0:21.523',1389.874
'0:21.527',1389.264
'0:21.531',1388.595
'0:21.535',1387.888
'0:21.539',1387.139
'0:21.543',1386.390
'0:21.547',1385.706
'0:21.551',1385.104
'0:21.555',1384.557
'0:21.559',1384.034
'0:21.563',1383.553
'0:21.566',1383.166
'0:21.570',1382.884
'0:21.574',1382.703
'0:21.578',1382.668
'0:21.582',1382.783
'0:21.586',1382.894
'0:21.590',1382.835
'0:21.594',1382.518
'0:21.598',1381.932
'0:21.602',1381.204
'0:21.605',1380.587
'0:21.609',1380.270
'0:21.613',1380.260
'0:21.617',1380.465
'0:21.621',1380.856
'0:21.625',1381.403
'0:21.629',1381.953
'0:21.633',1382.326
'0:21.637',1382.480
'0:21.641',1382.511
'0:21.645',1382.490
'0:21.648',1382.385
'0:21.652',1382.114
'0:21.656',1381.640
'0:21.660',1381.019
'0:21.664',1380.336
'0:21.668',1379.678
'0:21.672',1379.159
'0:21.676',1378.824
'0:21.680',1378.573
'0:21.684',1378.315
'0:21.688',1378.092
'0:21.691',1378.019
'0:21.695',1378.082
'0:21.699',1378.106
'0:21.703',1377.887
'0:21.707',1377.388
'0:21.711',1376.730
'0:21.715',1376.033
'0:21.719',1375.392
'0:21.723',1374.932
'0:21.727',1374.757
'0:21.730',1374.834
'0:21.734',1374.980
'0:21.738',1374.970
'0:21.742',1374.611
'0:21.746',1373.879
'0:21.750',1372.907
'0:21.754',1371.945
'0:21.758',1371.255
'0:21.762',1371.060
'0:21.766',1371.447
'0:21.770',1372.294
'0:21.773',1373.367
'0:21.777',1374.510
'0:21.781',1375.642
'0:21.785',1376.646
'0:21.789',1377.350
'0:21.793',1377.590
'0:21.797',1377.315
'0:21.801',1376.622
'0:21.805',1375.656
'0:21.809',1374.510
'0:21.813',1373.266
'0:21.816',1372.074
'0:21.820',1371.095
'0:21.824',1370.408
'0:21.828',1370.001
'0:21.832',1369.823
'0:21.836',1369.844
'0:21.840',1370.105
'0:21.844',1370.739
'0:21.848',1371.820
'0:21.852',1373.193
'0:21.855',1374.576
'0:21.859',1375.712
'0:21.863',1376.562
'0:21.867',1377.305
'0:21.871',1378.134
'0:21.875',1379.030
'0:21.879',1379.741
'0:21.883',1380.002
'0:21.887',1379.734
'0:21.891',1378.988
'0:21.895',1377.848
'0:21.898',1376.517
'0:21.902',1375.332
'0:21.906',1374.552
'0:21.910',1374.147
'0:21.914',1373.876
'0:21.918',1373.524
'0:21.922',1372.990
'0:21.926',1372.245
'0:21.930',1371.286
'0:21.934',1370.199
'0:21.938',1369.126
'0:21.941',1368.265
'0:21.945',1367.749
'0:21.949',1367.526
'0:21.953',1367.446
'0:21.957',1367.376
'0:21.961',1367.223
'0:21.965',1366.910
'0:21.969',1366.474
'0:21.973',1366.094
'0:21.977',1365.941
'0:21.980',1366.115
'0:21.984',1366.638
'0:21.988',1367.411
'0:21.992',1368.206
'0:21.996',1368.851
'0:22.000',1369.297
'0:22.004',1369.575
'0:22.008',1369.795
'0:22.012',1370.126
'0:22.016',1370.666
'0:22.020',1371.387
'0:22.023',1372.182
'0:22.027',1372.900
'0:22.031',1373.367
'0:22.035',1373.450
'0:22.039',1373.147
'0:22.043',1372.531
'0:22.047',1371.698
'0:22.051',1370.725
'0:22.055',1369.704
'0:22.059',1368.659
'0:22.063',1367.561
'0:22.066',1366.401
'0:22.070',1365.233
'0:22.074',1364.139
'0:22.078',1363.209
'0:22.082',1362.494
'0:22.086',1362.024
'0:22.090',1361.766
'0:22.094',1361.693
'0:22.098',1361.749
'0:22.102',1361.839
'0:22.105',1361.884
'0:22.109',1361.871
'0:22.113',1361.846
'0:22.117',1361.864
'0:22.121',1361.951
'0:22.125',1362.034
'0:22.129',1362.027
'0:22.133',1361.919
'0:22.137',1361.773
'0:22.141',1361.654
'0:22.145',1361.581
'0:22.148',1361.491
'0:22.152',1361.268
'0:22.156',1360.884
'0:22.160',1360.435
'0:22.164',1360.090
'0:22.168',1360.044
'0:22.172',1360.414
'0:22.176',1361.146
'0:22.180',1362.094
'0:22.184',1363.136
'0:22.188',1364.164
'0:22.191',1365.059
'0:22.195',1365.707
'0:22.199',1366.077
'0:22.203',1366.230
'0:22.207',1366.247
'0:22.211',1366.185
'0:22.215',1366.003
'0:22.219',1365.617
'0:22.223',1364.975
'0:22.227',1364.104
'0:22.230',1363.052
'0:22.234',1361.912
'0:22.238',1360.811
'0:22.242',1359.905
'0:22.246',1359.351
'0:22.250',1359.187
'0:22.254',1359.313
'0:22.258',1359.595
'0:22.262',1360.006
'0:22.266',1360.585
'0:22.270',1361.414
'0:22.273',1362.522
'0:22.277',1363.850
'0:22.281',1365.244
'0:22.285',1366.551
'0:22.289',1367.704
'0:22.293',1368.725
'0:22.297',1369.593
'0:22.301',1370.244
'0:22.305',1370.621
'0:22.309',1370.656
'0:22.313',1370.346
'0:22.316',1369.844
'0:22.320',1369.314
'0:22.324',1368.809
'0:22.328',1368.331
'0:22.332',1367.910
'0:22.336',1367.526
'0:22.340',1367.108
'0:22.344',1366.687
'0:22.348',1366.380
'0:22.352',1366.206
'0:22.355',1366.066
'0:22.359',1365.868
'0:22.363',1365.690
'0:22.367',1365.665
'0:22.371',1365.843
'0:22.375',1366.153
'0:22.379',1366.547
'0:22.383',1366.997
'0:22.387',1367.397
'0:22.391',1367.586
'0:22.395',1367.464
'0:22.398',1367.014
'0:22.402',1366.251
'0:22.406',1365.136
'0:22.410',1363.676
'0:22.414',1362.024
'0:22.418',1360.421
'0:22.422',1359.048
'0:22.426',1357.950
'0:22.430',1357.117
'0:22.434',1356.539
'0:22.438',1356.239
'0:22.441',1356.281
'0:22.445',1356.741
'0:22.449',1357.706
'0:22.453',1359.243
'0:22.457',1361.327
'0:22.461',1363.784
'0:22.465',1366.240
'0:22.469',1368.262
'0:22.473',1369.551
'0:22.477',1370.116
'0:22.480',1370.224
'0:22.484',1370.199
'0:22.488',1370.248
'0:22.492',1370.464
'0:22.496',1370.921
'0:22.500',1371.659
'0:22.504',1372.611
'0:22.508',1373.646
'0:22.512',1374.702
'0:22.516',1375.841
'0:22.520',1377.200
'0:22.523',1378.859
'0:22.527',1380.762
'0:22.531',1382.821
'0:22.535',1385.034
'0:22.539',1387.435
'0:22.543',1389.965
'0:22.547',1392.446
'0:22.551',1394.628
'0:22.555',1396.251
'0:22.559',1397.081
'0:22.563',1397.008
'0:22.566',1396.119
'0:22.570',1394.669
'0:22.574',1392.941
'0:22.578',1391.115
'0:22.582',1389.296
'0:22.586',1387.665
'0:22.590',1386.396
'0:22.594',1385.550
'0:22.598',1385.097
'0:22.602',1385.058
'0:22.605',1385.508
'0:22.609',1386.532
'0:22.613',1388.160
'0:22.617',1390.244
'0:22.621',1392.401
'0:22.625',1394.140
'0:22.629',1395.119
'0:22.633',1395.304
'0:22.637',1394.941
'0:22.641',1394.401
'0:22.645',1394.046
'0:22.648',1394.056
'0:22.652',1394.314
'0:22.656',1394.533
'0:22.660',1394.558
'0:22.664',1394.492
'0:22.668',1394.502
'0:22.672',1394.565
'0:22.676',1394.418
'0:22.680',1393.816
'0:22.684',1392.634
'0:22.688',1390.888
'0:22.691',1388.714
'0:22.695',1386.376
'0:22.699',1384.253
'0:22.703',1382.713
'0:22.707',1381.957
'0:22.711',1381.946
'0:22.715',1382.427
'0:22.719',1382.978
'0:22.723',1383.135
'0:22.727',1382.553
'0:22.730',1381.197
'0:22.734',1379.378
'0:22.738',1377.517
'0:22.742',1375.946
'0:22.746',1374.865
'0:22.750',1374.343
'0:22.754',1374.395
'0:22.758',1375.001
'0:22.762',1376.130
'0:22.766',1377.719
'0:22.770',1379.650
'0:22.773',1381.709
'0:22.777',1383.598
'0:22.781',1385.132
'0:22.785',1386.316
'0:22.789',1387.247
'0:22.793',1387.878
'0:22.797',1388.013
'0:22.801',1387.498
'0:22.805',1386.417
'0:22.809',1385.149
'0:22.813',1384.156
'0:22.816',1383.759
'0:22.820',1383.995
'0:22.824',1384.675
'0:22.828',1385.529
'0:22.832',1386.379
'0:22.836',1387.205
'0:22.840',1388.003
'0:22.844',1388.644
'0:22.848',1388.930
'0:22.852',1388.759
'0:22.855',1388.250
'0:22.859',1387.637
'0:22.863',1387.080
'0:22.867',1386.571
'0:22.871',1386.048
'0:22.875',1385.536
'0:22.879',1385.138
'0:22.883',1384.947
'0:22.887',1384.898
'0:22.891',1384.891
'0:22.895',1384.915
'0:22.898',1384.996
'0:22.902',1385.079
'0:22.906',1385.069
'0:22.910',1384.933
'0:22.914',1384.762
'0:22.918',1384.720
'0:22.922',1384.902
'0:22.926',1385.274
'0:22.930',1385.696
'0:22.934',1386.010
'0:22.938',1386.083
'0:22.941',1385.828
'0:22.945',1385.281
'0:22.949',1384.581
'0:22.953',1383.825
'0:22.957',1383.027
'0:22.961',1382.201
'0:22.965',1381.361
'0:22.969',1380.539
'0:22.973',1379.838
'0:22.977',1379.378
'0:22.980',1379.179
'0:22.984',1379.197
'0:22.988',1379.427
'0:22.992',1379.904
'0:22.996',1380.532
'0:23.000',1381.009
'0:23.004',1381.037
'0:23.008',1380.465
'0:23.012',1379.319
'0:23.016',1377.716
'0:23.020',1375.862
'0:23.023',1374.074
'0:23.027',1372.736
'0:23.031',1372.168
'0:23.035',1372.499
'0:23.039',1373.614
'0:23.043',1375.113
'0:23.047',1376.458
'0:23.051',1377.231
'0:23.055',1377.266
'0:23.059',1376.656
'0:23.063',1375.702
'0:23.066',1374.803
'0:23.070',1374.311
'0:23.074',1374.395
'0:23.078',1374.970
'0:23.082',1375.865
'0:23.086',1376.988
'0:23.090',1378.294
'0:23.094',1379.643
'0:23.098',1380.782
'0:23.102',1381.476
'0:23.105',1381.584
'0:23.109',1381.155
'0:23.113',1380.462
'0:23.117',1379.824
'0:23.121',1379.368
'0:23.125',1379.061
'0:23.129',1378.894
'0:23.133',1378.936
'0:23.137',1379.253
'0:23.141',1379.863
'0:23.145',1380.758
'0:23.148',1381.901
'0:23.152',1383.211
'0:23.156',1384.577
'0:23.160',1385.916
'0:23.164',1387.170
'0:23.168',1388.303
'0:23.172',1389.258
'0:23.176',1389.972
'0:23.180',1390.352
'0:23.184',1390.366
'0:23.188',1390.083
'0:23.191',1389.609
'0:23.195',1389.021
'0:23.199',1388.299
'0:23.203',1387.397
'0:23.207',1386.292
'0:23.211',1384.975
'0:23.215',1383.455
'0:23.219',1381.807
'0:23.223',1380.201
'0:23.227',1378.817
'0:23.230',1377.754
'0:23.234',1376.998
'0:23.238',1376.430
'0:23.242',1375.911
'0:23.246',1375.336
'0:23.250',1374.670
'0:23.254',1373.938
'0:23.258',1373.168
'0:23.262',1372.346
'0:23.266',1371.412
'0:23.270',1370.314
'0:23.273',1369.094
'0:23.277',1367.885
'0:23.281',1366.885
'0:23.285',1366.251
'0:23.289',1366.098
'0:23.293',1366.533
'0:23.297',1367.600
'0:23.301',1369.161
'0:23.305',1370.886
'0:23.309',1372.391
'0:23.313',1373.398
'0:23.316',1373.789
'0:23.320',1373.593
'0:23.324',1372.990
'0:23.328',1372.168
'0:23.332',1371.252
'0:23.336',1370.300
'0:23.340',1369.363
'0:23.344',1368.485
'0:23.348',1367.697
'0:23.352',1367.066
'0:23.355',1366.596
'0:23.359',1366.143
'0:23.363',1365.578
'0:23.367',1364.927
'0:23.371',1364.359
'0:23.375',1364.007
'0:23.379',1363.885
'0:23.383',1363.927
'0:23.387',1364.028
'0:23.391',1364.104
'0:23.395',1364.132
'0:23.398',1364.083
'0:23.402',1363.867
'0:23.406',1363.376
'0:23.410',1362.529
'0:23.414',1361.285
'0:23.418',1359.546
'0:23.422',1357.180
