'sample interval','wrist_ppg'
'0.00390625 sec','mV'
0,1388.412
1,1388.178
2,1387.805
3,1387.440
4,1387.149
5,1386.940
6,1386.797
7,1386.702
8,1386.715
9,1386.924
10,1387.346
11,1387.912
12,1388.576
13,1389.297
14,1390.043
15,1390.773
16,1391.412
17,1391.859
18,1391.945
19,1391.527
20,1390.568
21,1389.063
22,1387.034
23,1384.591
24,1382.000
25,1379.557
26,1377.503
27,1375.966
28,1374.950
29,1374.433
30,1374.421
31,1374.929
32,1375.913
33,1377.241
34,1378.688
35,1380.020
36,1381.127
37,1382.009
38,1382.689
39,1383.103
40,1383.136
41,1382.681
42,1381.804
43,1380.734
44,1379.758
45,1379.041
46,1378.569
47,1378.159
48,1377.598
49,1376.790
50,1375.851
51,1374.978
52,1374.249
53,1373.613
54,1372.941
55,1372.170
56,1371.330
57,1370.481
58,1369.686
59,1369.010
60,1368.522
61,1368.255
62,1368.177
63,1368.186
64,1368.182
65,1368.100
66,1367.997
67,1367.973
68,1368.067
69,1368.251
70,1368.522
71,1368.895
72,1369.387
73,1369.948
74,1370.477
75,1370.854
76,1371.039
77,1371.067
78,1370.981
79,1370.817
80,1370.658
81,1370.530
82,1370.428
83,1370.326
84,1370.170
85,1369.903
86,1369.567
87,1369.268
88,1369.071
89,1368.956
90,1368.870
91,1368.731
92,1368.456
93,1367.993
94,1367.345
95,1366.542
96,1365.640
97,1364.714
98,1363.799
99,1362.861
100,1361.889
101,1360.922
102,1360.090
103,1359.635
104,1359.794
105,1360.655
106,1362.102
107,1363.910
108,1365.816
109,1367.599
110,1369.088
111,1370.182
112,1370.879
113,1371.268
114,1371.445
115,1371.506
116,1371.527
117,1371.563
118,1371.600
119,1371.555
120,1371.338
121,1370.961
122,1370.535
123,1370.166
124,1369.899
125,1369.707
126,1369.510
127,1369.194
128,1368.760
129,1368.305
130,1367.891
131,1367.517
132,1367.194
133,1366.993
134,1367.017
135,1367.304
136,1367.821
137,1368.469
138,1369.092
139,1369.514
140,1369.620
141,1369.424
142,1369.042
143,1368.596
144,1368.194
145,1367.899
146,1367.731
147,1367.599
148,1367.362
149,1366.898
150,1366.124
151,1364.992
152,1363.656
153,1362.463
154,1361.713
155,1361.442
156,1361.442
157,1361.455
158,1361.393
159,1361.336
160,1361.291
161,1361.147
162,1360.827
163,1360.389
164,1359.979
165,1359.741
166,1359.721
167,1359.786
168,1359.655
169,1359.061
170,1357.913
171,1356.306
172,1354.490
173,1352.768
174,1351.350
175,1350.247
176,1349.399
177,1348.821
178,1348.636
179,1348.919
180,1349.644
181,1350.796
182,1352.420
183,1354.482
184,1356.732
185,1358.753
186,1360.147
187,1360.676
188,1360.344
189,1359.356
190,1358.060
191,1356.810
192,1355.806
193,1355.043
194,1354.465
195,1354.125
196,1354.088
197,1354.342
198,1354.842
199,1355.617
200,1356.630
201,1357.712
202,1358.667
203,1359.421
204,1359.987
205,1360.340
206,1360.450
207,1360.356
208,1360.069
209,1359.544
210,1358.749
211,1357.757
212,1356.663
213,1355.494
214,1354.240
215,1352.998
216,1352.014
217,1351.551
218,1351.764
219,1352.604
220,1353.834
221,1355.060
222,1355.916
223,1356.175
224,1355.789
225,1354.888
226,1353.756
227,1352.772
228,1352.231
229,1352.284
230,1352.916
231,1354.018
232,1355.408
233,1356.863
234,1358.196
235,1359.389
236,1360.586
237,1361.922
238,1363.373
239,1364.742
240,1365.857
241,1366.730
242,1367.526
243,1368.370
244,1369.239
245,1369.993
246,1370.547
247,1370.916
248,1371.178
249,1371.395
250,1371.588
251,1371.768
252,1371.994
253,1372.375
254,1372.978
255,1373.798
256,1374.794
257,1375.901
258,1377.011
259,1377.999
260,1378.782
261,1379.348
262,1379.746
263,1380.061
264,1380.410
265,1380.840
266,1381.299
267,1381.705
268,1381.980
269,1382.140
270,1382.275
271,1382.443
272,1382.685
273,1383.091
274,1383.726
275,1384.530
276,1385.362
277,1386.137
278,1386.788
279,1387.293
280,1387.645
281,1387.871
282,1388.018
283,1388.207
284,1388.539
285,1389.002
286,1389.461
287,1389.695
288,1389.568
289,1389.141
290,1388.604
291,1388.076
292,1387.641
293,1387.366
294,1387.264
295,1387.206
296,1387.088
297,1386.928
298,1386.809
299,1386.801
300,1386.915
301,1387.137
302,1387.457
303,1387.875
304,1388.354
305,1388.822
306,1389.219
307,1389.531
308,1389.719
309,1389.777
310,1389.760
311,1389.764
312,1389.793
313,1389.769
314,1389.617
315,1389.338
316,1389.031
317,1388.793
318,1388.641
319,1388.559
320,1388.559
321,1388.662
322,1388.830
323,1388.957
324,1388.977
325,1388.867
326,1388.670
327,1388.432
328,1388.174
329,1387.879
330,1387.481
331,1386.891
332,1386.124
333,1385.226
334,1384.157
335,1382.861
336,1381.390
337,1379.942
338,1378.733
339,1377.905
340,1377.553
341,1377.704
342,1378.307
343,1379.254
344,1380.455
345,1381.808
346,1383.087
347,1383.976
348,1384.189
349,1383.550
350,1382.054
351,1379.873
352,1377.323
353,1374.790
354,1372.605
355,1371.026
356,1370.268
357,1370.416
358,1371.285
359,1372.416
360,1373.261
361,1373.425
362,1372.818
363,1371.625
364,1370.227
365,1369.001
366,1368.161
367,1367.665
368,1367.333
369,1366.935
370,1366.279
371,1365.279
372,1364.054
373,1362.910
374,1362.176
375,1362.000
376,1362.328
377,1362.959
378,1363.664
379,1364.308
380,1364.943
381,1365.742
382,1366.796
383,1368.022
384,1369.342
385,1370.789
386,1372.424
387,1374.175
388,1375.843
389,1377.270
390,1378.368
391,1379.106
392,1379.467
393,1379.545
394,1379.537
395,1379.635
396,1379.873
397,1380.061
398,1379.983
399,1379.606
400,1379.098
401,1378.725
402,1378.627
403,1378.696
404,1378.725
405,1378.586
406,1378.295
407,1377.979
408,1377.704
409,1377.442
410,1377.139
411,1376.798
412,1376.392
413,1375.855
414,1375.208
415,1374.544
416,1373.933
417,1373.355
418,1372.760
419,1372.150
420,1371.576
421,1371.108
422,1370.813
423,1370.756
424,1371.072
425,1371.850
426,1373.056
427,1374.470
428,1375.687
429,1376.261
430,1375.864
431,1374.372
432,1371.863
433,1368.538
434,1364.742
435,1360.840
436,1357.097
437,1353.584
438,1350.333
439,1347.439
440,1345.025
441,1343.151
442,1341.794
443,1340.880
444,1340.306
445,1339.974
446,1339.663
447,1339.101
448,1338.138
449,1336.789
450,1335.133
451,1333.231
452,1331.210
453,1329.324
454,1327.894
455,1327.143
456,1327.016
457,1327.229
458,1327.516
459,1327.783
460,1328.144
461,1328.701
462,1329.386
463,1329.992
464,1330.341
465,1330.374
466,1330.099
467,1329.521
468,1328.672
469,1327.684
470,1326.750
471,1326.098
472,1325.930
473,1326.393
474,1327.557
475,1329.443
476,1331.940
477,1334.805
478,1337.646
479,1340.060
480,1341.815
481,1342.967
482,1343.815
483,1344.680
484,1345.750
485,1347.074
486,1348.640
487,1350.456
488,1352.551
489,1354.949
490,1357.597
491,1360.413
492,1363.328
493,1366.255
494,1369.030
495,1371.436
496,1373.326
497,1374.609
498,1375.208
499,1375.118
500,1374.466
501,1373.453
502,1372.248
503,1371.026
504,1369.940
505,1369.075
506,1368.464
507,1368.079
508,1367.858
509,1367.763
510,1367.755
511,1367.776
512,1367.763
513,1367.645
514,1367.349
515,1366.866
516,1366.263
517,1365.570
518,1364.722
519,1363.709
520,1362.643
521,1361.668
522,1360.840
523,1360.155
524,1359.548
525,1358.884
526,1358.056
527,1357.085
528,1356.117
529,1355.310
530,1354.822
531,1354.719
532,1354.900
533,1355.158
534,1355.289
535,1355.146
536,1354.687
537,1354.023
538,1353.399
539,1353.022
540,1352.973
541,1353.194
542,1353.613
543,1354.166
544,1354.793
545,1355.338
546,1355.670
547,1355.834
548,1356.031
549,1356.449
550,1357.146
551,1358.097
552,1359.290
553,1360.635
554,1361.992
555,1363.262
556,1364.427
557,1365.550
558,1366.722
559,1367.989
560,1369.354
561,1370.789
562,1372.260
563,1373.699
564,1374.995
565,1375.942
566,1376.331
567,1376.052
568,1375.130
569,1373.765
570,1372.305
571,1371.113
572,1370.379
573,1370.026
574,1369.842
575,1369.702
576,1369.633
577,1369.690
578,1369.883
579,1370.203
580,1370.592
581,1370.990
582,1371.346
583,1371.645
584,1371.834
585,1371.793
586,1371.408
587,1370.612
588,1369.403
589,1367.891
590,1366.271
591,1364.714
592,1363.369
593,1362.393
594,1361.881
595,1361.721
596,1361.541
597,1360.860
598,1359.376
599,1357.154
600,1354.596
601,1352.243
602,1350.546
603,1349.714
604,1349.722
605,1350.350
606,1351.272
607,1352.174
608,1352.949
609,1353.674
610,1354.531
611,1355.728
612,1357.458
613,1359.839
614,1362.824
615,1366.120
616,1369.243
617,1371.744
618,1373.306
619,1373.781
620,1373.150
621,1371.563
622,1369.346
623,1366.956
624,1364.832
625,1363.242
626,1362.238
627,1361.770
628,1361.758
629,1362.110
630,1362.783
631,1363.775
632,1365.087
633,1366.718
634,1368.612
635,1370.707
636,1372.957
637,1375.306
638,1377.557
639,1379.418
640,1380.709
641,1381.455
642,1381.799
643,1381.886
644,1381.775
645,1381.484
646,1380.992
647,1380.246
648,1379.246
649,1378.110
650,1377.036
651,1376.204
652,1375.773
653,1375.847
654,1376.310
655,1376.872
656,1377.175
657,1376.909
658,1375.962
659,1374.511
660,1372.945
661,1371.637
662,1370.822
663,1370.592
664,1370.895
665,1371.563
666,1372.396
667,1373.326
668,1374.507
669,1376.085
670,1378.045
671,1380.131
672,1381.939
673,1383.115
674,1383.538
675,1383.370
676,1382.960
677,1382.566
678,1382.205
679,1381.726
680,1380.992
681,1380.045
682,1379.065
683,1378.208
684,1377.430
685,1376.503
686,1375.249
687,1373.679
688,1371.941
689,1370.223
690,1368.632
691,1367.185
692,1365.861
693,1364.701
694,1363.771
695,1363.086
696,1362.549
697,1362.057
698,1361.664
699,1361.487
700,1361.512
701,1361.491
702,1361.102
703,1360.102
704,1358.384
705,1355.884
706,1352.608
707,1348.652
708,1344.221
709,1339.622
710,1335.223
711,1331.386
712,1328.340
713,1326.172
714,1324.917
715,1324.503
716,1324.700
717,1325.209
718,1325.864
719,1326.660
720,1327.639
721,1328.763
722,1329.845
723,1330.669
724,1331.066
725,1330.939
726,1330.304
727,1329.435
728,1328.783
729,1328.767
730,1329.640
731,1331.501
732,1334.280
733,1337.728
734,1341.458
735,1345.102
736,1348.488
737,1351.612
738,1354.543
739,1357.388
740,1360.262
741,1363.209
742,1366.144
743,1368.899
744,1371.375
745,1373.568
746,1375.495
747,1377.081
748,1378.229
749,1378.914
750,1379.201
751,1379.233
752,1379.188
753,1379.176
754,1379.127
755,1378.832
756,1378.176
757,1377.229
758,1376.171
759,1375.204
760,1374.552
761,1374.408
762,1374.872
763,1375.892
764,1377.270
765,1378.745
766,1380.127
767,1381.320
768,1382.357
769,1383.390
770,1384.526
771,1385.731
772,1386.952
773,1388.272
774,1389.830
775,1391.691
776,1393.802
777,1396.057
778,1398.287
779,1400.263
780,1401.849
781,1403.046
782,1403.874
783,1404.296
784,1404.333
785,1404.157
786,1403.973
787,1403.846
788,1403.690
789,1403.321
790,1402.583
791,1401.476
792,1400.156
793,1398.787
794,1397.442
795,1396.122
796,1394.860
797,1393.733
798,1392.753
799,1391.884
800,1391.150
801,1390.613
802,1390.314
803,1390.183
804,1390.084
805,1389.826
806,1389.256
807,1388.375
808,1387.317
809,1386.223
810,1385.198
811,1384.300
812,1383.599
813,1383.160
814,1383.091
815,1383.501
816,1384.439
817,1385.841
818,1387.571
819,1389.436
820,1391.224
821,1392.675
822,1393.511
823,1393.544
824,1392.757
825,1391.269
826,1389.248
827,1386.920
828,1384.599
829,1382.599
830,1381.062
831,1379.885
832,1378.819
833,1377.663
834,1376.323
835,1374.802
836,1373.150
837,1371.449
838,1369.793
839,1368.268
840,1366.968
841,1365.980
842,1365.378
843,1365.148
844,1365.111
845,1365.009
846,1364.648
847,1363.980
848,1363.086
849,1362.086
850,1361.057
851,1360.069
852,1359.274
853,1358.798
854,1358.622
855,1358.663
856,1358.929
857,1359.520
858,1360.422
859,1361.479
860,1362.520
861,1363.500
862,1364.406
863,1365.140
864,1365.542
865,1365.607
866,1365.525
867,1365.476
868,1365.517
869,1365.660
870,1365.943
871,1366.357
872,1366.833
873,1367.272
874,1367.575
875,1367.669
876,1367.509
877,1367.103
878,1366.505
879,1365.796
880,1365.058
881,1364.324
882,1363.594
883,1362.889
884,1362.201
885,1361.491
886,1360.770
887,1360.090
888,1359.557
889,1359.245
890,1359.171
891,1359.270
892,1359.495
893,1359.860
894,1360.356
895,1360.807
896,1360.967
897,1360.725
898,1360.180
899,1359.516
900,1358.852
901,1358.216
902,1357.626
903,1357.072
904,1356.552
905,1356.052
906,1355.617
907,1355.338
908,1355.289
909,1355.461
910,1355.732
911,1355.937
912,1356.011
913,1356.023
914,1356.080
915,1356.306
916,1356.769
917,1357.441
918,1358.249
919,1359.110
920,1359.926
921,1360.590
922,1361.094
923,1361.459
924,1361.680
925,1361.770
926,1361.836
927,1362.012
928,1362.369
929,1362.873
930,1363.410
931,1363.816
932,1363.972
933,1363.828
934,1363.426
935,1362.832
936,1362.069
937,1361.200
938,1360.319
939,1359.544
940,1358.979
941,1358.642
942,1358.519
943,1358.511
944,1358.446
945,1358.146
946,1357.601
947,1356.933
948,1356.216
949,1355.396
950,1354.404
951,1353.293
952,1352.219
953,1351.321
954,1350.612
955,1350.030
956,1349.583
957,1349.353
958,1349.370
959,1349.476
960,1349.378
961,1348.821
962,1347.767
963,1346.324
964,1344.590
965,1342.700
966,1340.897
967,1339.478
968,1338.609
969,1338.330
970,1338.617
971,1339.380
972,1340.454
973,1341.667
974,1342.868
975,1343.930
976,1344.799
977,1345.615
978,1346.660
979,1348.152
980,1350.177
981,1352.645
982,1355.273
983,1357.634
984,1359.327
985,1360.126
986,1359.967
987,1358.946
988,1357.232
989,1355.060
990,1352.756
991,1350.723
992,1349.239
993,1348.361
994,1347.984
995,1347.988
996,1348.300
997,1348.825
998,1349.423
999,1349.997
1000,1350.563
1001,1351.161
1002,1351.838
1003,1352.616
1004,1353.486
1005,1354.281
1006,1354.810
1007,1355.019
1008,1355.031
1009,1354.945
1010,1354.662
1011,1353.936
1012,1352.649
1013,1350.928
1014,1349.116
1015,1347.546
1016,1346.345
1017,1345.443
1018,1344.738
1019,1344.319
1020,1344.377
1021,1345.008
1022,1346.127
1023,1347.521
1024,1349.025
1025,1350.632
1026,1352.358
1027,1354.113
1028,1355.707
1029,1357.052
1030,1358.142
1031,1359.036
1032,1359.790
1033,1360.438
1034,1360.946
1035,1361.237
1036,1361.266
1037,1361.086
1038,1360.786
1039,1360.430
1040,1360.114
1041,1360.053
1042,1360.475
1043,1361.541
1044,1363.283
1045,1365.574
1046,1368.243
1047,1371.121
1048,1373.998
1049,1376.663
1050,1379.000
1051,1380.926
1052,1382.308
1053,1383.025
1054,1383.136
1055,1382.873
1056,1382.619
1057,1382.751
1058,1383.460
1059,1384.665
1060,1386.112
1061,1387.596
1062,1389.104
1063,1390.699
1064,1392.400
1065,1394.134
1066,1395.758
1067,1397.164
1068,1398.303
1069,1399.160
1070,1399.742
1071,1400.062
1072,1400.160
1073,1400.136
1074,1400.115
1075,1400.197
1076,1400.468
1077,1401.025
1078,1401.993
1079,1403.432
1080,1405.276
1081,1407.301
1082,1409.228
1083,1410.941
1084,1412.532
1085,1414.123
1086,1415.709
1087,1417.213
1088,1418.562
1089,1419.661
1090,1420.435
1091,1420.862
1092,1420.968
1093,1420.817
1094,1420.460
1095,1419.894
1096,1419.148
1097,1418.316
1098,1417.582
1099,1417.070
1100,1416.799
1101,1416.717
1102,1416.762
1103,1416.894
1104,1417.090
1105,1417.299
1106,1417.480
1107,1417.619
1108,1417.668
1109,1417.582
1110,1417.349
1111,1416.959
1112,1416.430
1113,1415.799
1114,1415.106
1115,1414.348
1116,1413.598
1117,1412.987
1118,1412.516
1119,1412.093
1120,1411.634
1121,1411.085
1122,1410.404
1123,1409.593
1124,1408.629
1125,1407.424
1126,1405.928
1127,1404.198
1128,1402.296
1129,1400.222
1130,1397.951
1131,1395.524
1132,1393.052
1133,1390.679
1134,1388.457
1135,1386.370
1136,1384.423
1137,1382.726
1138,1381.426
1139,1380.586
1140,1380.061
1141,1379.610
1142,1378.955
1143,1377.876
1144,1376.339
1145,1374.458
1146,1372.392
1147,1370.280
1148,1368.292
1149,1366.616
1150,1365.419
1151,1364.849
1152,1365.046
1153,1366.050
1154,1367.722
1155,1369.813
1156,1372.076
1157,1374.306
1158,1376.274
1159,1377.680
1160,1378.254
1161,1377.897
1162,1376.729
1163,1375.064
1164,1373.314
1165,1371.789
1166,1370.563
1167,1369.506
1168,1368.542
1169,1367.768
1170,1367.304
1171,1367.185
1172,1367.325
1173,1367.571
1174,1367.780
1175,1367.903
1176,1367.960
1177,1367.907
1178,1367.706
1179,1367.358
1180,1366.882
1181,1366.329
1182,1365.849
1183,1365.587
1184,1365.579
1185,1365.841
1186,1366.415
1187,1367.333
1188,1368.493
1189,1369.678
1190,1370.621
1191,1371.207
1192,1371.555
1193,1371.904
1194,1372.416
1195,1373.150
1196,1374.146
1197,1375.441
1198,1377.077
1199,1379.028
1200,1381.172
1201,1383.283
1202,1385.169
1203,1386.760
1204,1388.026
1205,1388.965
1206,1389.674
1207,1390.355
1208,1391.109
1209,1391.904
1210,1392.720
1211,1393.589
1212,1394.470
1213,1395.139
1214,1395.241
1215,1394.503
1216,1392.884
1217,1390.576
1218,1387.932
1219,1385.333
1220,1383.115
1221,1381.500
1222,1380.570
1223,1380.266
1224,1380.426
1225,1380.783
1226,1381.037
1227,1380.947
1228,1380.500
1229,1379.877
1230,1379.307
1231,1378.946
1232,1378.852
1233,1378.987
1234,1379.225
1235,1379.434
1236,1379.516
1237,1379.410
1238,1379.049
1239,1378.401
1240,1377.520
1241,1376.556
1242,1375.646
1243,1374.839
1244,1374.097
1245,1373.400
1246,1372.715
1247,1372.019
1248,1371.330
1249,1370.707
1250,1370.141
1251,1369.600
1252,1369.026
1253,1368.423
1254,1367.804
1255,1367.226
1256,1366.771
1257,1366.489
1258,1366.357
1259,1366.419
1260,1366.874
1261,1367.907
1262,1369.456
1263,1371.178
1264,1372.597
1265,1373.343
1266,1373.265
1267,1372.416
1268,1371.039
1269,1369.440
1270,1367.915
1271,1366.620
1272,1365.529
1273,1364.541
1274,1363.709
1275,1363.246
1276,1363.357
1277,1364.062
1278,1365.152
1279,1366.271
1280,1367.194
1281,1367.886
1282,1368.411
1283,1368.809
1284,1369.149
1285,1369.506
1286,1369.903
1287,1370.346
1288,1370.838
1289,1371.400
1290,1372.055
1291,1372.773
1292,1373.416
1293,1373.863
1294,1374.072
1295,1374.105
1296,1374.068
1297,1374.113
1298,1374.417
1299,1375.159
1300,1376.438
1301,1378.192
1302,1380.164
1303,1382.000
1304,1383.472
1305,1384.579
1306,1385.513
1307,1386.436
1308,1387.411
1309,1388.543
1310,1389.982
1311,1391.798
1312,1393.839
1313,1395.889
1314,1397.852
1315,1399.738
1316,1401.447
1317,1402.735
1318,1403.370
1319,1403.304
1320,1402.726
1321,1402.001
1322,1401.488
1323,1401.349
1324,1401.501
1325,1401.775
1326,1402.099
1327,1402.493
1328,1403.042
1329,1403.874
1330,1405.071
1331,1406.580
1332,1408.121
1333,1409.298
1334,1409.785
1335,1409.507
1336,1408.642
1337,1407.572
1338,1406.654
1339,1406.137
1340,1406.182
1341,1406.854
1342,1408.125
1343,1409.872
1344,1411.901
1345,1413.971
1346,1415.799
1347,1417.136
1348,1417.910
1349,1418.320
1350,1418.656
1351,1419.136
1352,1419.833
1353,1420.710
1354,1421.624
1355,1422.395
1356,1422.879
1357,1423.039
1358,1423.014
1359,1423.030
1360,1423.305
1361,1423.953
1362,1424.953
1363,1426.150
1364,1427.269
1365,1427.941
1366,1427.831
1367,1426.798
1368,1424.924
1369,1422.465
1370,1419.739
1371,1417.095
1372,1414.856
1373,1413.278
1374,1412.507
1375,1412.573
1376,1413.385
1377,1414.713
1378,1416.254
1379,1417.701
1380,1418.730
1381,1419.054
1382,1418.492
1383,1417.082
1384,1415.098
1385,1412.889
1386,1410.741
1387,1408.863
1388,1407.453
1389,1406.662
1390,1406.527
1391,1406.912
1392,1407.510
1393,1407.920
1394,1407.842
1395,1407.223
1396,1406.170
1397,1404.813
1398,1403.194
1399,1401.263
1400,1398.959
1401,1396.315
1402,1393.507
1403,1390.752
1404,1388.145
1405,1385.698
1406,1383.451
1407,1381.513
1408,1379.967
1409,1378.795
1410,1377.913
1411,1377.253
1412,1376.802
1413,1376.581
1414,1376.577
1415,1376.725
1416,1376.979
1417,1377.298
1418,1377.643
1419,1377.950
1420,1378.196
1421,1378.438
1422,1378.778
1423,1379.258
1424,1379.865
1425,1380.594
1426,1381.349
1427,1381.931
1428,1382.214
1429,1382.214
1430,1382.041
1431,1381.795
1432,1381.480
1433,1381.066
1434,1380.557
1435,1379.992
1436,1379.348
1437,1378.557
1438,1377.598
1439,1376.565
1440,1375.618
1441,1374.917
1442,1374.490
1443,1374.208
1444,1373.929
1445,1373.617
1446,1373.322
1447,1373.064
1448,1372.818
1449,1372.527
1450,1372.158
1451,1371.715
1452,1371.256
1453,1370.817
1454,1370.395
1455,1369.932
1456,1369.399
1457,1368.846
1458,1368.300
1459,1367.825
1460,1367.522
1461,1367.419
1462,1367.403
1463,1367.358
1464,1367.272
1465,1367.185
1466,1367.140
1467,1367.181
1468,1367.317
1469,1367.526
1470,1367.817
1471,1368.141
1472,1368.362
1473,1368.411
1474,1368.276
1475,1367.940
1476,1367.366
1477,1366.653
1478,1366.001
1479,1365.538
1480,1365.234
1481,1364.988
1482,1364.763
1483,1364.541
1484,1364.312
1485,1364.119
1486,1364.033
1487,1364.049
1488,1364.107
1489,1364.131
1490,1364.078
1491,1363.910
1492,1363.640
1493,1363.279
1494,1362.824
1495,1362.184
1496,1361.086
1497,1359.151
1498,1356.142
1499,1352.174
1500,1347.677
1501,1343.221
1502,1339.306
1503,1336.277
1504,1334.329
1505,1333.538
1506,1333.854
1507,1335.108
1508,1336.974
1509,1338.982
1510,1340.597
1511,1341.421
1512,1341.368
1513,1340.671
1514,1339.757
1515,1338.958
1516,1338.343
1517,1337.752
1518,1336.974
1519,1335.879
1520,1334.555
1521,1333.214
1522,1331.985
1523,1330.825
1524,1329.681
1525,1328.672
1526,1328.033
1527,1327.869
1528,1328.066
1529,1328.484
1530,1329.111
1531,1329.980
1532,1331.034
1533,1332.083
1534,1332.903
1535,1333.403
1536,1333.715
1537,1334.133
1538,1334.916
1539,1336.145
1540,1337.765
1541,1339.741
1542,1342.073
1543,1344.709
1544,1347.537
1545,1350.423
1546,1353.305
1547,1356.224
1548,1359.348
1549,1362.865
1550,1366.825
1551,1371.072
1552,1375.302
1553,1379.254
1554,1382.792
1555,1385.919
1556,1388.711
1557,1391.216
1558,1393.409
1559,1395.319
1560,1396.987
1561,1398.406
1562,1399.513
1563,1400.287
1564,1400.726
1565,1400.775
1566,1400.332
1567,1399.332
1568,1397.799
1569,1395.938
1570,1394.081
1571,1392.499
1572,1391.265
1573,1390.371
1574,1389.842
1575,1389.785
1576,1390.215
1577,1391.015
1578,1391.949
1579,1392.847
1580,1393.675
1581,1394.421
1582,1394.913
1583,1394.876
1584,1394.163
1585,1392.864
1586,1391.220
1587,1389.506
1588,1387.973
1589,1386.805
1590,1386.079
1591,1385.792
1592,1385.895
1593,1386.247
1594,1386.686
1595,1387.120
1596,1387.514
1597,1387.858
1598,1388.141
1599,1388.330
1600,1388.383
1601,1388.231
1602,1387.830
1603,1387.170
1604,1386.251
1605,1385.067
1606,1383.702
1607,1382.308
1608,1380.976
1609,1379.770
1610,1378.823
1611,1378.262
1612,1378.036
1613,1377.881
1614,1377.458
1615,1376.491
1616,1374.900
1617,1372.867
1618,1370.727
1619,1368.755
1620,1367.054
1621,1365.599
1622,1364.328
1623,1363.098
1624,1361.733
1625,1360.221
1626,1358.724
1627,1357.388
1628,1356.261
1629,1355.388
1630,1354.904
1631,1354.855
1632,1355.174
1633,1355.822
1634,1356.794
1635,1358.122
1636,1359.889
1637,1362.160
1638,1364.882
1639,1367.870
1640,1370.826
1641,1373.404
1642,1375.380
1643,1376.749
1644,1377.762
1645,1378.914
1646,1380.758
1647,1383.673
1648,1387.756
1649,1392.851
1650,1398.648
1651,1404.776
1652,1410.827
1653,1416.430
1654,1421.337
1655,1425.498
1656,1429.077
1657,1432.241
1658,1435.009
1659,1437.230
1660,1438.747
1661,1439.542
1662,1439.731
1663,1439.448
1664,1438.788
1665,1437.743
1666,1436.201
1667,1434.057
1668,1431.290
1669,1428.031
1670,1424.469
1671,1420.784
1672,1417.119
1673,1413.577
1674,1410.294
1675,1407.514
1676,1405.489
1677,1404.411
1678,1404.383
1679,1405.411
1680,1407.391
1681,1410.150
1682,1413.520
1683,1417.336
1684,1421.452
1685,1425.732
1686,1430.024
1687,1434.234
1688,1438.427
1689,1442.801
1690,1447.524
1691,1452.566
1692,1457.719
1693,1462.687
1694,1467.225
1695,1471.185
1696,1474.501
1697,1477.219
1698,1479.539
1699,1481.704
1700,1483.844
1701,1485.901
1702,1487.738
1703,1489.349
1704,1490.825
1705,1492.194
1706,1493.338
1707,1494.104
1708,1494.362
1709,1494.030
1710,1493.149
1711,1491.903
1712,1490.497
1713,1489.029
1714,1487.480
1715,1485.852
1716,1484.200
1717,1482.585
1718,1480.925
1719,1479.002
1720,1476.608
1721,1473.677
1722,1470.320
1723,1466.770
1724,1463.339
1725,1460.338
1726,1458.002
1727,1456.440
1728,1455.608
1729,1455.308
1730,1455.226
1731,1455.009
1732,1454.464
1733,1453.615
1734,1452.615
1735,1451.582
1736,1450.569
1737,1449.668
1738,1449.008
1739,1448.667
1740,1448.577
1741,1448.610
1742,1448.622
1743,1448.536
1744,1448.331
1745,1448.020
1746,1447.585
1747,1447.019
1748,1446.380
1749,1445.761
1750,1445.249
1751,1444.876
1752,1444.625
1753,1444.441
1754,1444.261
1755,1444.052
1756,1443.822
1757,1443.621
1758,1443.449
1759,1443.187
1760,1442.646
1761,1441.678
1762,1440.264
1763,1438.460
1764,1436.357
1765,1434.057
1766,1431.766
1767,1429.815
1768,1428.515
1769,1428.060
1770,1428.552
1771,1429.970
1772,1432.119
1773,1434.558
1774,1436.714
1775,1438.079
1776,1438.354
1777,1437.423
1778,1435.316
1779,1432.180
1780,1428.314
1781,1424.145
1782,1420.132
1783,1416.685
1784,1414.082
1785,1412.483
1786,1411.913
1787,1412.290
1788,1413.401
1789,1414.946
1790,1416.545
1791,1417.796
1792,1418.394
1793,1418.259
1794,1417.484
1795,1416.143
1796,1414.262
1797,1411.872
1798,1409.023
1799,1405.694
1800,1401.800
1801,1397.307
1802,1392.400
1803,1387.485
1804,1383.013
1805,1379.291
1806,1376.417
1807,1374.298
1808,1372.703
1809,1371.395
1810,1370.248
1811,1369.231
1812,1368.333
1813,1367.497
1814,1366.636
1815,1365.726
1816,1364.750
1817,1363.705
1818,1362.590
1819,1361.385
1820,1360.053
1821,1358.573
1822,1357.040
1823,1355.601
1824,1354.322
1825,1353.133
1826,1352.034
1827,1351.141
1828,1350.505
1829,1350.067
1830,1349.735
1831,1349.444
1832,1349.157
1833,1348.923
1834,1348.792
1835,1348.726
1836,1348.673
1837,1348.607
1838,1348.521
1839,1348.329
1840,1347.943
1841,1347.312
1842,1346.459
1843,1345.508
1844,1344.729
1845,1344.414
1846,1344.791
1847,1346.000
1848,1348.087
1849,1350.969
1850,1354.449
1851,1358.163
1852,1361.684
1853,1364.701
1854,1367.173
1855,1369.260
1856,1371.133
1857,1372.847
1858,1374.310
1859,1375.384
1860,1376.056
1861,1376.462
1862,1376.761
1863,1377.077
1864,1377.475
1865,1377.967
1866,1378.532
1867,1379.168
1868,1379.901
1869,1380.783
1870,1381.836
1871,1383.078
1872,1384.501
1873,1386.055
1874,1387.629
1875,1389.211
1876,1390.884
1877,1392.654
1878,1394.376
1879,1395.868
1880,1397.041
1881,1397.979
1882,1398.832
1883,1399.636
1884,1400.230
1885,1400.373
1886,1399.931
1887,1399.062
1888,1398.172
1889,1397.729
1890,1398.061
1891,1399.291
1892,1401.312
1893,1403.846
1894,1406.522
1895,1409.048
1896,1411.355
1897,1413.606
1898,1416.037
1899,1418.783
1900,1421.866
1901,1425.158
1902,1428.409
1903,1431.352
1904,1433.861
1905,1435.935
1906,1437.616
1907,1438.948
1908,1440.034
1909,1440.977
1910,1441.813
1911,1442.572
1912,1443.285
1913,1444.002
1914,1444.720
1915,1445.454
1916,1446.298
1917,1447.315
1918,1448.479
1919,1449.729
1920,1451.016
1921,1452.332
1922,1453.722
1923,1455.214
1924,1456.714
1925,1458.059
1926,1459.100
1927,1459.719
1928,1459.904
1929,1459.760
1930,1459.391
1931,1458.866
1932,1458.235
1933,1457.501
1934,1456.698
1935,1455.903
1936,1455.169
1937,1454.484
1938,1453.853
1939,1453.255
1940,1452.533
1941,1451.459
1942,1449.893
1943,1447.884
1944,1445.507
1945,1442.789
1946,1439.743
1947,1436.439
1948,1433.029
1949,1429.704
1950,1426.695
1951,1424.145
1952,1422.026
1953,1420.149
1954,1418.275
1955,1416.209
1956,1413.860
1957,1411.294
1958,1408.609
1959,1405.830
1960,1402.985
1961,1400.181
1962,1397.582
1963,1395.372
1964,1393.774
1965,1392.978
1966,1393.073
1967,1394.024
1968,1395.631
1969,1397.586
1970,1399.549
1971,1401.308
1972,1402.792
1973,1404.005
1974,1404.924
1975,1405.493
1976,1405.703
1977,1405.604
1978,1405.280
1979,1404.764
1980,1404.034
1981,1403.099
1982,1401.997
1983,1400.816
1984,1399.648
1985,1398.566
1986,1397.537
1987,1396.446
1988,1395.180
1989,1393.675
1990,1391.933
1991,1390.023
1992,1388.133
1993,1386.526
1994,1385.431
1995,1384.915
1996,1384.874
1997,1385.140
1998,1385.567
1999,1386.055
2000,1386.583
2001,1387.252
2002,1388.071
2003,1388.940
2004,1389.760
2005,1390.560
2006,1391.375
2007,1392.183
2008,1392.978
2009,1393.847
2010,1394.815
2011,1395.799
2012,1396.791
2013,1397.967
2014,1399.525
2015,1401.529
2016,1403.878
2017,1406.469
2018,1409.232
2019,1412.069
2020,1414.860
2021,1417.545
2022,1420.136
2023,1422.612
2024,1424.924
2025,1427.039
2026,1428.974
2027,1430.753
2028,1432.393
2029,1433.881
2030,1435.177
2031,1436.238
2032,1437.042
2033,1437.583
2034,1437.874
2035,1437.948
2036,1437.878
2037,1437.747
2038,1437.587
2039,1437.407
2040,1437.173
2041,1436.825
2042,1436.283
2043,1435.505
2044,1434.492
2045,1433.295
2046,1431.991
2047,1430.643
2048,1429.261
2049,1427.859
2050,1426.396
2051,1424.740
2052,1422.719
2053,1420.292
2054,1417.558
2055,1414.733
2056,1411.966
2057,1409.265
2058,1406.576
2059,1403.948
2060,1401.513
2061,1399.291
2062,1397.196
2063,1395.180
2064,1393.302
2065,1391.646
2066,1390.178
2067,1388.723
2068,1386.985
2069,1384.669
2070,1381.648
2071,1377.979
2072,1373.859
2073,1369.522
2074,1365.164
2075,1360.987
2076,1357.228
2077,1354.055
2078,1351.538
2079,1349.702
2080,1348.480
2081,1347.706
2082,1347.222
2083,1346.943
2084,1346.746
2085,1346.529
2086,1346.258
2087,1345.984
2088,1345.791
2089,1345.762
2090,1345.976
2091,1346.431
2092,1347.054
2093,1347.685
2094,1348.218
2095,1348.661
2096,1349.030
2097,1349.300
2098,1349.452
2099,1349.538
2100,1349.587
2101,1349.595
2102,1349.653
2103,1349.948
2104,1350.600
2105,1351.559
2106,1352.670
2107,1353.809
2108,1354.961
2109,1356.207
2110,1357.622
2111,1359.204
2112,1360.872
2113,1362.508
2114,1363.988
2115,1365.226
2116,1366.234
2117,1367.042
2118,1367.620
2119,1367.927
2120,1368.005
2121,1368.038
2122,1368.247
2123,1368.731
2124,1369.428
2125,1370.211
2126,1370.969
2127,1371.654
2128,1372.281
2129,1372.879
2130,1373.498
2131,1374.179
2132,1374.921
2133,1375.655
2134,1376.323
2135,1376.970
2136,1377.762
2137,1378.873
2138,1380.447
2139,1382.554
2140,1385.140
2141,1388.071
2142,1391.146
2143,1394.044
2144,1396.364
2145,1397.828
2146,1398.373
2147,1398.201
2148,1397.721
2149,1397.401
2150,1397.541
2151,1398.148
2152,1399.021
2153,1399.914
2154,1400.628
2155,1401.054
2156,1401.210
2157,1401.243
2158,1401.378
2159,1401.775
2160,1402.517
2161,1403.620
2162,1405.022
2163,1406.686
2164,1408.666
2165,1411.036
2166,1413.749
2167,1416.668
2168,1419.673
2169,1422.706
2170,1425.650
2171,1428.241
2172,1430.208
2173,1431.430
2174,1432.016
2175,1432.311
2176,1432.754
2177,1433.672
2178,1435.189
2179,1437.316
2180,1439.997
2181,1443.019
2182,1446.064
2183,1448.827
2184,1451.135
2185,1452.968
2186,1454.353
2187,1455.304
2188,1455.915
2189,1456.440
2190,1457.214
2191,1458.489
2192,1460.318
2193,1462.560
2194,1464.995
2195,1467.405
2196,1469.644
2197,1471.628
2198,1473.341
2199,1474.825
2200,1476.088
2201,1477.084
2202,1477.760
2203,1478.068
2204,1477.977
2205,1477.481
2206,1476.559
2207,1475.157
2208,1473.251
2209,1470.918
2210,1468.287
2211,1465.516
2212,1462.810
2213,1460.371
2214,1458.288
2215,1456.587
2216,1455.263
2217,1454.300
2218,1453.644
2219,1453.140
2220,1452.545
2221,1451.668
2222,1450.414
2223,1448.762
2224,1446.704
2225,1444.252
2226,1441.461
2227,1438.477
2228,1435.455
2229,1432.496
2230,1429.610
2231,1426.753
2232,1423.916
2233,1421.190
2234,1418.669
2235,1416.463
2236,1414.733
2237,1413.581
2238,1412.930
2239,1412.540
2240,1412.200
2241,1411.876
2242,1411.638
2243,1411.487
2244,1411.233
2245,1410.507
2246,1408.978
2247,1406.481
2248,1403.099
2249,1399.152
2250,1395.126
2251,1391.531
2252,1388.723
2253,1386.891
2254,1386.075
2255,1386.190
2256,1387.055
2257,1388.428
2258,1390.113
2259,1392.019
2260,1394.147
2261,1396.455
2262,1398.885
2263,1401.378
2264,1403.903
2265,1406.481
2266,1409.187
2267,1411.995
2268,1414.668
2269,1416.890
2270,1418.492
2271,1419.509
2272,1420.169
2273,1420.804
2274,1421.706
2275,1423.051
2276,1424.875
2277,1427.027
2278,1429.233
2279,1431.180
2280,1432.737
2281,1433.951
2282,1434.902
2283,1435.607
2284,1436.083
2285,1436.341
2286,1436.353
2287,1436.128
2288,1435.701
2289,1435.054
2290,1434.070
2291,1432.746
2292,1431.282
2293,1429.975
2294,1429.077
2295,1428.700
2296,1428.806
2297,1429.200
2298,1429.577
2299,1429.610
2300,1429.056
2301,1427.851
2302,1425.957
2303,1423.301
2304,1419.825
2305,1415.602
2306,1410.802
2307,1405.629
2308,1400.382
2309,1395.417
2310,1391.084
2311,1387.616
2312,1385.124
2313,1383.583
2314,1382.849
2315,1382.681
2316,1382.800
2317,1382.910
2318,1382.738
2319,1382.050
2320,1380.750
2321,1378.926
2322,1376.823
2323,1374.695
2324,1372.638
2325,1370.629
2326,1368.641
2327,1366.653
2328,1364.656
2329,1362.762
2330,1361.164
2331,1360.003
2332,1359.282
2333,1358.835
2334,1358.433
2335,1357.941
2336,1357.404
2337,1356.925
2338,1356.564
2339,1356.330
2340,1356.216
2341,1356.203
2342,1356.265
2343,1356.388
2344,1356.597
2345,1356.908
2346,1357.359
2347,1358.019
2348,1358.909
2349,1359.942
2350,1361.036
2351,1362.238
2352,1363.640
2353,1365.193
2354,1366.677
2355,1367.845
2356,1368.661
2357,1369.333
2358,1370.104
2359,1371.051
2360,1372.023
2361,1372.756
2362,1373.117
2363,1373.150
2364,1372.974
2365,1372.736
2366,1372.642
2367,1372.830
2368,1373.269
2369,1373.839
2370,1374.478
2371,1375.113
2372,1375.585
2373,1375.794
2374,1375.786
2375,1375.696
2376,1375.581
2377,1375.458
2378,1375.318
2379,1375.097
2380,1374.712
2381,1374.142
2382,1373.404
2383,1372.601
2384,1371.928
2385,1371.568
2386,1371.543
2387,1371.691
2388,1371.793
2389,1371.744
2390,1371.588
2391,1371.461
2392,1371.514
2393,1371.846
2394,1372.445
2395,1373.170
2396,1373.859
2397,1374.392
2398,1374.716
2399,1374.814
2400,1374.736
2401,1374.560
2402,1374.347
2403,1374.105
2404,1373.839
2405,1373.543
2406,1373.187
2407,1372.724
2408,1372.182
2409,1371.711
2410,1371.482
2411,1371.551
2412,1371.896
2413,1372.531
2414,1373.498
2415,1374.810
2416,1376.450
2417,1378.352
2418,1380.393
2419,1382.451
2420,1384.460
2421,1386.350
2422,1388.018
2423,1389.395
2424,1390.490
2425,1391.334
2426,1391.966
2427,1392.421
2428,1392.782
2429,1393.142
2430,1393.577
2431,1394.122
2432,1394.766
2433,1395.503
2434,1396.282
2435,1397.061
2436,1397.856
2437,1398.721
2438,1399.677
2439,1400.755
2440,1401.948
2441,1403.251
2442,1404.719
2443,1406.387
2444,1408.244
2445,1410.208
2446,1412.138
2447,1413.913
2448,1415.541
2449,1417.099
2450,1418.578
2451,1419.829
2452,1420.751
2453,1421.407
2454,1421.891
2455,1422.178
2456,1422.223
2457,1422.087
2458,1421.919
2459,1421.842
2460,1421.948
2461,1422.362
2462,1423.231
2463,1424.654
2464,1426.597
2465,1428.872
2466,1431.192
2467,1433.246
2468,1434.722
2469,1435.402
2470,1435.242
2471,1434.422
2472,1433.234
2473,1431.950
2474,1430.704
2475,1429.565
2476,1428.646
2477,1428.027
2478,1427.679
2479,1427.494
2480,1427.445
2481,1427.572
2482,1427.888
2483,1428.277
2484,1428.519
2485,1428.376
2486,1427.695
2487,1426.396
2488,1424.436
2489,1421.952
2490,1419.288
2491,1416.857
2492,1414.967
2493,1413.766
2494,1413.241
2495,1413.274
2496,1413.688
2497,1414.254
2498,1414.795
2499,1415.221
2500,1415.488
2501,1415.545
2502,1415.348
2503,1414.860
2504,1414.106
2505,1413.151
2506,1412.028
2507,1410.704
2508,1409.195
2509,1407.572
2510,1405.957
2511,1404.547
2512,1403.477
2513,1402.731
2514,1402.165
2515,1401.620
2516,1400.968
2517,1400.148
2518,1399.193
2519,1398.172
2520,1397.155
2521,1396.225
2522,1395.471
2523,1394.889
2524,1394.466
2525,1394.282
2526,1394.417
2527,1394.905
2528,1395.721
2529,1396.836
2530,1398.135
2531,1399.410
2532,1400.509
2533,1401.411
2534,1402.103
2535,1402.550
2536,1402.763
2537,1402.808
2538,1402.718
2539,1402.517
2540,1402.267
2541,1402.058
2542,1401.939
2543,1401.915
2544,1401.976
2545,1402.071
2546,1402.120
2547,1402.148
2548,1402.304
2549,1402.735
2550,1403.501
2551,1404.534
2552,1405.653
2553,1406.625
2554,1407.285
2555,1407.564
2556,1407.482
2557,1407.125
2558,1406.555
2559,1405.850
2560,1405.034
2561,1404.083
2562,1403.005
2563,1401.902
2564,1400.939
2565,1400.222
2566,1399.701
2567,1399.209
2568,1398.598
2569,1397.881
2570,1397.225
2571,1396.750
2572,1396.528
2573,1396.651
2574,1397.209
2575,1398.111
2576,1399.045
2577,1399.631
2578,1399.644
2579,1399.058
2580,1398.037
2581,1396.832
2582,1395.770
2583,1395.147
2584,1395.098
2585,1395.520
2586,1396.241
2587,1397.160
2588,1398.197
2589,1399.246
2590,1400.177
2591,1400.886
2592,1401.267
2593,1401.230
2594,1400.718
2595,1399.652
2596,1397.988
2597,1395.733
2598,1392.941
2599,1389.674
2600,1386.055
2601,1382.279
2602,1378.602
2603,1375.294
2604,1372.654
2605,1370.932
2606,1370.211
2607,1370.366
2608,1371.108
2609,1372.084
2610,1372.920
2611,1373.285
2612,1372.945
2613,1371.863
2614,1370.260
2615,1368.505
2616,1366.886
2617,1365.505
2618,1364.361
2619,1363.476
2620,1362.816
2621,1362.266
2622,1361.701
2623,1361.053
2624,1360.266
2625,1359.384
2626,1358.589
2627,1358.019
2628,1357.667
2629,1357.433
2630,1357.232
2631,1356.986
2632,1356.638
2633,1356.175
2634,1355.634
2635,1355.080
2636,1354.674
2637,1354.670
2638,1355.322
2639,1356.794
2640,1359.126
2641,1362.254
2642,1365.984
2643,1370.039
2644,1374.121
2645,1378.057
2646,1381.763
2647,1385.198
2648,1388.301
2649,1391.080
2650,1393.593
2651,1395.909
2652,1398.045
2653,1399.984
2654,1401.693
2655,1403.140
2656,1404.280
2657,1405.157
2658,1405.862
2659,1406.404
2660,1406.707
2661,1406.715
2662,1406.465
2663,1405.998
2664,1405.358
2665,1404.624
2666,1403.878
2667,1403.190
2668,1402.575
2669,1402.079
2670,1401.792
2671,1401.780
2672,1402.075
2673,1402.714
2674,1403.620
2675,1404.579
2676,1405.403
2677,1405.998
2678,1406.285
2679,1406.215
2680,1405.838
2681,1405.235
2682,1404.444
2683,1403.514
2684,1402.583
2685,1401.821
2686,1401.320
2687,1401.087
2688,1401.095
2689,1401.304
2690,1401.689
2691,1402.247
2692,1402.989
2693,1403.936
2694,1405.133
2695,1406.629
2696,1408.461
2697,1410.609
2698,1412.946
2699,1415.238
2700,1417.201
2701,1418.669
2702,1419.661
2703,1420.259
2704,1420.522
2705,1420.546
2706,1420.567
2707,1420.821
2708,1421.382
2709,1422.112
2710,1422.731
2711,1423.030
2712,1423.014
2713,1422.809
2714,1422.543
2715,1422.329
2716,1422.358
2717,1422.809
2718,1423.735
2719,1425.096
2720,1426.843
2721,1428.839
2722,1430.790
2723,1432.332
2724,1433.168
2725,1433.270
2726,1432.852
2727,1432.200
2728,1431.467
2729,1430.692
2730,1429.909
2731,1429.142
2732,1428.400
2733,1427.724
2734,1427.187
2735,1426.839
2736,1426.699
2737,1426.757
2738,1426.921
2739,1427.011
2740,1426.863
2741,1426.367
2742,1425.498
2743,1424.301
2744,1422.916
2745,1421.464
2746,1419.980
2747,1418.447
2748,1416.816
2749,1415.069
2750,1413.212
2751,1411.253
2752,1409.171
2753,1406.941
2754,1404.670
2755,1402.591
2756,1400.886
2757,1399.541
2758,1398.369
2759,1397.057
2760,1395.331
2761,1393.101
2762,1390.506
2763,1387.764
2764,1385.104
2765,1382.779
2766,1381.037
2767,1379.971
2768,1379.492
2769,1379.364
2770,1379.344
2771,1379.299
2772,1379.217
2773,1379.168
2774,1379.160
2775,1379.151
2776,1379.078
2777,1378.848
2778,1378.340
2779,1377.438
2780,1376.069
2781,1374.302
2782,1372.363
2783,1370.481
2784,1368.784
2785,1367.390
2786,1366.472
2787,1366.177
2788,1366.571
2789,1367.706
2790,1369.559
2791,1371.978
2792,1374.736
2793,1377.553
2794,1380.086
2795,1382.074
2796,1383.472
2797,1384.411
2798,1385.145
2799,1385.907
2800,1386.833
2801,1388.006
2802,1389.498
2803,1391.326
2804,1393.388
2805,1395.553
2806,1397.717
2807,1399.824
2808,1401.800
2809,1403.612
2810,1405.276
2811,1406.797
2812,1408.109
2813,1409.162
2814,1409.978
2815,1410.568
2816,1410.966
2817,1411.212
2818,1411.298
2819,1411.155
2820,1410.782
2821,1410.286
2822,1409.749
2823,1409.203
2824,1408.634
2825,1408.023
2826,1407.375
2827,1406.686
2828,1405.977
2829,1405.268
2830,1404.567
2831,1403.866
2832,1403.128
2833,1402.337
2834,1401.497
2835,1400.599
2836,1399.599
2837,1398.434
2838,1397.057
2839,1395.426
2840,1393.642
2841,1391.880
2842,1390.248
2843,1388.723
2844,1387.264
2845,1385.964
2846,1385.038
2847,1384.657
2848,1384.788
2849,1385.177
2850,1385.440
2851,1385.210
2852,1384.300
2853,1382.763
2854,1380.865
2855,1378.901
2856,1377.020
2857,1375.220
2858,1373.502
2859,1371.875
2860,1370.252
2861,1368.460
2862,1366.398
2863,1364.086
2864,1361.610
2865,1359.040
2866,1356.433
2867,1353.879
2868,1351.514
2869,1349.472
2870,1347.747
2871,1346.230
2872,1344.791
2873,1343.405
2874,1342.085
2875,1340.872
2876,1339.855
2877,1339.126
2878,1338.708
2879,1338.531
2880,1338.486
2881,1338.494
2882,1338.531
2883,1338.658
2884,1339.003
2885,1339.622
2886,1340.528
2887,1341.737
2888,1343.254
2889,1345.020
2890,1346.947
2891,1348.870
2892,1350.628
2893,1352.198
2894,1353.711
2895,1355.281
2896,1356.876
2897,1358.315
2898,1359.409
2899,1360.114
2900,1360.598
2901,1361.127
2902,1361.910
2903,1363.021
2904,1364.422
2905,1366.070
2906,1367.878
2907,1369.707
2908,1371.449
2909,1373.080
2910,1374.601
2911,1376.024
2912,1377.413
2913,1378.811
2914,1380.184
2915,1381.513
2916,1382.812
2917,1384.070
2918,1385.255
2919,1386.358
2920,1387.375
2921,1388.293
2922,1389.039
2923,1389.486
2924,1389.576
2925,1389.400
2926,1389.145
2927,1388.986
2928,1389.022
2929,1389.309
2930,1389.859
2931,1390.670
2932,1391.687
2933,1392.818
2934,1393.983
2935,1395.122
2936,1396.143
2937,1396.885
2938,1397.176
2939,1396.967
2940,1396.463
2941,1396.049
2942,1396.151
2943,1397.094
2944,1399.037
2945,1401.964
2946,1405.645
2947,1409.658
2948,1413.499
2949,1416.709
2950,1418.984
2951,1420.206
2952,1420.452
2953,1419.907
2954,1418.775
2955,1417.345
2956,1416.000
2957,1415.168
2958,1415.106
2959,1415.889
2960,1417.422
2961,1419.452
2962,1421.657
2963,1423.719
2964,1425.363
2965,1426.334
2966,1426.511
2967,1425.990
2968,1425.084
2969,1424.190
2970,1423.617
2971,1423.440
2972,1423.563
2973,1423.867
2974,1424.186
2975,1424.309
2976,1424.014
2977,1423.170
2978,1421.821
2979,1420.124
2980,1418.283
2981,1416.496
2982,1414.987
2983,1413.918
2984,1413.335
2985,1413.200
2986,1413.426
2987,1413.872
2988,1414.360
2989,1414.840
2990,1415.418
2991,1416.164
2992,1416.980
2993,1417.636
2994,1417.947
2995,1417.865
2996,1417.422
2997,1416.676
2998,1415.664
2999,1414.373
3000,1412.721
3001,1410.642
3002,1408.195
3003,1405.612
3004,1403.108
3005,1400.800
3006,1398.734
3007,1396.922
3008,1395.385
3009,1394.196
3010,1393.450
3011,1393.126
3012,1392.995
3013,1392.716
3014,1392.027
3015,1390.933
3016,1389.670
3017,1388.518
3018,1387.625
3019,1387.018
3020,1386.604
3021,1386.198
3022,1385.587
3023,1384.591
3024,1383.148
3025,1381.349
3026,1379.389
3027,1377.458
3028,1375.610
3029,1373.806
3030,1372.076
3031,1370.563
3032,1369.428
3033,1368.678
3034,1368.186
3035,1367.809
3036,1367.563
3037,1367.665
3038,1368.362
3039,1369.784
3040,1371.937
3041,1374.728
3042,1377.893
3043,1381.008
3044,1383.644
3045,1385.546
3046,1386.633
3047,1387.001
3048,1386.899
3049,1386.579
3050,1386.247
3051,1386.059
3052,1386.091
3053,1386.292
3054,1386.587
3055,1386.965
3056,1387.481
3057,1388.215
3058,1389.170
3059,1390.277
3060,1391.388
3061,1392.437
3062,1393.454
3063,1394.438
3064,1395.299
3065,1396.004
3066,1396.598
3067,1397.168
3068,1397.795
3069,1398.500
3070,1399.226
3071,1399.882
3072,1400.447
3073,1400.902
3074,1401.243
3075,1401.521
3076,1401.816
3077,1402.116
3078,1402.374
3079,1402.599
3080,1402.825
3081,1403.079
3082,1403.362
3083,1403.628
3084,1403.764
3085,1403.665
3086,1403.292
3087,1402.657
3088,1401.816
3089,1400.833
3090,1399.701
3091,1398.385
3092,1396.832
3093,1395.032
3094,1393.036
3095,1390.978
3096,1389.117
3097,1387.686
3098,1386.792
3099,1386.407
3100,1386.436
3101,1386.645
3102,1386.706
3103,1386.337
3104,1385.395
3105,1383.886
3106,1381.972
3107,1379.873
3108,1377.700
3109,1375.380
3110,1372.744
3111,1369.715
3112,1366.370
3113,1362.877
3114,1359.417
3115,1356.142
3116,1353.174
3117,1350.649
3118,1348.739
3119,1347.521
3120,1346.890
3121,1346.615
3122,1346.468
3123,1346.271
3124,1345.873
3125,1345.164
3126,1344.205
3127,1343.217
3128,1342.405
3129,1341.823
3130,1341.483
3131,1341.388
3132,1341.507
3133,1341.766
3134,1342.126
3135,1342.585
3136,1343.073
3137,1343.508
3138,1343.873
3139,1344.209
3140,1344.611
3141,1345.164
3142,1345.881
3143,1346.734
3144,1347.710
3145,1348.829
3146,1350.136
3147,1351.694
3148,1353.555
3149,1355.732
3150,1358.151
3151,1360.688
3152,1363.172
3153,1365.398
3154,1367.181
3155,1368.485
3156,1369.420
3157,1370.129
3158,1370.740
3159,1371.375
3160,1372.113
3161,1372.933
3162,1373.773
3163,1374.622
3164,1375.523
3165,1376.507
3166,1377.553
3167,1378.627
3168,1379.717
3169,1380.803
3170,1381.881
3171,1382.931
3172,1383.894
3173,1384.730
3174,1385.440
3175,1386.071
3176,1386.751
3177,1387.592
3178,1388.592
3179,1389.609
3180,1390.490
3181,1391.154
3182,1391.613
3183,1391.876
3184,1391.945
3185,1391.847
3186,1391.654
3187,1391.494
3188,1391.462
3189,1391.580
3190,1391.835
3191,1392.232
3192,1392.876
3193,1393.921
3194,1395.512
3195,1397.791
3196,1400.800
3197,1404.383
3198,1408.154
3199,1411.626
3200,1414.389
3201,1416.221
3202,1417.111
3203,1417.218
3204,1416.808
3205,1416.205
3206,1415.709
3207,1415.463
3208,1415.430
3209,1415.537
3210,1415.807
3211,1416.332
3212,1417.082
3213,1418.005
3214,1419.107
3215,1420.382
3216,1421.665
3217,1422.653
3218,1423.178
3219,1423.362
3220,1423.543
3221,1424.039
3222,1424.932
3223,1426.093
3224,1427.281
3225,1428.405
3226,1429.577
3227,1431.040
3228,1432.975
3229,1435.390
3230,1438.124
3231,1440.907
3232,1443.457
3233,1445.552
3234,1447.085
3235,1448.114
3236,1448.786
3237,1449.254
3238,1449.610
3239,1449.979
3240,1450.434
3241,1450.951
3242,1451.484
3243,1452.029
3244,1452.582
3245,1453.144
3246,1453.701
3247,1454.185
3248,1454.529
3249,1454.698
3250,1454.673
3251,1454.423
3252,1453.931
3253,1453.209
3254,1452.308
3255,1451.291
3256,1450.196
3257,1448.926
3258,1447.339
3259,1445.392
3260,1443.154
3261,1440.641
3262,1437.825
3263,1434.734
3264,1431.528
3265,1428.359
3266,1425.264
3267,1422.149
3268,1418.956
3269,1415.697
3270,1412.413
3271,1409.125
3272,1405.875
3273,1402.722
3274,1399.734
3275,1397.024
3276,1394.733
3277,1392.970
3278,1391.740
3279,1390.908
3280,1390.219
3281,1389.412
3282,1388.395
3283,1387.288
3284,1386.227
3285,1385.186
3286,1383.989
3287,1382.464
3288,1380.611
3289,1378.610
3290,1376.720
3291,1375.183
3292,1374.199
3293,1373.912
3294,1374.404
3295,1375.687
3296,1377.704
3297,1380.328
3298,1383.353
3299,1386.469
3300,1389.268
3301,1391.384
3302,1392.671
3303,1393.314
3304,1393.634
3305,1393.880
3306,1394.175
3307,1394.602
3308,1395.258
3309,1396.151
3310,1397.184
3311,1398.209
3312,1399.131
3313,1399.931
3314,1400.652
3315,1401.296
3316,1401.808
3317,1402.140
3318,1402.329
3319,1402.444
3320,1402.505
3321,1402.439
3322,1402.214
3323,1401.931
3324,1401.833
3325,1402.185
3326,1403.210
3327,1405.026
3328,1407.601
3329,1410.790
3330,1414.332
3331,1417.861
3332,1421.054
3333,1423.776
3334,1426.080
3335,1428.023
3336,1429.593
3337,1430.700
3338,1431.254
3339,1431.233
3340,1430.794
3341,1430.216
3342,1429.798
3343,1429.737
3344,1430.122
3345,1430.897
3346,1431.840
3347,1432.619
3348,1432.918
3349,1432.578
3350,1431.647
3351,1430.290
3352,1428.671
3353,1426.884
3354,1425.051
3355,1423.334
3356,1421.829
3357,1420.505
3358,1419.243
3359,1417.808
3360,1415.885
3361,1413.155
3362,1409.490
3363,1404.969
3364,1399.886
3365,1394.671
3366,1389.781
3367,1385.571
3368,1382.201
3369,1379.668
3370,1377.901
3371,1376.843
3372,1376.380
3373,1376.294
3374,1376.302
3375,1376.212
3376,1375.942
3377,1375.400
3378,1374.486
3379,1373.183
3380,1371.596
3381,1369.879
3382,1368.198
3383,1366.644
3384,1365.218
3385,1363.865
3386,1362.512
3387,1361.110
3388,1359.680
3389,1358.253
3390,1356.851
3391,1355.478
3392,1354.096
3393,1352.670
3394,1351.235
3395,1349.866
3396,1348.611
3397,1347.521
3398,1346.677
3399,1346.164
3400,1345.988
3401,1346.004
3402,1345.972
3403,1345.803
3404,1345.553
3405,1345.303
3406,1345.094
3407,1344.951
3408,1344.918
3409,1345.061
3410,1345.422
3411,1346.025
3412,1346.906
3413,1348.054
3414,1349.382
3415,1350.698
3416,1351.813
3417,1352.575
3418,1352.920
3419,1352.883
3420,1352.506
3421,1351.805
3422,1350.800
3423,1349.579
3424,1348.300
3425,1347.222
3426,1346.693
3427,1347.033
3428,1348.411
3429,1350.821
3430,1354.109
3431,1358.040
3432,1362.320
3433,1366.599
3434,1370.526
3435,1373.777
3436,1376.130
3437,1377.467
3438,1377.831
3439,1377.446
3440,1376.696
3441,1376.040
3442,1375.765
3443,1375.892
3444,1376.319
3445,1376.991
3446,1377.922
3447,1379.098
3448,1380.463
3449,1381.931
3450,1383.402
3451,1384.808
3452,1386.124
3453,1387.346
3454,1388.473
3455,1389.465
3456,1390.269
3457,1390.859
3458,1391.269
3459,1391.568
3460,1391.867
3461,1392.318
3462,1393.023
3463,1394.024
3464,1395.368
3465,1397.061
3466,1399.012
3467,1401.111
3468,1403.345
3469,1405.735
3470,1408.207
3471,1410.536
3472,1412.495
3473,1414.012
3474,1415.180
3475,1416.127
3476,1416.906
3477,1417.541
3478,1418.087
3479,1418.628
3480,1419.234
3481,1419.894
3482,1420.604
3483,1421.378
3484,1422.227
3485,1423.170
3486,1424.272
3487,1425.535
3488,1426.880
3489,1428.212
3490,1429.483
3491,1430.712
3492,1431.959
3493,1433.266
3494,1434.631
3495,1435.984
3496,1437.214
3497,1438.239
3498,1438.977
3499,1439.391
3500,1439.530
3501,1439.526
3502,1439.530
3503,1439.628
3504,1439.829
3505,1440.112
3506,1440.440
3507,1440.723
3508,1440.842
3509,1440.723
3510,1440.358
3511,1439.760
3512,1438.907
3513,1437.780
3514,1436.390
3515,1434.808
3516,1433.098
3517,1431.282
3518,1429.302
3519,1427.113
3520,1424.768
3521,1422.383
3522,1420.108
3523,1418.115
3524,1416.492
3525,1415.139
3526,1413.758
3527,1411.983
3528,1409.576
3529,1406.469
3530,1402.772
3531,1398.717
3532,1394.618
3533,1390.715
3534,1387.083
3535,1383.636
3536,1380.254
3537,1376.880
3538,1373.515
3539,1370.215
3540,1367.132
3541,1364.414
3542,1362.156
3543,1360.294
3544,1358.704
3545,1357.335
3546,1356.179
3547,1355.224
3548,1354.420
3549,1353.719
3550,1353.113
3551,1352.604
3552,1352.092
3553,1351.460
3554,1350.690
3555,1349.837
3556,1348.984
3557,1348.267
3558,1347.808
3559,1347.640
3560,1347.706
3561,1347.874
3562,1347.984
3563,1347.828
3564,1347.164
3565,1345.808
3566,1343.725
3567,1341.093
3568,1338.236
3569,1335.502
3570,1333.120
3571,1331.124
3572,1329.468
3573,1328.201
3574,1327.525
3575,1327.602
3576,1328.406
3577,1329.714
3578,1331.263
3579,1332.882
3580,1334.510
3581,1336.170
3582,1337.892
3583,1339.646
3584,1341.356
3585,1342.987
3586,1344.635
3587,1346.373
3588,1348.206
3589,1350.190
3590,1352.436
3591,1354.974
3592,1357.753
3593,1360.717
3594,1363.779
3595,1366.739
3596,1369.313
3597,1371.272
3598,1372.564
3599,1373.257
3600,1373.416
3601,1373.084
3602,1372.383
3603,1371.592
3604,1371.092
3605,1371.240
3606,1372.170
3607,1373.716
3608,1375.511
3609,1377.171
3610,1378.434
3611,1379.176
3612,1379.348
3613,1378.963
3614,1378.139
3615,1377.048
3616,1375.888
3617,1374.884
3618,1374.249
3619,1373.966
3620,1373.707
3621,1372.990
3622,1371.400
3623,1368.792
3624,1365.349
3625,1361.446
3626,1357.503
3627,1353.879
3628,1350.837
3629,1348.517
3630,1346.955
3631,1346.140
3632,1346.045
3633,1346.615
3634,1347.759
3635,1349.337
3636,1351.186
3637,1353.117
3638,1354.965
3639,1356.699
3640,1358.392
3641,1360.098
3642,1361.778
3643,1363.336
3644,1364.644
3645,1365.542
3646,1365.943
3647,1365.898
3648,1365.533
3649,1364.996
3650,1364.422
3651,1363.881
3652,1363.312
3653,1362.590
3654,1361.660
3655,1360.655
3656,1359.823
3657,1359.343
3658,1359.241
3659,1359.499
3660,1360.184
3661,1361.336
3662,1362.832
3663,1364.365
3664,1365.603
3665,1366.333
3666,1366.480
3667,1366.042
3668,1365.058
3669,1363.599
3670,1361.729
3671,1359.528
3672,1357.023
3673,1354.252
3674,1351.333
3675,1348.562
3676,1346.299
3677,1344.770
3678,1343.963
3679,1343.754
3680,1344.061
3681,1344.783
3682,1345.676
3683,1346.308
3684,1346.242
3685,1345.238
3686,1343.377
3687,1340.987
3688,1338.453
3689,1336.125
3690,1334.239
3691,1332.956
3692,1332.370
3693,1332.534
3694,1333.448
3695,1335.026
3696,1337.056
3697,1339.228
3698,1341.245
3699,1342.905
3700,1344.098
3701,1344.766
3702,1344.971
3703,1344.865
3704,1344.635
3705,1344.442
3706,1344.414
3707,1344.684
3708,1345.340
3709,1346.439
3710,1348.029
3711,1350.075
3712,1352.395
3713,1354.748
3714,1356.982
3715,1359.057
3716,1360.983
3717,1362.766
3718,1364.398
3719,1365.935
3720,1367.554
3721,1369.440
3722,1371.629
3723,1373.937
3724,1376.089
3725,1377.909
3726,1379.451
3727,1380.992
3728,1382.902
3729,1385.423
3730,1388.572
3731,1392.146
3732,1395.803
3733,1399.094
3734,1401.632
3735,1403.181
3736,1403.714
3737,1403.382
3738,1402.497
3739,1401.480
3740,1400.746
3741,1400.603
3742,1401.173
3743,1402.374
3744,1403.878
3745,1405.149
3746,1405.592
3747,1404.764
3748,1402.534
3749,1399.074
3750,1394.778
3751,1390.064
3752,1385.235
3753,1380.439
3754,1375.741
3755,1371.182
3756,1366.837
3757,1362.787
3758,1359.102
3759,1355.830
3760,1352.957
3761,1350.407
3762,1348.074
3763,1345.902
3764,1343.905
3765,1342.126
3766,1340.536
3767,1339.031
3768,1337.547
3769,1336.129
3770,1334.871
3771,1333.833
3772,1333.001
3773,1332.288
3774,1331.616
3775,1330.935
3776,1330.247
3777,1329.689
3778,1329.578
3779,1330.218
3780,1331.817
3781,1334.428
3782,1337.998
3783,1342.364
3784,1347.275
3785,1352.473
3786,1357.749
3787,1362.975
3788,1368.050
3789,1372.826
3790,1377.069
3791,1380.549
3792,1383.156
3793,1384.976
3794,1386.214
3795,1387.063
3796,1387.731
3797,1388.531
3798,1389.805
3799,1391.753
3800,1394.302
3801,1397.143
3802,1399.816
3803,1401.866
3804,1402.977
3805,1403.108
3806,1402.501
3807,1401.591
3808,1400.828
3809,1400.501
3810,1400.656
3811,1401.128
3812,1401.620
3813,1401.845
3814,1401.607
3815,1400.820
3816,1399.447
3817,1397.529
3818,1395.245
3819,1392.909
3820,1390.818
3821,1389.080
3822,1387.563
3823,1386.005
3824,1384.255
3825,1382.345
3826,1380.459
3827,1378.795
3828,1377.426
3829,1376.339
3830,1375.495
3831,1374.847
3832,1374.306
3833,1373.802
3834,1373.285
3835,1372.732
3836,1372.121
3837,1371.432
3838,1370.653
3839,1369.776
3840,1368.805
3841,1367.772
3842,1366.755
3843,1365.841
3844,1365.054
3845,1364.365
3846,1363.697
3847,1363.021
3848,1362.344
3849,1361.643
3850,1360.791
3851,1359.692
3852,1358.499
3853,1357.609
3854,1357.404
3855,1358.122
3856,1359.803
3857,1362.303
3858,1365.255
3859,1368.149
3860,1370.481
3861,1371.953
3862,1372.453
3863,1372.014
3864,1370.731
3865,1368.788
3866,1366.493
3867,1364.218
3868,1362.340
3869,1361.118
3870,1360.643
3871,1360.770
3872,1361.200
3873,1361.573
3874,1361.655
3875,1361.471
3876,1361.209
3877,1361.004
3878,1360.819
3879,1360.561
3880,1360.184
3881,1359.651
3882,1358.798
3883,1357.441
3884,1355.613
3885,1353.613
3886,1351.813
3887,1350.493
3888,1349.800
3889,1349.772
3890,1350.358
3891,1351.436
3892,1352.834
3893,1354.355
3894,1355.851
3895,1357.249
3896,1358.560
3897,1359.815
3898,1361.028
3899,1362.188
3900,1363.201
3901,1363.828
3902,1363.779
3903,1362.865
3904,1361.123
3905,1358.741
3906,1355.937
3907,1352.854
3908,1349.546
3909,1345.996
3910,1342.139
3911,1337.925
3912,1333.391
3913,1328.701
3914,1324.106
3915,1319.863
3916,1316.075
3917,1312.652
3918,1309.402
3919,1306.085
3920,1302.502
3921,1298.485
3922,1293.972
3923,1289.094
3924,1284.142
3925,1279.403
3926,1274.992
3927,1270.852
3928,1266.892
3929,1263.063
3930,1259.378
3931,1255.918
3932,1252.782
3933,1249.933
3934,1247.309
3935,1244.936
3936,1242.898
3937,1241.283
3938,1240.254
3939,1240.090
3940,1241.017
3941,1243.050
3942,1246.051
3943,1249.773
3944,1253.950
3945,1258.423
3946,1263.227
3947,1268.544
3948,1274.562
3949,1281.436
3950,1289.155
3951,1297.518
3952,1306.229
3953,1315.030
3954,1323.716
3955,1332.177
3956,1340.405
3957,1348.382
3958,1356.060
3959,1363.385
3960,1370.297
3961,1376.745
3962,1382.783
3963,1388.576
3964,1394.319
3965,1400.119
3966,1405.994
3967,1411.819
3968,1417.390
3969,1422.522
3970,1427.179
3971,1431.430
3972,1435.332
3973,1438.878
3974,1442.014
3975,1444.724
3976,1447.036
3977,1448.987
3978,1450.578
3979,1451.803
3980,1452.685
3981,1453.328
3982,1453.857
3983,1454.370
3984,1454.968
3985,1455.706
3986,1456.468
3987,1456.948
3988,1456.772
3989,1455.661
3990,1453.546
3991,1450.574
3992,1447.056
3993,1443.285
3994,1439.444
3995,1435.652
3996,1432.041
3997,1428.638
3998,1425.322
3999,1421.907
4000,1418.242
4001,1414.262
4002,1410.052
4003,1405.903
4004,1402.198
4005,1399.242
4006,1397.164
4007,1395.864
4008,1395.098
4009,1394.659
4010,1394.581
4011,1395.110
4012,1396.471
4013,1398.697
4014,1401.603
4015,1404.825
4016,1407.949
4017,1410.614
4018,1412.589
4019,1413.799
4020,1414.315
4021,1414.307
4022,1413.938
4023,1413.290
4024,1412.364
4025,1411.204
4026,1409.937
4027,1408.642
4028,1407.211
4029,1405.395
4030,1403.009
4031,1400.107
4032,1396.934
4033,1393.749
4034,1390.679
4035,1387.748
4036,1384.923
4037,1382.119
4038,1379.250
4039,1376.356
4040,1373.617
4041,1371.211
4042,1369.243
4043,1367.759
4044,1366.718
4045,1366.029
4046,1365.685
4047,1365.706
4048,1365.997
4049,1366.357
4050,1366.689
4051,1367.075
4052,1367.640
4053,1368.469
4054,1369.575
4055,1370.908
4056,1372.342
4057,1373.802
4058,1375.310
4059,1376.897
4060,1378.557
4061,1380.283
4062,1381.984
4063,1383.484
4064,1384.579
4065,1385.186
4066,1385.349
4067,1385.177
4068,1384.763
4069,1384.198
4070,1383.554
4071,1382.878
4072,1382.140
4073,1381.357
4074,1380.553
4075,1379.598
4076,1378.192
4077,1376.044
4078,1373.117
4079,1369.694
4080,1366.251
4081,1363.221
4082,1360.885
4083,1359.319
4084,1358.458
4085,1358.097
4086,1357.913
4087,1357.581
4088,1356.962
4089,1356.236
4090,1355.818
4091,1356.072
4092,1357.167
4093,1359.065
4094,1361.557
4095,1364.287
4096,1366.837
4097,1368.837
4098,1370.084
4099,1370.576
4100,1370.506
4101,1370.178
4102,1369.932
4103,1369.989
4104,1370.457
4105,1371.346
4106,1372.576
4107,1373.962
4108,1375.318
4109,1376.577
4110,1377.737
4111,1378.791
4112,1379.733
4113,1380.561
4114,1381.267
4115,1381.808
4116,1382.086
4117,1382.025
4118,1381.676
4119,1381.160
4120,1380.553
4121,1379.824
4122,1378.889
4123,1377.639
4124,1376.007
4125,1373.925
4126,1371.346
4127,1368.305
4128,1365.046
4129,1361.979
4130,1359.512
4131,1357.831
4132,1356.847
4133,1356.232
4134,1355.560
4135,1354.514
4136,1352.998
4137,1351.112
4138,1349.021
4139,1346.898
4140,1344.930
4141,1343.258
4142,1341.909
4143,1340.802
4144,1339.847
4145,1339.150
4146,1338.941
4147,1339.421
4148,1340.511
4149,1341.897
4150,1343.143
4151,1343.955
4152,1344.303
4153,1344.365
4154,1344.307
4155,1344.213
4156,1344.106
4157,1343.946
4158,1343.684
4159,1343.360
4160,1343.155
4161,1343.200
4162,1343.516
4163,1344.008
4164,1344.570
4165,1345.148
4166,1345.799
4167,1346.595
4168,1347.521
4169,1348.497
4170,1349.472
4171,1350.448
4172,1351.460
4173,1352.494
4174,1353.449
4175,1354.260
4176,1354.928
4177,1355.490
4178,1356.052
4179,1356.724
4180,1357.634
4181,1358.893
4182,1360.430
4183,1361.983
4184,1363.168
4185,1363.664
4186,1363.303
4187,1362.020
4188,1359.790
4189,1356.630
4190,1352.670
4191,1348.255
4192,1343.885
4193,1340.032
4194,1336.974
4195,1334.842
4196,1333.674
4197,1333.477
4198,1334.182
4199,1335.682
4200,1337.884
4201,1340.737
4202,1344.139
4203,1347.935
4204,1351.961
4205,1356.109
4206,1360.258
4207,1364.144
4208,1367.452
4209,1369.989
4210,1371.777
4211,1372.937
4212,1373.507
4213,1373.384
4214,1372.420
4215,1370.608
4216,1368.087
4217,1365.095
4218,1361.856
4219,1358.565
4220,1355.347
4221,1352.264
4222,1349.366
4223,1346.754
4224,1344.627
4225,1343.221
4226,1342.688
4227,1343.016
4228,1343.979
4229,1345.172
4230,1346.049
4231,1346.115
4232,1345.139
4233,1343.299
4234,1341.069
4235,1338.945
4236,1337.318
4237,1336.432
4238,1336.445
4239,1337.445
4240,1339.445
4241,1342.376
4242,1346.082
4243,1350.313
4244,1354.760
4245,1359.151
4246,1363.332
4247,1367.259
4248,1370.908
4249,1374.273
4250,1377.331
4251,1380.111
4252,1382.685
4253,1385.132
4254,1387.522
4255,1389.945
4256,1392.495
4257,1395.249
4258,1398.246
4259,1401.435
4260,1404.674
4261,1407.789
4262,1410.601
4263,1413.024
4264,1415.086
4265,1416.836
4266,1418.312
4267,1419.583
4268,1420.665
4269,1421.485
4270,1421.956
4271,1422.092
4272,1422.006
4273,1421.772
4274,1421.382
4275,1420.829
4276,1420.165
4277,1419.435
4278,1418.660
4279,1417.828
4280,1416.865
4281,1415.619
4282,1414.000
4283,1412.024
4284,1409.740
4285,1407.236
4286,1404.583
4287,1401.915
4288,1399.435
4289,1397.319
4290,1395.631
4291,1394.298
4292,1393.224
4293,1392.240
4294,1391.138
4295,1389.797
4296,1388.252
4297,1386.620
4298,1385.075
4299,1383.788
4300,1382.853
4301,1382.254
4302,1381.906
4303,1381.783
4304,1381.902
4305,1382.209
4306,1382.558
4307,1382.783
4308,1382.841
4309,1382.878
4310,1383.095
4311,1383.607
4312,1384.493
4313,1385.854
4314,1387.809
4315,1390.404
4316,1393.601
4317,1397.348
4318,1401.529
4319,1405.858
4320,1409.904
4321,1413.303
4322,1415.861
4323,1417.570
4324,1418.533
4325,1418.886
4326,1418.792
4327,1418.513
4328,1418.378
4329,1418.595
4330,1419.103
4331,1419.677
4332,1420.112
4333,1420.255
4334,1419.985
4335,1419.255
4336,1418.091
4337,1416.553
4338,1414.737
4339,1412.749
4340,1410.663
4341,1408.523
4342,1406.313
4343,1404.067
4344,1401.976
4345,1400.369
4346,1399.541
4347,1399.668
4348,1400.828
4349,1402.993
4350,1406.022
4351,1409.626
4352,1413.348
4353,1416.676
4354,1419.202
4355,1420.710
4356,1421.112
4357,1420.403
4358,1418.628
4359,1415.934
4360,1412.561
4361,1408.859
4362,1405.211
4363,1401.960
4364,1399.336
4365,1397.336
4366,1395.790
4367,1394.516
4368,1393.470
4369,1392.654
4370,1391.974
4371,1391.269
4372,1390.490
4373,1389.764
4374,1389.273
4375,1389.088
4376,1389.113
4377,1389.141
4378,1389.035
4379,1388.801
4380,1388.502
4381,1388.158
4382,1387.780
4383,1387.338
4384,1386.813
4385,1386.219
4386,1385.567
4387,1384.878
4388,1384.161
4389,1383.435
4390,1382.755
4391,1382.197
4392,1381.750
4393,1381.324
4394,1380.832
4395,1380.279
4396,1379.750
4397,1379.397
4398,1379.340
4399,1379.537
4400,1379.836
4401,1380.119
4402,1380.373
4403,1380.570
4404,1380.721
4405,1380.873
4406,1381.045
4407,1381.180
4408,1381.185
4409,1380.959
4410,1380.447
4411,1379.643
4412,1378.627
4413,1377.548
4414,1376.622
4415,1375.999
4416,1375.712
4417,1375.704
4418,1375.909
4419,1376.274
4420,1376.757
4421,1377.270
4422,1377.733
4423,1378.155
4424,1378.524
4425,1378.717
4426,1378.524
4427,1377.901
4428,1376.962
4429,1375.819
4430,1374.511
4431,1373.064
4432,1371.453
4433,1369.551
4434,1367.202
4435,1364.402
4436,1361.303
4437,1358.105
4438,1354.904
4439,1351.711
4440,1348.562
4441,1345.533
4442,1342.704
4443,1340.163
4444,1337.990
4445,1336.277
4446,1335.076
4447,1334.457
4448,1334.477
4449,1335.137
4450,1336.396
4451,1338.228
4452,1340.708
4453,1343.967
4454,1348.042
4455,1352.805
4456,1357.995
4457,1363.373
4458,1368.772
4459,1374.064
4460,1379.119
4461,1383.845
4462,1388.194
4463,1392.175
4464,1395.852
4465,1399.320
4466,1402.690
4467,1406.076
4468,1409.511
4469,1412.909
4470,1416.123
4471,1418.968
4472,1421.272
4473,1422.936
4474,1423.920
4475,1424.248
4476,1423.961
4477,1423.145
4478,1421.903
4479,1420.394
4480,1418.755
4481,1417.078
4482,1415.447
4483,1413.934
4484,1412.622
4485,1411.614
4486,1410.987
4487,1410.782
4488,1411.003
4489,1411.630
4490,1412.663
4491,1414.118
4492,1415.939
4493,1417.959
4494,1419.911
4495,1421.587
4496,1422.850
4497,1423.621
4498,1423.908
4499,1423.850
4500,1423.715
4501,1423.830
4502,1424.416
4503,1425.486
4504,1426.904
4505,1428.470
4506,1429.970
4507,1431.184
4508,1431.942
4509,1432.135
4510,1431.754
4511,1430.950
4512,1430.061
4513,1429.442
4514,1429.331
4515,1429.778
4516,1430.676
4517,1431.733
4518,1432.549
4519,1432.787
4520,1432.348
4521,1431.364
4522,1430.032
4523,1428.515
4524,1426.982
4525,1425.551
4526,1424.264
4527,1423.108
4528,1422.100
4529,1421.239
4530,1420.530
4531,1419.989
4532,1419.726
4533,1419.829
4534,1420.173
4535,1420.427
4536,1420.222
4537,1419.308
4538,1417.640
4539,1415.356
4540,1412.733
4541,1410.036
4542,1407.416
4543,1404.887
4544,1402.439
4545,1400.201
4546,1398.340
4547,1396.905
4548,1395.786
4549,1394.880
4550,1394.159
4551,1393.577
4552,1393.027
4553,1392.425
4554,1391.732
4555,1390.994
4556,1390.306
4557,1389.678
4558,1389.031
4559,1388.293
4560,1387.567
4561,1387.010
4562,1386.686
4563,1386.530
4564,1386.501
4565,1386.612
4566,1386.858
4567,1387.153
4568,1387.366
4569,1387.407
4570,1387.198
4571,1386.686
4572,1385.932
4573,1385.099
4574,1384.325
4575,1383.636
4576,1383.021
4577,1382.464
4578,1381.959
4579,1381.537
4580,1381.254
4581,1381.168
4582,1381.291
4583,1381.541
4584,1381.861
4585,1382.287
4586,1382.808
4587,1383.271
4588,1383.492
4589,1383.451
4590,1383.283
4591,1383.087
4592,1382.779
4593,1382.242
4594,1381.467
4595,1380.586
4596,1379.766
4597,1379.164
4598,1378.967
4599,1379.356
4600,1380.451
4601,1382.214
4602,1384.411
4603,1386.661
4604,1388.559
4605,1389.773
4606,1390.088
4607,1389.465
4608,1388.067
4609,1386.206
4610,1384.181
4611,1382.234
4612,1380.578
4613,1379.397
4614,1378.823
4615,1378.934
4616,1379.750
4617,1381.168
4618,1382.960
4619,1384.825
4620,1386.460
4621,1387.555
4622,1387.916
4623,1387.485
4624,1386.333
4625,1384.542
4626,1382.263
4627,1379.762
4628,1377.368
4629,1375.290
4630,1373.601
4631,1372.273
4632,1371.289
4633,1370.690
4634,1370.448
4635,1370.399
4636,1370.309
4637,1370.067
4638,1369.760
4639,1369.559
4640,1369.526
4641,1369.600
4642,1369.752
4643,1370.043
4644,1370.485
4645,1370.994
4646,1371.441
4647,1371.711
4648,1371.691
4649,1371.305
4650,1370.559
4651,1369.530
4652,1368.337
4653,1367.116
4654,1365.972
4655,1364.992
4656,1364.226
4657,1363.676
4658,1363.344
4659,1363.303
4660,1363.599
4661,1364.197
4662,1365.005
4663,1365.927
4664,1366.964
4665,1368.145
4666,1369.362
4667,1370.379
4668,1371.014
4669,1371.289
4670,1371.338
4671,1371.252
4672,1371.022
4673,1370.653
4674,1370.198
4675,1369.752
4676,1369.387
4677,1369.083
4678,1368.821
4679,1368.637
4680,1368.571
4681,1368.579
4682,1368.567
4683,1368.403
4684,1367.968
4685,1367.247
4686,1366.329
4687,1365.357
4688,1364.435
4689,1363.578
4690,1362.775
4691,1362.029
4692,1361.328
4693,1360.557
4694,1359.651
4695,1358.651
4696,1357.626
4697,1356.552
4698,1355.379
4699,1354.195
4700,1353.244
4701,1352.809
4702,1353.104
4703,1354.207
4704,1356.093
4705,1358.622
4706,1361.528
4707,1364.443
4708,1367.001
4709,1369.034
4710,1370.625
4711,1371.945
4712,1373.175
4713,1374.462
4714,1375.884
4715,1377.389
4716,1378.873
4717,1380.225
4718,1381.385
4719,1382.406
4720,1383.492
4721,1384.858
4722,1386.575
4723,1388.608
4724,1390.879
4725,1393.294
4726,1395.708
4727,1397.865
4728,1399.447
4729,1400.267
4730,1400.386
4731,1400.086
4732,1399.709
4733,1399.525
4734,1399.615
4735,1399.873
4736,1400.054
4737,1399.869
4738,1399.135
4739,1397.828
4740,1396.077
4741,1394.142
4742,1392.425
4743,1391.293
4744,1390.912
4745,1391.158
4746,1391.695
4747,1392.097
4748,1392.097
4749,1391.720
4750,1391.248
4751,1390.949
4752,1390.937
4753,1391.228
4754,1391.830
4755,1392.683
4756,1393.618
4757,1394.479
4758,1395.204
4759,1395.803
4760,1396.209
4761,1396.295
4762,1395.946
4763,1395.188
4764,1394.245
4765,1393.413
4766,1392.905
4767,1392.695
4768,1392.531
4769,1392.060
4770,1391.064
4771,1389.629
4772,1388.076
4773,1386.797
4774,1386.067
4775,1385.940
4776,1386.280
4777,1386.838
4778,1387.432
4779,1388.018
4780,1388.596
4781,1389.109
4782,1389.531
4783,1389.965
4784,1390.506
4785,1391.101
4786,1391.531
4787,1391.580
4788,1391.187
4789,1390.388
4790,1389.178
4791,1387.547
4792,1385.653
4793,1383.816
4794,1382.336
4795,1381.324
4796,1380.709
4797,1380.357
4798,1380.143
4799,1380.049
4800,1380.139
4801,1380.443
4802,1380.812
4803,1380.984
4804,1380.787
4805,1380.234
4806,1379.487
4807,1378.782
4808,1378.360
4809,1378.368
4810,1378.836
4811,1379.762
4812,1381.111
4813,1382.751
4814,1384.374
4815,1385.620
4816,1386.178
4817,1385.919
4818,1384.923
4819,1383.398
4820,1381.554
4821,1379.537
4822,1377.454
4823,1375.495
4824,1373.912
4825,1372.929
4826,1372.588
4827,1372.818
4828,1373.445
4829,1374.306
4830,1375.257
4831,1376.200
4832,1377.057
4833,1377.774
4834,1378.336
4835,1378.766
4836,1379.151
4837,1379.619
4838,1380.266
4839,1381.111
4840,1382.132
4841,1383.324
4842,1384.669
4843,1386.100
4844,1387.555
4845,1389.006
4846,1390.490
4847,1392.048
4848,1393.708
4849,1395.458
4850,1397.184
4851,1398.701
4852,1399.841
4853,1400.513
4854,1400.644
4855,1400.214
4856,1399.324
4857,1398.180
4858,1396.967
4859,1395.860
4860,1394.954
4861,1394.270
4862,1393.823
4863,1393.651
4864,1393.765
4865,1394.130
4866,1394.675
4867,1395.319
4868,1395.958
4869,1396.467
4870,1396.684
4871,1396.495
4872,1395.881
4873,1394.946
4874,1393.860
4875,1392.765
4876,1391.740
4877,1390.838
4878,1390.010
4879,1389.170
4880,1388.268
4881,1387.268
4882,1386.132
4883,1384.890
4884,1383.648
4885,1382.488
4886,1381.431
4887,1380.418
4888,1379.451
4889,1378.602
4890,1377.930
4891,1377.376
4892,1376.897
4893,1376.602
4894,1376.684
4895,1377.225
4896,1378.094
4897,1379.037
4898,1379.799
4899,1380.221
4900,1380.184
4901,1379.668
4902,1378.774
4903,1377.639
4904,1376.327
4905,1374.851
4906,1373.322
4907,1371.965
4908,1371.055
4909,1370.776
4910,1371.162
4911,1372.076
4912,1373.281
4913,1374.601
4914,1375.921
4915,1377.130
4916,1378.040
4917,1378.483
4918,1378.393
4919,1377.856
4920,1377.126
4921,1376.544
4922,1376.425
4923,1376.880
4924,1377.721
4925,1378.520
4926,1378.864
4927,1378.545
4928,1377.581
4929,1376.167
4930,1374.564
4931,1373.011
4932,1371.621
4933,1370.477
4934,1369.637
4935,1369.170
4936,1369.108
4937,1369.391
4938,1369.920
4939,1370.600
4940,1371.416
4941,1372.379
4942,1373.474
4943,1374.613
4944,1375.626
4945,1376.368
4946,1376.745
4947,1376.737
4948,1376.368
4949,1375.728
4950,1374.958
4951,1374.224
4952,1373.658
4953,1373.314
4954,1373.277
4955,1373.654
4956,1374.490
4957,1375.671
4958,1377.003
4959,1378.290
4960,1379.401
4961,1380.332
4962,1381.193
4963,1382.037
4964,1382.833
4965,1383.513
4966,1384.054
4967,1384.480
4968,1384.829
4969,1385.079
4970,1385.243
4971,1385.468
4972,1385.968
4973,1386.842
4974,1387.957
4975,1389.055
4976,1389.941
4977,1390.564
4978,1390.949
4979,1391.089
4980,1391.035
4981,1390.920
4982,1390.859
4983,1390.802
4984,1390.597
4985,1390.154
4986,1389.613
4987,1389.293
4988,1389.531
4989,1390.502
4990,1392.199
4991,1394.409
4992,1396.750
4993,1398.795
4994,1400.287
4995,1401.230
4996,1401.866
4997,1402.403
4998,1402.886
4999,1403.235
5000,1403.423
5001,1403.460
5002,1403.284
5003,1402.821
5004,1402.095
5005,1401.230
5006,1400.402
5007,1399.853
5008,1399.877
5009,1400.656
5010,1402.116
5011,1403.944
5012,1405.690
5013,1406.920
5014,1407.322
5015,1406.797
5016,1405.481
5017,1403.698
5018,1401.882
5019,1400.410
5020,1399.455
5021,1398.996
5022,1398.869
5023,1398.906
5024,1398.996
5025,1399.058
5026,1398.996
5027,1398.808
5028,1398.582
5029,1398.402
5030,1398.311
5031,1398.344
5032,1398.541
5033,1398.881
5034,1399.304
5035,1399.754
5036,1400.250
5037,1400.742
5038,1401.115
5039,1401.247
5040,1401.033
5041,1400.419
5042,1399.443
5043,1398.189
5044,1396.713
5045,1395.028
5046,1393.146
5047,1391.105
5048,1388.953
5049,1386.702
5050,1384.374
5051,1382.050
5052,1379.861
5053,1377.946
5054,1376.433
5055,1375.355
5056,1374.679
5057,1374.351
5058,1374.339
5059,1374.613
5060,1375.073
5061,1375.601
5062,1376.106
5063,1376.536
5064,1376.917
5065,1377.298
5066,1377.647
5067,1377.897
5068,1378.004
5069,1378.016
5070,1377.983
5071,1377.868
5072,1377.565
5073,1377.036
5074,1376.409
5075,1375.831
5076,1375.294
5077,1374.667
5078,1373.859
5079,1372.961
5080,1372.240
5081,1371.965
5082,1372.281
5083,1373.183
5084,1374.527
5085,1376.056
5086,1377.532
5087,1378.836
5088,1379.951
5089,1380.898
5090,1381.754
5091,1382.582
5092,1383.357
5093,1384.091
5094,1384.882
5095,1385.809
5096,1386.829
5097,1387.780
5098,1388.514
5099,1389.022
5100,1389.441
5101,1389.896
5102,1390.461
5103,1391.138
5104,1391.781
5105,1392.195
5106,1392.240
5107,1391.880
5108,1391.154
5109,1390.113
5110,1388.867
5111,1387.661
5112,1386.780
5113,1386.432
5114,1386.694
5115,1387.510
5116,1388.699
5117,1390.051
5118,1391.425
5119,1392.695
5120,1393.712
5121,1394.356
5122,1394.606
5123,1394.462
5124,1393.942
5125,1393.101
5126,1392.003
5127,1390.633
5128,1388.986
5129,1387.141
5130,1385.292
5131,1383.673
5132,1382.472
5133,1381.775
5134,1381.541
5135,1381.648
5136,1381.996
5137,1382.529
5138,1383.185
5139,1383.882
5140,1384.521
5141,1384.981
5142,1385.149
5143,1384.981
5144,1384.464
5145,1383.652
5146,1382.689
5147,1381.795
5148,1381.127
5149,1380.701
5150,1380.393
5151,1380.049
5152,1379.606
5153,1379.147
5154,1378.778
5155,1378.495
5156,1378.163
5157,1377.684
5158,1377.147
5159,1376.794
5160,1376.835
5161,1377.327
5162,1378.159
5163,1379.176
5164,1380.320
5165,1381.590
5166,1382.898
5167,1384.070
5168,1385.026
5169,1385.731
5170,1386.067
5171,1385.829
5172,1384.894
5173,1383.308
5174,1381.205
5175,1378.762
5176,1376.249
5177,1374.056
5178,1372.609
5179,1372.248
5180,1373.117
5181,1375.113
5182,1377.913
5183,1381.074
5184,1384.144
5185,1386.747
5186,1388.596
5187,1389.547
5188,1389.613
5189,1388.924
5190,1387.727
5191,1386.284
5192,1384.800
5193,1383.402
5194,1382.066
5195,1380.656
5196,1379.065
5197,1377.303
5198,1375.482
5199,1373.765
5200,1372.314
5201,1371.236
5202,1370.588
5203,1370.342
5204,1370.399
5205,1370.576
5206,1370.707
5207,1370.740
5208,1370.703
5209,1370.703
5210,1370.850
5211,1371.211
5212,1371.859
5213,1372.847
5214,1374.187
5215,1375.810
5216,1377.630
5217,1379.520
5218,1381.308
5219,1382.890
5220,1384.243
5221,1385.313
5222,1385.973
5223,1386.079
5224,1385.583
5225,1384.591
5226,1383.283
5227,1381.840
5228,1380.488
5229,1379.520
5230,1379.188
5231,1379.615
5232,1380.762
5233,1382.427
5234,1384.312
5235,1386.149
5236,1387.793
5237,1389.215
5238,1390.453
5239,1391.511
5240,1392.339
5241,1392.839
5242,1392.933
5243,1392.642
5244,1392.122
5245,1391.621
5246,1391.318
5247,1391.191
5248,1391.093
5249,1390.929
5250,1390.728
5251,1390.560
5252,1390.465
5253,1390.474
5254,1390.576
5255,1390.724
5256,1390.843
5257,1390.867
5258,1390.674
5259,1390.129
5260,1389.207
5261,1388.026
5262,1386.706
5263,1385.292
5264,1383.849
5265,1382.488
5266,1381.316
5267,1380.406
5268,1379.799
5269,1379.508
5270,1379.508
5271,1379.738
5272,1380.119
5273,1380.582
5274,1381.062
5275,1381.496
5276,1381.865
5277,1382.205
5278,1382.632
5279,1383.251
5280,1384.120
5281,1385.267
5282,1386.735
5283,1388.510
5284,1390.506
5285,1392.626
5286,1394.753
5287,1396.754
5288,1398.467
5289,1399.775
5290,1400.619
5291,1401.050
5292,1401.189
5293,1401.161
5294,1401.079
5295,1401.021
5296,1401.038
5297,1401.152
5298,1401.296
5299,1401.370
5300,1401.361
5301,1401.394
5302,1401.579
5303,1401.841
5304,1401.960
5305,1401.747
5306,1401.173
5307,1400.357
5308,1399.394
5309,1398.291
5310,1397.020
5311,1395.561
5312,1393.921
5313,1392.154
5314,1390.351
5315,1388.600
5316,1386.907
5317,1385.202
5318,1383.456
5319,1381.689
5320,1379.983
5321,1378.459
5322,1377.196
5323,1376.237
5324,1375.646
5325,1375.540
5326,1376.069
5327,1377.360
5328,1379.438
5329,1382.193
5330,1385.362
5331,1388.604
5332,1391.593
5333,1394.147
5334,1396.204
5335,1397.692
5336,1398.525
5337,1398.639
5338,1398.066
5339,1396.975
5340,1395.733
5341,1394.712
5342,1394.138
5343,1394.085
5344,1394.532
5345,1395.348
5346,1396.286
5347,1397.082
5348,1397.598
5349,1397.861
5350,1397.873
5351,1397.504
5352,1396.623
5353,1395.299
5354,1393.815
5355,1392.474
5356,1391.404
5357,1390.498
5358,1389.617
5359,1388.752
5360,1388.063
5361,1387.670
5362,1387.604
5363,1387.883
5364,1388.514
5365,1389.428
5366,1390.408
5367,1391.134
5368,1391.384
5369,1391.175
5370,1390.752
5371,1390.400
5372,1390.248
5373,1390.240
5374,1390.269
5375,1390.289
5376,1390.322
5377,1390.363
5378,1390.310
5379,1390.010
5380,1389.334
5381,1388.244
5382,1386.833
5383,1385.284
5384,1383.755
5385,1382.328
5386,1381.074
5387,1380.082
5388,1379.389
5389,1378.950
5390,1378.659
5391,1378.426
5392,1378.213
5393,1378.077
5394,1378.053
5395,1378.102
5396,1378.196
5397,1378.286
5398,1378.319
5399,1378.241
5400,1378.061
5401,1377.815
5402,1377.544
5403,1377.257
5404,1376.925
5405,1376.474
5406,1375.847
5407,1375.068
5408,1374.130
5409,1373.006
5410,1371.670
5411,1370.133
5412,1368.510
5413,1367.009
5414,1365.829
5415,1365.046
5416,1364.681
5417,1364.755
5418,1365.300
5419,1366.333
5420,1367.829
5421,1369.752
5422,1371.986
5423,1374.384
5424,1376.741
5425,1378.877
5426,1380.648
5427,1381.943
5428,1382.705
5429,1382.931
5430,1382.656
5431,1381.976
5432,1381.078
5433,1380.152
5434,1379.278
5435,1378.450
5436,1377.684
5437,1377.073
5438,1376.688
5439,1376.536
5440,1376.524
5441,1376.544
5442,1376.540
5443,1376.520
5444,1376.499
5445,1376.524
5446,1376.638
5447,1376.852
5448,1377.134
5449,1377.516
5450,1378.024
5451,1378.618
5452,1379.196
5453,1379.647
5454,1379.934
5455,1380.090
5456,1380.172
5457,1380.242
5458,1380.418
5459,1380.803
5460,1381.447
5461,1382.377
5462,1383.620
5463,1385.181
5464,1386.985
5465,1388.945
5466,1391.027
5467,1393.204
5468,1395.323
5469,1397.045
5470,1397.959
5471,1397.820
5472,1396.668
5473,1394.819
5474,1392.765
5475,1390.916
5476,1389.457
5477,1388.330
5478,1387.321
5479,1386.247
5480,1385.095
5481,1384.017
5482,1383.238
5483,1382.951
5484,1383.308
5485,1384.390
5486,1386.141
5487,1388.321
5488,1390.531
5489,1392.277
5490,1393.163
5491,1393.056
5492,1392.146
5493,1390.822
5494,1389.432
5495,1388.076
5496,1386.624
5497,1384.886
5498,1382.800
5499,1380.594
5500,1378.676
5501,1377.413
5502,1376.942
5503,1377.106
5504,1377.626
5505,1378.213
5506,1378.709
5507,1379.098
5508,1379.414
5509,1379.651
5510,1379.824
5511,1380.000
5512,1380.225
5513,1380.455
5514,1380.561
5515,1380.418
5516,1380.053
5517,1379.582
5518,1379.090
5519,1378.610
5520,1378.208
5521,1377.905
5522,1377.692
5523,1377.516
5524,1377.311
5525,1377.036
5526,1376.630
5527,1375.999
5528,1375.163
5529,1374.294
5530,1373.560
5531,1373.011
5532,1372.597
5533,1372.252
5534,1371.932
5535,1371.645
5536,1371.482
5537,1371.568
5538,1372.010
5539,1372.822
5540,1373.937
5541,1375.212
5542,1376.487
5543,1377.659
5544,1378.713
5545,1379.713
5546,1380.705
5547,1381.693
5548,1382.656
5549,1383.554
5550,1384.325
5551,1384.981
5552,1385.686
5553,1386.645
5554,1387.912
5555,1389.367
5556,1390.904
5557,1392.536
5558,1394.282
5559,1396.004
5560,1397.438
5561,1398.418
5562,1399.037
5563,1399.574
5564,1400.271
5565,1401.177
5566,1402.194
5567,1403.173
5568,1403.985
5569,1404.575
5570,1404.977
5571,1405.264
5572,1405.518
5573,1405.801
5574,1406.141
5575,1406.527
5576,1406.871
5577,1407.047
5578,1406.916
5579,1406.449
5580,1405.776
5581,1405.157
5582,1404.817
5583,1404.838
5584,1405.153
5585,1405.641
5586,1406.235
5587,1406.912
5588,1407.617
5589,1408.314
5590,1409.039
5591,1409.732
5592,1410.212
5593,1410.298
5594,1409.986
5595,1409.421
5596,1408.757
5597,1408.121
5598,1407.605
5599,1407.236
5600,1406.990
5601,1406.900
5602,1407.051
5603,1407.469
5604,1408.121
5605,1408.970
5606,1410.044
5607,1411.364
5608,1412.778
5609,1413.963
5610,1414.614
5611,1414.623
5612,1414.114
5613,1413.376
5614,1412.663
5615,1412.007
5616,1411.220
5617,1410.077
5618,1408.465
5619,1406.424
5620,1404.116
5621,1401.808
5622,1399.787
5623,1398.246
5624,1397.278
5625,1396.844
5626,1396.696
5627,1396.446
5628,1395.721
5629,1394.319
5630,1392.290
5631,1389.920
5632,1387.596
5633,1385.571
5634,1383.935
5635,1382.697
5636,1381.795
5637,1381.135
5638,1380.652
5639,1380.348
5640,1380.258
5641,1380.398
5642,1380.742
5643,1381.197
5644,1381.668
5645,1382.152
5646,1382.636
5647,1383.042
5648,1383.271
5649,1383.304
5650,1383.165
5651,1382.878
5652,1382.492
5653,1382.099
5654,1381.779
5655,1381.558
5656,1381.361
5657,1381.062
5658,1380.586
5659,1379.975
5660,1379.340
5661,1378.786
5662,1378.422
5663,1378.364
5664,1378.627
5665,1379.053
5666,1379.434
5667,1379.623
5668,1379.651
5669,1379.635
5670,1379.623
5671,1379.602
5672,1379.545
5673,1379.418
5674,1379.180
5675,1378.893
5676,1378.692
5677,1378.692
5678,1378.901
5679,1379.254
5680,1379.586
5681,1379.721
5682,1379.553
5683,1379.082
5684,1378.389
5685,1377.585
5686,1376.802
5687,1376.183
5688,1375.810
5689,1375.708
5690,1375.835
5691,1376.155
5692,1376.577
5693,1376.983
5694,1377.249
5695,1377.331
5696,1377.229
5697,1376.975
5698,1376.614
5699,1376.196
5700,1375.708
5701,1375.138
5702,1374.507
5703,1373.851
5704,1373.236
5705,1372.797
5706,1372.691
5707,1373.011
5708,1373.798
5709,1375.040
5710,1376.659
5711,1378.479
5712,1380.316
5713,1382.062
5714,1383.718
5715,1385.337
5716,1386.936
5717,1388.514
5718,1390.129
5719,1391.900
5720,1393.880
5721,1395.971
5722,1397.881
5723,1399.283
5724,1400.037
5725,1400.267
5726,1400.201
5727,1400.009
5728,1399.730
5729,1399.316
5730,1398.730
5731,1398.045
5732,1397.360
5733,1396.680
5734,1395.909
5735,1394.971
5736,1393.917
5737,1392.909
5738,1392.048
5739,1391.298
5740,1390.584
5741,1389.908
5742,1389.314
5743,1388.793
5744,1388.313
5745,1387.813
5746,1387.239
5747,1386.600
5748,1385.973
5749,1385.513
5750,1385.300
5751,1385.235
5752,1385.136
5753,1384.862
5754,1384.370
5755,1383.710
5756,1382.947
5757,1382.136
5758,1381.316
5759,1380.508
5760,1379.762
5761,1379.123
5762,1378.672
5763,1378.434
5764,1378.360
5765,1378.381
5766,1378.413
5767,1378.426
5768,1378.430
5769,1378.426
5770,1378.307
5771,1377.983
5772,1377.524
5773,1377.098
5774,1376.749
5775,1376.360
5776,1375.810
5777,1375.126
5778,1374.380
5779,1373.539
5780,1372.564
5781,1371.551
5782,1370.694
5783,1370.080
5784,1369.588
5785,1369.034
5786,1368.350
5787,1367.595
5788,1366.841
5789,1366.099
5790,1365.337
5791,1364.574
5792,1363.943
5793,1363.586
5794,1363.590
5795,1363.996
5796,1364.820
5797,1366.021
5798,1367.550
5799,1369.366
5800,1371.313
5801,1373.109
5802,1374.482
5803,1375.368
5804,1375.933
5805,1376.438
5806,1377.011
5807,1377.581
5808,1377.954
5809,1378.098
5810,1378.151
5811,1378.266
5812,1378.541
5813,1379.000
5814,1379.623
5815,1380.381
5816,1381.267
5817,1382.295
5818,1383.517
5819,1384.935
5820,1386.436
5821,1387.944
5822,1389.510
5823,1391.261
5824,1393.261
5825,1395.458
5826,1397.672
5827,1399.718
5828,1401.456
5829,1402.796
5830,1403.739
5831,1404.440
5832,1405.071
5833,1405.711
5834,1406.358
5835,1407.031
5836,1407.830
5837,1408.912
5838,1410.392
5839,1412.315
5840,1414.647
5841,1417.295
5842,1420.128
5843,1423.039
5844,1425.916
5845,1428.618
5846,1431.012
5847,1433.008
5848,1434.578
5849,1435.779
5850,1436.722
5851,1437.493
5852,1438.136
5853,1438.554
5854,1438.505
5855,1437.759
5856,1436.247
5857,1434.053
5858,1431.352
5859,1428.318
5860,1425.092
5861,1421.809
5862,1418.537
5863,1415.262
5864,1411.962
5865,1408.695
5866,1405.559
5867,1402.640
5868,1399.992
5869,1397.668
5870,1395.721
5871,1394.196
5872,1393.101
5873,1392.470
5874,1392.322
5875,1392.663
5876,1393.417
5877,1394.409
5878,1395.385
5879,1396.131
5880,1396.586
5881,1396.836
5882,1396.967
5883,1396.942
5884,1396.676
5885,1396.209
5886,1395.680
5887,1395.155
5888,1394.630
5889,1394.073
5890,1393.499
5891,1392.945
5892,1392.474
5893,1392.126
5894,1391.896
5895,1391.679
5896,1391.334
5897,1390.806
5898,1390.142
5899,1389.355
5900,1388.403
5901,1387.301
5902,1386.161
5903,1385.079
5904,1384.070
5905,1383.156
5906,1382.332
5907,1381.599
5908,1381.049
5909,1380.836
5910,1380.971
5911,1381.332
5912,1381.828
5913,1382.472
5914,1383.275
5915,1384.136
5916,1384.821
5917,1385.099
5918,1384.948
5919,1384.550
5920,1384.103
5921,1383.661
5922,1383.107
5923,1382.275
5924,1381.074
5925,1379.533
5926,1377.844
5927,1376.327
5928,1375.261
5929,1374.798
5930,1374.896
5931,1375.450
5932,1376.298
5933,1377.286
5934,1378.299
5935,1379.287
5936,1380.258
5937,1381.217
5938,1382.144
5939,1383.009
5940,1383.759
5941,1384.321
5942,1384.595
5943,1384.497
5944,1384.038
5945,1383.333
5946,1382.500
5947,1381.619
5948,1380.725
5949,1379.815
5950,1378.832
5951,1377.712
5952,1376.429
5953,1374.974
5954,1373.375
5955,1371.797
5956,1370.576
5957,1370.067
5958,1370.481
5959,1371.863
5960,1374.117
5961,1376.999
5962,1380.188
5963,1383.411
5964,1386.510
5965,1389.342
5966,1391.679
5967,1393.347
5968,1394.360
5969,1394.831
5970,1394.913
5971,1394.761
5972,1394.561
5973,1394.495
5974,1394.725
5975,1395.360
5976,1396.524
5977,1398.336
5978,1400.804
5979,1403.723
5980,1406.686
5981,1409.191
5982,1410.798
5983,1411.249
5984,1410.470
5985,1408.597
5986,1405.916
5987,1402.845
5988,1399.849
5989,1397.328
5990,1395.532
5991,1394.540
5992,1394.278
5993,1394.610
5994,1395.344
5995,1396.213
5996,1396.873
5997,1396.963
5998,1396.192
5999,1394.462
6000,1391.925
6001,1388.932
6002,1385.866
6003,1383.013
6004,1380.590
6005,1378.782
6006,1377.721
6007,1377.471
6008,1377.999
6009,1379.180
6010,1380.750
6011,1382.369
6012,1383.747
6013,1384.706
6014,1385.165
6015,1385.149
6016,1384.788
6017,1384.226
6018,1383.529
6019,1382.726
6020,1381.840
6021,1380.926
6022,1380.057
6023,1379.270
6024,1378.532
6025,1377.708
6026,1376.651
6027,1375.286
6028,1373.658
6029,1371.953
6030,1370.395
6031,1369.165
6032,1368.374
6033,1368.095
6034,1368.415
6035,1369.374
6036,1370.871
6037,1372.572
6038,1373.986
6039,1374.675
6040,1374.413
6041,1373.248
6042,1371.486
6043,1369.551
6044,1367.891
6045,1366.812
6046,1366.402
6047,1366.505
6048,1366.890
6049,1367.468
6050,1368.292
6051,1369.370
6052,1370.633
6053,1372.019
6054,1373.441
6055,1374.777
6056,1375.921
6057,1376.819
6058,1377.413
6059,1377.696
6060,1377.696
6061,1377.491
6062,1377.249
6063,1377.118
6064,1377.147
6065,1377.245
6066,1377.278
6067,1377.139
6068,1376.807
6069,1376.323
6070,1375.794
6071,1375.343
6072,1375.118
6073,1375.191
6074,1375.515
6075,1375.974
6076,1376.515
6077,1377.110
6078,1377.655
6079,1378.008
6080,1378.073
6081,1377.864
6082,1377.475
6083,1377.061
6084,1376.798
6085,1376.819
6086,1377.196
6087,1377.963
6088,1379.164
6089,1380.848
6090,1383.091
6091,1385.944
6092,1389.461
6093,1393.622
6094,1398.307
6095,1403.259
6096,1408.138
6097,1412.618
6098,1416.488
6099,1419.648
6100,1422.067
6101,1423.690
6102,1424.453
6103,1424.322
6104,1423.334
6105,1421.587
6106,1419.259
6107,1416.705
6108,1414.377
6109,1412.626
6110,1411.544
6111,1410.970
6112,1410.581
6113,1409.990
6114,1408.867
6115,1407.133
6116,1404.989
6117,1402.800
6118,1400.935
6119,1399.709
6120,1399.295
6121,1399.742
6122,1400.947
6123,1402.673
6124,1404.559
6125,1406.153
6126,1407.125
6127,1407.412
6128,1407.146
6129,1406.506
6130,1405.637
6131,1404.629
6132,1403.518
6133,1402.333
6134,1401.132
6135,1399.947
6136,1398.730
6137,1397.401
6138,1395.958
6139,1394.487
6140,1393.048
6141,1391.646
6142,1390.289
6143,1388.994
6144,1387.838
6145,1386.907
6146,1386.223
6147,1385.759
6148,1385.571
6149,1385.837
6150,1386.694
6151,1388.088
6152,1389.736
6153,1391.293
6154,1392.466
6155,1393.048
6156,1392.909
6157,1391.999
6158,1390.449
6159,1388.518
6160,1386.563
6161,1384.927
6162,1383.784
6163,1383.066
6164,1382.587
6165,1382.214
6166,1381.877
6167,1381.566
6168,1381.267
6169,1380.951
6170,1380.566
6171,1380.119
6172,1379.615
6173,1379.065
6174,1378.557
6175,1378.262
6176,1378.311
6177,1378.700
6178,1379.328
6179,1380.049
6180,1380.734
6181,1381.287
6182,1381.664
6183,1381.869
6184,1381.894
6185,1381.701
6186,1381.246
6187,1380.475
6188,1379.369
6189,1377.889
6190,1375.925
6191,1373.379
6192,1370.366
6193,1367.239
6194,1364.390
6195,1362.082
6196,1360.438
6197,1359.462
6198,1359.130
6199,1359.360
6200,1359.999
6201,1360.823
6202,1361.602
6203,1362.188
6204,1362.525
6205,1362.709
6206,1362.984
6207,1363.668
6208,1364.996
6209,1367.021
6210,1369.555
6211,1372.215
6212,1374.581
6213,1376.409
6214,1377.745
6215,1378.836
6216,1379.889
6217,1381.021
6218,1382.308
6219,1383.775
6220,1385.349
6221,1386.870
6222,1388.178
6223,1389.055
6224,1389.232
6225,1388.580
6226,1387.260
6227,1385.653
6228,1384.230
6229,1383.398
6230,1383.443
6231,1384.476
6232,1386.436
6233,1389.076
6234,1392.003
6235,1394.741
6236,1396.918
6237,1398.385
6238,1399.279
6239,1399.902
6240,1400.496
6241,1401.066
6242,1401.427
6243,1401.345
6244,1400.730
6245,1399.759
6246,1398.746
6247,1397.914
6248,1397.237
6249,1396.569
6250,1395.803
6251,1394.950
6252,1394.015
6253,1392.921
6254,1391.605
6255,1390.113
6256,1388.580
6257,1387.141
6258,1385.927
6259,1385.046
6260,1384.517
6261,1384.280
6262,1384.214
6263,1384.218
6264,1384.181
6265,1384.038
6266,1383.788
6267,1383.509
6268,1383.312
6269,1383.222
6270,1383.148
6271,1382.976
6272,1382.673
6273,1382.263
6274,1381.750
6275,1381.098
6276,1380.299
6277,1379.397
6278,1378.438
6279,1377.499
6280,1376.757
6281,1376.372
6282,1376.442
6283,1377.007
6284,1378.024
6285,1379.438
6286,1381.185
6287,1383.087
6288,1384.853
6289,1386.251
6290,1387.276
6291,1388.096
6292,1388.879
6293,1389.609
6294,1390.051
6295,1389.937
6296,1389.068
6297,1387.379
6298,1384.919
6299,1381.824
6300,1378.254
6301,1374.413
6302,1370.563
6303,1367.050
6304,1364.226
6305,1362.385
6306,1361.701
6307,1362.254
6308,1364.029
6309,1366.878
6310,1370.506
6311,1374.478
6312,1378.336
6313,1381.717
6314,1384.448
6315,1386.526
6316,1388.002
6317,1388.875
6318,1389.166
6319,1388.953
6320,1388.367
6321,1387.526
6322,1386.567
6323,1385.608
6324,1384.714
6325,1383.915
6326,1383.189
6327,1382.447
6328,1381.623
6329,1380.738
6330,1379.959
6331,1379.565
6332,1379.824
6333,1380.824
6334,1382.443
6335,1384.370
6336,1386.219
6337,1387.748
6338,1388.953
6339,1389.973
6340,1390.941
6341,1391.843
6342,1392.638
6343,1393.355
6344,1394.028
6345,1394.659
6346,1395.266
6347,1395.860
6348,1396.442
6349,1397.008
6350,1397.578
6351,1398.221
6352,1399.066
6353,1400.185
6354,1401.501
6355,1402.841
6356,1404.092
6357,1405.186
6358,1406.084
6359,1406.789
6360,1407.371
6361,1407.908
6362,1408.490
6363,1409.191
6364,1410.036
6365,1410.958
6366,1411.815
6367,1412.487
6368,1412.950
6369,1413.266
6370,1413.508
6371,1413.725
6372,1413.909
6373,1414.057
6374,1414.114
6375,1414.016
6376,1413.815
6377,1413.594
6378,1413.397
6379,1413.237
6380,1413.159
6381,1413.110
6382,1412.967
6383,1412.602
6384,1411.999
6385,1411.224
6386,1410.351
6387,1409.343
6388,1408.084
6389,1406.469
6390,1404.575
6391,1402.661
6392,1400.939
6393,1399.431
6394,1397.967
6395,1396.397
6396,1394.786
6397,1393.364
6398,1392.363
6399,1391.912
6400,1391.949
6401,1392.220
6402,1392.359
6403,1392.089
6404,1391.334
6405,1390.146
6406,1388.641
6407,1386.969
6408,1385.284
6409,1383.751
6410,1382.521
6411,1381.656
6412,1381.062
6413,1380.574
6414,1380.102
6415,1379.672
6416,1379.381
6417,1379.311
6418,1379.414
6419,1379.479
6420,1379.323
6421,1378.926
6422,1378.413
6423,1378.004
6424,1377.922
6425,1378.249
6426,1378.881
6427,1379.631
6428,1380.365
6429,1380.971
6430,1381.312
6431,1381.308
6432,1380.971
6433,1380.320
6434,1379.381
6435,1378.270
6436,1377.196
6437,1376.364
6438,1375.855
6439,1375.622
6440,1375.560
6441,1375.618
6442,1375.798
6443,1376.110
6444,1376.532
6445,1376.995
6446,1377.446
6447,1377.856
6448,1378.213
6449,1378.491
6450,1378.635
6451,1378.590
6452,1378.307
6453,1377.762
6454,1376.995
6455,1376.085
6456,1375.093
6457,1374.085
6458,1373.158
6459,1372.461
6460,1372.109
6461,1372.146
6462,1372.469
6463,1372.945
6464,1373.461
6465,1373.949
6466,1374.388
6467,1374.827
6468,1375.310
6469,1375.884
6470,1376.634
6471,1377.659
6472,1378.967
6473,1380.496
6474,1382.177
6475,1383.964
6476,1385.792
6477,1387.567
6478,1389.256
6479,1390.851
6480,1392.343
6481,1393.749
6482,1395.106
6483,1396.311
6484,1397.205
6485,1397.701
6486,1397.865
6487,1397.746
6488,1397.287
6489,1396.414
6490,1395.147
6491,1393.585
6492,1391.871
6493,1390.158
6494,1388.633
6495,1387.502
6496,1386.948
6497,1387.075
6498,1387.871
6499,1389.215
6500,1390.863
6501,1392.507
6502,1393.860
6503,1394.782
6504,1395.262
6505,1395.303
6506,1394.962
6507,1394.388
6508,1393.712
6509,1393.019
6510,1392.421
6511,1392.007
6512,1391.736
6513,1391.433
6514,1390.867
6515,1389.973
6516,1388.904
6517,1387.977
6518,1387.407
6519,1387.170
6520,1386.997
6521,1386.538
6522,1385.620
6523,1384.325
6524,1382.902
6525,1381.578
6526,1380.443
6527,1379.541
6528,1378.918
6529,1378.577
6530,1378.479
6531,1378.569
6532,1378.737
6533,1378.823
6534,1378.709
6535,1378.315
6536,1377.651
6537,1376.811
6538,1375.921
6539,1375.146
6540,1374.572
6541,1374.191
6542,1374.019
6543,1374.109
6544,1374.470
6545,1375.032
6546,1375.769
6547,1376.667
6548,1377.602
6549,1378.389
6550,1378.877
6551,1378.946
6552,1378.573
6553,1377.901
6554,1377.171
6555,1376.532
6556,1375.995
6557,1375.532
6558,1375.187
6559,1375.007
6560,1374.937
6561,1374.933
6562,1374.999
6563,1375.204
6564,1375.564
6565,1375.987
6566,1376.323
6567,1376.479
6568,1376.376
6569,1375.954
6570,1375.273
6571,1374.507
6572,1373.736
6573,1372.937
6574,1372.043
6575,1371.104
6576,1370.289
6577,1369.756
6578,1369.489
6579,1369.374
6580,1369.309
6581,1369.251
6582,1369.141
6583,1368.928
6584,1368.657
6585,1368.374
6586,1368.075
6587,1367.780
6588,1367.575
6589,1367.563
6590,1367.845
6591,1368.510
6592,1369.551
6593,1370.928
6594,1372.584
6595,1374.363
6596,1376.032
6597,1377.364
6598,1378.147
6599,1378.188
6600,1377.413
6601,1375.913
6602,1373.941
6603,1371.896
6604,1370.203
6605,1369.206
6606,1369.067
6607,1369.801
6608,1371.305
6609,1373.445
6610,1376.019
6611,1378.750
6612,1381.394
6613,1383.870
6614,1386.161
6615,1388.289
6616,1390.314
6617,1392.273
6618,1394.073
6619,1395.557
6620,1396.643
6621,1397.274
6622,1397.426
6623,1397.201
6624,1396.848
6625,1396.659
6626,1396.823
6627,1397.340
6628,1398.025
6629,1398.644
6630,1399.078
6631,1399.398
6632,1399.754
6633,1400.226
6634,1400.722
6635,1401.070
6636,1401.152
6637,1400.919
6638,1400.414
6639,1399.742
6640,1398.922
6641,1397.893
6642,1396.627
6643,1395.135
6644,1393.347
6645,1391.170
6646,1388.596
6647,1385.739
6648,1382.796
6649,1380.053
6650,1377.844
6651,1376.446
6652,1375.987
6653,1376.458
6654,1377.729
6655,1379.561
6656,1381.709
6657,1383.997
6658,1386.260
6659,1388.252
6660,1389.707
6661,1390.506
6662,1390.720
6663,1390.597
6664,1390.470
6665,1390.629
6666,1391.187
6667,1392.023
6668,1392.970
6669,1393.958
6670,1394.950
6671,1395.790
6672,1396.233
6673,1396.077
6674,1395.278
6675,1393.991
6676,1392.470
6677,1390.879
6678,1389.326
6679,1387.875
6680,1386.501
6681,1385.083
6682,1383.501
6683,1381.746
6684,1379.934
6685,1378.307
6686,1377.077
6687,1376.335
6688,1376.052
6689,1376.134
6690,1376.438
6691,1376.798
6692,1377.061
6693,1377.151
6694,1377.130
6695,1377.122
6696,1377.221
6697,1377.426
6698,1377.659
6699,1377.852
6700,1378.016
6701,1378.200
6702,1378.389
6703,1378.561
6704,1378.733
6705,1378.955
6706,1379.270
6707,1379.697
6708,1380.176
6709,1380.643
6710,1381.070
6711,1381.406
6712,1381.603
6713,1381.627
6714,1381.480
6715,1381.176
6716,1380.791
6717,1380.426
6718,1380.139
6719,1379.959
6720,1379.893
6721,1379.967
6722,1380.246
6723,1380.857
6724,1381.906
6725,1383.423
6726,1385.411
6727,1387.879
6728,1390.756
6729,1393.876
6730,1397.000
6731,1399.902
6732,1402.431
6733,1404.555
6734,1406.322
6735,1407.765
6736,1408.830
6737,1409.408
6738,1409.400
6739,1408.818
6740,1407.785
6741,1406.514
6742,1405.276
6743,1404.313
6744,1403.710
6745,1403.370
6746,1403.169
6747,1403.083
6748,1403.075
6749,1403.018
6750,1402.804
6751,1402.534
6752,1402.456
6753,1402.767
6754,1403.456
6755,1404.342
6756,1405.215
6757,1405.965
6758,1406.539
6759,1406.891
6760,1406.904
6761,1406.416
6762,1405.354
6763,1403.813
6764,1402.034
6765,1400.242
6766,1398.521
6767,1396.823
6768,1395.122
6769,1393.511
6770,1392.027
6771,1390.535
6772,1388.813
6773,1386.780
6774,1384.509
6775,1382.189
6776,1380.020
6777,1378.122
6778,1376.503
6779,1375.167
6780,1374.187
6781,1373.683
6782,1373.748
6783,1374.396
6784,1375.519
6785,1376.884
6786,1378.233
6787,1379.332
6788,1380.041
6789,1380.357
6790,1380.389
6791,1380.266
6792,1380.094
6793,1379.971
6794,1379.996
6795,1380.197
6796,1380.520
6797,1380.943
6798,1381.451
6799,1382.025
6800,1382.640
6801,1383.263
6802,1383.833
6803,1384.333
6804,1384.759
6805,1385.095
6806,1385.325
6807,1385.399
6808,1385.296
6809,1385.005
6810,1384.517
6811,1383.878
6812,1383.140
6813,1382.328
6814,1381.426
6815,1380.385
6816,1379.155
6817,1377.708
6818,1376.040
6819,1374.150
6820,1372.072
6821,1369.952
6822,1368.018
6823,1366.505
6824,1365.542
6825,1365.103
6826,1365.087
6827,1365.415
6828,1366.017
6829,1366.862
6830,1367.895
6831,1369.006
6832,1370.063
6833,1370.990
6834,1371.715
6835,1372.191
6836,1372.441
6837,1372.486
6838,1372.285
6839,1371.814
6840,1371.211
6841,1370.653
6842,1370.297
6843,1370.264
6844,1370.694
6845,1371.625
6846,1372.924
6847,1374.367
6848,1375.753
6849,1376.934
6850,1377.835
6851,1378.459
6852,1378.901
6853,1379.344
6854,1379.979
6855,1380.971
6856,1382.390
6857,1384.230
6858,1386.452
6859,1389.014
6860,1391.839
6861,1394.766
6862,1397.553
6863,1399.894
6864,1401.595
6865,1402.636
6866,1403.157
6867,1403.321
6868,1403.202
6869,1402.681
6870,1401.521
6871,1399.590
6872,1397.053
6873,1394.302
6874,1391.835
6875,1390.101
6876,1389.424
6877,1389.928
6878,1391.498
6879,1393.794
6880,1396.332
6881,1398.631
6882,1400.357
6883,1401.341
6884,1401.648
6885,1401.542
6886,1401.288
6887,1400.968
6888,1400.550
6889,1400.086
6890,1399.742
6891,1399.652
6892,1399.849
6893,1400.332
6894,1401.091
6895,1401.956
6896,1402.546
6897,1402.452
6898,1401.386
6899,1399.324
6900,1396.508
6901,1393.376
6902,1390.363
6903,1387.702
6904,1385.382
6905,1383.353
6906,1381.701
6907,1380.684
6908,1380.570
6909,1381.463
6910,1383.247
6911,1385.595
6912,1388.084
6913,1390.285
6914,1391.863
6915,1392.687
6916,1392.855
6917,1392.638
6918,1392.367
6919,1392.253
6920,1392.310
6921,1392.490
6922,1392.798
6923,1393.249
6924,1393.753
6925,1394.114
6926,1394.179
6927,1393.892
6928,1393.265
6929,1392.347
6930,1391.203
6931,1389.916
6932,1388.572
6933,1387.268
6934,1386.124
6935,1385.235
6936,1384.603
6937,1384.185
6938,1383.911
6939,1383.693
6940,1383.451
6941,1383.185
6942,1382.951
6943,1382.767
6944,1382.566
6945,1382.275
6946,1381.824
6947,1381.221
6948,1380.561
6949,1379.938
6950,1379.410
6951,1379.012
6952,1378.791
6953,1378.770
6954,1378.963
6955,1379.381
6956,1380.000
6957,1380.807
6958,1381.787
6959,1382.910
6960,1384.107
6961,1385.292
6962,1386.411
6963,1387.485
6964,1388.518
6965,1389.449
6966,1390.191
6967,1390.781
6968,1391.355
6969,1391.999
6970,1392.638
6971,1393.228
6972,1393.880
6973,1394.774
6974,1395.946
6975,1397.176
6976,1398.135
6977,1398.623
6978,1398.693
6979,1398.537
6980,1398.307
6981,1398.111
6982,1398.045
6983,1398.250
6984,1398.881
6985,1399.964
6986,1401.394
6987,1402.968
6988,1404.448
6989,1405.600
6990,1406.194
6991,1406.141
6992,1405.555
6993,1404.682
6994,1403.776
6995,1403.042
6996,1402.591
6997,1402.439
6998,1402.567
6999,1402.903
7000,1403.350
7001,1403.772
7002,1404.010
7003,1403.850
7004,1403.054
7005,1401.468
7006,1399.144
7007,1396.373
7008,1393.589
7009,1391.257
7010,1389.736
7011,1389.182
7012,1389.473
7013,1390.281
7014,1391.166
7015,1391.699
7016,1391.589
7017,1390.740
7018,1389.277
7019,1387.493
7020,1385.714
7021,1384.202
7022,1383.078
7023,1382.349
7024,1381.943
7025,1381.672
7026,1381.340
7027,1380.836
7028,1380.209
7029,1379.582
7030,1379.049
7031,1378.647
7032,1378.434
7033,1378.434
7034,1378.631
7035,1378.946
7036,1379.315
7037,1379.783
7038,1380.422
7039,1381.250
7040,1382.234
7041,1383.411
7042,1384.829
7043,1386.419
7044,1388.014
7045,1389.473
7046,1390.707
7047,1391.671
7048,1392.372
7049,1392.835
7050,1393.056
7051,1393.023
7052,1392.806
7053,1392.552
7054,1392.421
7055,1392.478
7056,1392.663
7057,1392.859
7058,1392.982
7059,1393.007
7060,1392.913
7061,1392.654
7062,1392.236
7063,1391.716
7064,1391.158
7065,1390.642
7066,1390.252
7067,1390.006
7068,1389.834
7069,1389.625
7070,1389.350
7071,1389.080
7072,1388.908
7073,1388.854
7074,1388.928
7075,1389.162
7076,1389.539
7077,1390.023
7078,1390.531
7079,1390.863
7080,1390.761
7081,1390.060
7082,1388.805
7083,1387.215
7084,1385.604
7085,1384.239
7086,1383.218
7087,1382.369
7088,1381.414
7089,1380.197
7090,1378.840
7091,1377.639
7092,1376.872
7093,1376.638
7094,1376.815
7095,1377.180
7096,1377.585
7097,1377.995
7098,1378.377
7099,1378.692
7100,1378.942
7101,1379.221
7102,1379.647
7103,1380.299
7104,1381.160
7105,1382.193
7106,1383.341
7107,1384.480
7108,1385.477
7109,1386.182
7110,1386.497
7111,1386.415
7112,1386.075
7113,1385.694
7114,1385.497
7115,1385.653
7116,1386.214
7117,1387.120
7118,1388.272
7119,1389.527
7120,1390.769
7121,1391.892
7122,1392.814
7123,1393.474
7124,1393.839
7125,1393.929
7126,1393.815
7127,1393.605
7128,1393.409
7129,1393.273
7130,1393.183
7131,1393.134
7132,1393.081
7133,1392.950
7134,1392.667
7135,1392.163
7136,1391.412
7137,1390.420
7138,1389.227
7139,1387.920
7140,1386.628
7141,1385.440
7142,1384.382
7143,1383.484
7144,1382.742
7145,1382.091
7146,1381.447
7147,1380.820
7148,1380.324
7149,1380.197
7150,1380.684
7151,1381.881
7152,1383.579
7153,1385.329
7154,1386.645
7155,1387.186
7156,1386.833
7157,1385.665
7158,1383.919
7159,1381.873
7160,1379.688
7161,1377.389
7162,1374.904
7163,1372.203
7164,1369.387
7165,1366.624
7166,1364.136
7167,1362.176
7168,1360.959
7169,1360.577
7170,1361.016
7171,1362.192
7172,1363.939
7173,1365.972
7174,1367.899
7175,1369.374
7176,1370.276
7177,1370.772
7178,1371.174
7179,1371.727
7180,1372.474
7181,1373.257
7182,1373.871
7183,1374.249
7184,1374.548
7185,1375.015
7186,1375.827
7187,1376.987
7188,1378.368
7189,1379.824
7190,1381.246
7191,1382.566
7192,1383.771
7193,1384.890
7194,1386.005
7195,1387.182
7196,1388.420
7197,1389.646
7198,1390.752
7199,1391.638
7200,1392.228
7201,1392.495
7202,1392.454
7203,1392.158
7204,1391.576
7205,1390.699
7206,1389.641
7207,1388.551
7208,1387.543
7209,1386.661
7210,1385.899
7211,1385.210
7212,1384.530
7213,1383.841
7214,1383.226
7215,1382.812
7216,1382.648
7217,1382.664
7218,1382.755
7219,1382.841
7220,1382.939
7221,1383.099
7222,1383.333
7223,1383.587
7224,1383.853
7225,1384.193
7226,1384.702
7227,1385.382
7228,1386.153
7229,1386.903
7230,1387.571
7231,1388.133
7232,1388.576
7233,1388.912
7234,1389.240
7235,1389.752
7236,1390.629
7237,1391.892
7238,1393.392
7239,1394.991
7240,1396.627
7241,1398.197
7242,1399.508
7243,1400.406
7244,1400.915
7245,1401.165
7246,1401.206
7247,1401.013
7248,1400.603
7249,1400.078
7250,1399.504
7251,1398.926
7252,1398.402
7253,1397.938
7254,1397.455
7255,1396.881
7256,1396.315
7257,1395.926
7258,1395.856
7259,1396.168
7260,1396.840
7261,1397.746
7262,1398.611
7263,1399.123
7264,1399.045
7265,1398.324
7266,1397.078
7267,1395.499
7268,1393.786
7269,1392.064
7270,1390.367
7271,1388.682
7272,1386.985
7273,1385.288
7274,1383.669
7275,1382.234
7276,1381.107
7277,1380.381
7278,1380.037
7279,1380.012
7280,1380.311
7281,1380.930
7282,1381.726
7283,1382.459
7284,1382.968
7285,1383.189
7286,1383.017
7287,1382.336
7288,1381.185
7289,1379.779
7290,1378.409
7291,1377.286
7292,1376.507
7293,1376.003
7294,1375.626
7295,1375.302
7296,1375.052
7297,1374.835
7298,1374.601
7299,1374.335
7300,1374.044
7301,1373.695
7302,1373.351
7303,1373.195
7304,1373.363
7305,1373.835
7306,1374.490
7307,1375.167
7308,1375.737
7309,1376.130
7310,1376.339
7311,1376.376
7312,1376.249
7313,1375.896
7314,1375.277
7315,1374.408
7316,1373.359
7317,1372.195
7318,1370.928
7319,1369.538
7320,1368.067
7321,1366.636
7322,1365.369
7323,1364.353
7324,1363.648
7325,1363.254
7326,1363.180
7327,1363.422
7328,1363.926
7329,1364.517
7330,1365.041
7331,1365.468
7332,1365.829
7333,1366.210
7334,1366.714
7335,1367.366
7336,1368.075
7337,1368.694
7338,1369.174
7339,1369.547
7340,1369.866
7341,1370.178
7342,1370.539
7343,1370.945
7344,1371.285
7345,1371.383
7346,1371.186
7347,1370.744
7348,1370.080
7349,1369.186
7350,1368.161
7351,1367.173
7352,1366.320
7353,1365.628
7354,1365.111
7355,1364.865
7356,1365.029
7357,1365.710
7358,1366.890
7359,1368.382
7360,1369.887
7361,1371.231
7362,1372.449
7363,1373.666
7364,1374.909
7365,1376.101
7366,1377.233
7367,1378.336
7368,1379.373
7369,1380.242
7370,1380.873
7371,1381.242
7372,1381.357
7373,1381.328
7374,1381.361
7375,1381.607
7376,1382.078
7377,1382.644
7378,1383.119
7379,1383.419
7380,1383.562
7381,1383.607
7382,1383.579
7383,1383.402
7384,1382.976
7385,1382.312
7386,1381.562
7387,1380.766
7388,1379.770
7389,1378.352
7390,1376.401
7391,1373.986
7392,1371.313
7393,1368.620
7394,1366.099
7395,1363.861
7396,1362.029
7397,1360.700
7398,1359.893
7399,1359.569
7400,1359.643
7401,1359.962
7402,1360.323
7403,1360.577
7404,1360.766
7405,1361.118
7406,1361.811
7407,1362.799
7408,1363.828
7409,1364.668
7410,1365.308
7411,1365.968
7412,1366.890
7413,1368.161
7414,1369.666
7415,1371.186
7416,1372.543
7417,1373.720
7418,1374.831
7419,1375.962
7420,1377.052
7421,1377.901
7422,1378.393
7423,1378.618
7424,1378.799
7425,1379.110
7426,1379.512
7427,1379.791
7428,1379.799
7429,1379.598
7430,1379.389
7431,1379.295
7432,1379.205
7433,1378.848
7434,1378.077
7435,1377.032
7436,1376.073
7437,1375.523
7438,1375.487
7439,1375.802
7440,1376.224
7441,1376.577
7442,1376.807
7443,1376.921
7444,1376.889
7445,1376.671
7446,1376.376
7447,1376.216
7448,1376.319
7449,1376.630
7450,1377.032
7451,1377.421
7452,1377.700
7453,1377.803
7454,1377.721
7455,1377.454
7456,1377.020
7457,1376.515
7458,1376.069
7459,1375.765
7460,1375.659
7461,1375.769
7462,1376.073
7463,1376.577
7464,1377.307
7465,1378.282
7466,1379.524
7467,1381.049
7468,1382.783
7469,1384.575
7470,1386.235
7471,1387.620
7472,1388.625
7473,1389.178
7474,1389.318
7475,1389.207
7476,1389.022
7477,1388.830
7478,1388.658
7479,1388.596
7480,1388.801
7481,1389.391
7482,1390.453
7483,1392.072
7484,1394.290
7485,1397.037
7486,1400.111
7487,1403.177
7488,1405.862
7489,1407.912
7490,1409.236
7491,1409.945
7492,1410.302
7493,1410.577
7494,1410.974
7495,1411.683
7496,1412.823
7497,1414.327
7498,1415.898
7499,1417.123
7500,1417.673
7501,1417.394
7502,1416.332
7503,1414.725
7504,1412.975
7505,1411.466
7506,1410.437
7507,1409.872
7508,1409.552
7509,1409.228
7510,1408.806
7511,1408.404
7512,1408.179
7513,1408.158
7514,1408.289
7515,1408.527
7516,1408.855
7517,1409.261
7518,1409.630
7519,1409.740
7520,1409.408
7521,1408.621
7522,1407.519
7523,1406.240
7524,1404.813
7525,1403.243
7526,1401.587
7527,1399.894
7528,1398.193
7529,1396.553
7530,1395.081
7531,1393.888
7532,1393.060
7533,1392.630
7534,1392.577
7535,1392.782
7536,1393.073
7537,1393.273
7538,1393.241
7539,1392.884
7540,1392.146
7541,1390.974
7542,1389.309
7543,1387.252
7544,1385.050
7545,1382.951
7546,1381.062
7547,1379.438
7548,1378.151
7549,1377.294
7550,1376.901
7551,1376.950
7552,1377.270
7553,1377.602
7554,1377.758
7555,1377.688
7556,1377.491
7557,1377.274
7558,1377.143
7559,1377.233
7560,1377.618
7561,1378.159
7562,1378.536
7563,1378.520
7564,1378.122
7565,1377.528
7566,1376.905
7567,1376.294
7568,1375.696
7569,1375.130
7570,1374.687
7571,1374.429
7572,1374.269
7573,1374.039
7574,1373.630
7575,1373.088
7576,1372.556
7577,1372.113
7578,1371.736
7579,1371.457
7580,1371.408
7581,1371.691
7582,1372.244
7583,1372.912
7584,1373.605
7585,1374.367
7586,1375.224
7587,1376.028
7588,1376.536
7589,1376.614
7590,1376.315
7591,1375.827
7592,1375.400
7593,1375.179
7594,1375.134
7595,1375.150
7596,1375.159
7597,1375.175
7598,1375.249
7599,1375.425
7600,1375.696
7601,1376.019
7602,1376.438
7603,1377.085
7604,1378.040
7605,1379.254
7606,1380.570
7607,1381.824
7608,1382.976
7609,1383.993
7610,1384.817
7611,1385.448
7612,1385.985
7613,1386.542
7614,1387.202
7615,1388.010
7616,1388.916
7617,1389.773
7618,1390.506
7619,1391.220
7620,1392.027
7621,1392.876
7622,1393.556
7623,1393.856
7624,1393.692
7625,1393.101
7626,1392.179
7627,1391.019
7628,1389.711
7629,1388.391
7630,1387.243
7631,1386.481
7632,1386.190
7633,1386.284
7634,1386.460
7635,1386.321
7636,1385.600
7637,1384.349
7638,1382.833
7639,1381.312
7640,1379.893
7641,1378.627
7642,1377.553
7643,1376.663
7644,1375.884
7645,1375.064
7646,1373.998
7647,1372.469
7648,1370.403
7649,1367.854
7650,1364.980
7651,1362.078
7652,1359.524
7653,1357.679
7654,1356.749
7655,1356.765
7656,1357.581
7657,1358.921
7658,1360.487
7659,1362.082
7660,1363.529
7661,1364.677
7662,1365.472
7663,1365.956
7664,1366.177
7665,1366.185
7666,1366.046
7667,1365.820
7668,1365.529
7669,1365.173
7670,1364.791
7671,1364.455
7672,1364.263
7673,1364.345
7674,1364.750
7675,1365.394
7676,1366.177
7677,1367.026
7678,1367.845
7679,1368.534
7680,1369.075
7681,1369.477
7682,1369.739
7683,1369.973
7684,1370.330
7685,1370.863
7686,1371.494
7687,1372.113
7688,1372.609
7689,1372.920
7690,1373.006
7691,1372.883
7692,1372.584
7693,1372.162
7694,1371.711
7695,1371.301
7696,1370.957
7697,1370.641
7698,1370.338
7699,1370.063
7700,1369.932
7701,1370.088
7702,1370.596
7703,1371.428
7704,1372.482
7705,1373.613
7706,1374.626
7707,1375.327
7708,1375.675
7709,1375.765
7710,1375.786
7711,1375.831
7712,1375.876
7713,1375.835
7714,1375.618
7715,1375.163
7716,1374.515
7717,1373.789
7718,1373.060
7719,1372.342
7720,1371.723
7721,1371.330
7722,1371.223
7723,1371.428
7724,1371.973
7725,1372.847
7726,1373.949
7727,1375.200
7728,1376.536
7729,1377.938
7730,1379.405
7731,1380.951
7732,1382.632
7733,1384.538
7734,1386.710
7735,1389.133
7736,1391.798
7737,1394.708
7738,1397.795
7739,1400.890
7740,1403.813
7741,1406.481
7742,1408.904
7743,1411.052
7744,1412.856
7745,1414.258
7746,1415.213
7747,1415.693
7748,1415.746
7749,1415.561
7750,1415.352
7751,1415.213
7752,1415.123
7753,1415.033
7754,1414.914
7755,1414.811
7756,1414.807
7757,1414.975
7758,1415.344
7759,1415.795
7760,1416.135
7761,1416.242
7762,1416.119
7763,1415.713
7764,1414.848
7765,1413.335
7766,1411.118
7767,1408.236
7768,1404.817
7769,1401.079
7770,1397.352
7771,1393.958
7772,1391.068
7773,1388.666
7774,1386.723
7775,1385.259
7776,1384.308
7777,1383.866
7778,1383.927
7779,1384.476
7780,1385.464
7781,1386.776
7782,1388.231
7783,1389.646
7784,1390.875
7785,1391.908
7786,1392.794
7787,1393.462
7788,1393.659
7789,1393.068
7790,1391.609
7791,1389.494
7792,1387.141
7793,1384.903
7794,1382.931
7795,1381.168
7796,1379.553
7797,1378.073
7798,1376.745
7799,1375.634
7800,1374.851
7801,1374.486
7802,1374.572
7803,1374.982
7804,1375.515
7805,1376.044
7806,1376.544
7807,1376.942
7808,1377.069
7809,1376.852
7810,1376.335
7811,1375.597
7812,1374.650
7813,1373.523
7814,1372.289
7815,1371.096
7816,1370.088
7817,1369.362
7818,1368.915
7819,1368.645
7820,1368.407
7821,1368.104
7822,1367.677
7823,1367.079
7824,1366.316
7825,1365.443
7826,1364.550
7827,1363.771
7828,1363.246
7829,1363.070
7830,1363.283
7831,1363.824
7832,1364.509
7833,1365.029
7834,1365.136
7835,1364.775
7836,1364.041
7837,1363.033
7838,1361.819
7839,1360.545
7840,1359.499
7841,1358.999
7842,1359.261
7843,1360.319
7844,1362.037
7845,1364.164
7846,1366.411
7847,1368.555
7848,1370.502
7849,1372.248
7850,1373.765
7851,1374.950
7852,1375.728
7853,1376.159
7854,1376.384
7855,1376.585
7856,1376.946
7857,1377.557
7858,1378.364
7859,1379.192
7860,1379.906
7861,1380.463
7862,1380.877
7863,1381.172
7864,1381.381
7865,1381.529
7866,1381.570
7867,1381.529
7868,1381.549
7869,1381.795
7870,1382.263
7871,1382.763
7872,1383.095
7873,1383.197
7874,1383.119
7875,1382.919
7876,1382.681
7877,1382.537
7878,1382.587
7879,1382.820
7880,1383.197
7881,1383.759
7882,1384.583
7883,1385.669
7884,1386.829
7885,1387.834
7886,1388.502
7887,1388.776
7888,1388.670
7889,1388.235
7890,1387.534
7891,1386.616
7892,1385.497
7893,1384.181
7894,1382.714
7895,1381.217
7896,1379.861
7897,1378.791
7898,1378.057
7899,1377.622
7900,1377.389
7901,1377.266
7902,1377.200
7903,1377.098
7904,1376.864
7905,1376.474
7906,1376.003
7907,1375.552
7908,1375.195
7909,1374.917
7910,1374.646
7911,1374.355
7912,1374.011
7913,1373.556
7914,1372.965
7915,1372.289
7916,1371.613
7917,1370.932
7918,1370.190
7919,1369.379
7920,1368.522
7921,1367.645
7922,1366.776
7923,1365.931
7924,1365.103
7925,1364.230
7926,1363.275
7927,1362.291
7928,1361.397
7929,1360.713
7930,1360.307
7931,1360.225
7932,1360.549
7933,1361.315
7934,1362.402
7935,1363.615
7936,1364.750
7937,1365.656
7938,1366.312
7939,1366.743
7940,1366.964
7941,1366.944
7942,1366.661
7943,1366.140
7944,1365.423
7945,1364.513
7946,1363.471
7947,1362.500
7948,1361.881
7949,1361.742
7950,1361.992
7951,1362.406
7952,1362.779
7953,1362.951
7954,1362.816
7955,1362.369
7956,1361.664
7957,1360.827
7958,1360.012
7959,1359.257
7960,1358.442
7961,1357.384
7962,1355.986
7963,1354.355
7964,1352.768
7965,1351.633
7966,1351.288
7967,1351.895
7968,1353.375
7969,1355.445
7970,1357.667
7971,1359.598
7972,1360.934
7973,1361.643
7974,1361.926
7975,1362.033
7976,1362.090
7977,1362.110
7978,1362.139
7979,1362.266
7980,1362.586
7981,1363.185
7982,1364.107
7983,1365.390
7984,1367.054
7985,1369.108
7986,1371.535
7987,1374.236
7988,1377.020
7989,1379.729
7990,1382.332
7991,1384.870
7992,1387.346
7993,1389.588
7994,1391.302
7995,1392.228
7996,1392.290
7997,1391.605
7998,1390.478
7999,1389.227
8000,1388.014
8001,1386.829
8002,1385.612
8003,1384.382
8004,1383.288
8005,1382.517
8006,1382.197
8007,1382.312
8008,1382.828
8009,1383.722
8010,1384.931
8011,1386.350
8012,1387.895
8013,1389.469
8014,1390.974
8015,1392.265
8016,1393.208
8017,1393.683
8018,1393.708
8019,1393.446
8020,1393.126
8021,1392.909
8022,1392.818
8023,1392.712
8024,1392.367
8025,1391.580
8026,1390.326
8027,1388.834
8028,1387.477
8029,1386.497
8030,1385.915
8031,1385.575
8032,1385.276
8033,1384.964
8034,1384.796
8035,1385.013
8036,1385.739
8037,1386.842
8038,1388.002
8039,1388.854
8040,1389.154
8041,1388.887
8042,1388.215
8043,1387.260
8044,1386.059
8045,1384.706
8046,1383.382
8047,1382.230
8048,1381.340
8049,1380.771
8050,1380.508
8051,1380.410
8052,1380.336
8053,1380.287
8054,1380.398
8055,1380.730
8056,1381.185
8057,1381.595
8058,1381.812
8059,1381.763
8060,1381.455
8061,1380.943
8062,1380.270
8063,1379.451
8064,1378.524
8065,1377.647
8066,1377.007
8067,1376.712
8068,1376.753
8069,1376.995
8070,1377.225
8071,1377.262
8072,1377.098
8073,1376.831
8074,1376.540
8075,1376.265
8076,1376.069
8077,1376.007
8078,1376.110
8079,1376.310
8080,1376.536
8081,1376.741
8082,1376.950
8083,1377.192
8084,1377.475
8085,1377.786
8086,1378.126
8087,1378.516
8088,1378.934
8089,1379.328
8090,1379.610
8091,1379.717
8092,1379.590
8093,1379.229
8094,1378.590
8095,1377.569
8096,1376.142
8097,1374.466
8098,1372.765
8099,1371.223
8100,1369.952
8101,1369.083
8102,1368.743
8103,1368.981
8104,1369.711
8105,1370.772
8106,1372.002
8107,1373.273
8108,1374.454
8109,1375.400
8110,1376.048
8111,1376.442
8112,1376.704
8113,1376.921
8114,1377.130
8115,1377.315
8116,1377.442
8117,1377.503
8118,1377.524
8119,1377.581
8120,1377.745
8121,1378.049
8122,1378.475
8123,1378.955
8124,1379.369
8125,1379.676
8126,1379.897
8127,1380.057
8128,1380.193
8129,1380.410
8130,1380.816
8131,1381.385
8132,1382.013
8133,1382.587
8134,1383.033
8135,1383.349
8136,1383.562
8137,1383.714
8138,1383.894
8139,1384.185
8140,1384.542
8141,1384.804
8142,1384.833
8143,1384.538
8144,1383.870
8145,1382.849
8146,1381.574
8147,1380.193
8148,1378.856
8149,1377.647
8150,1376.634
8151,1375.950
8152,1375.716
8153,1375.946
8154,1376.569
8155,1377.446
8156,1378.450
8157,1379.512
8158,1380.566
8159,1381.463
8160,1382.066
8161,1382.341
8162,1382.287
8163,1381.980
8164,1381.582
8165,1381.234
8166,1381.021
8167,1380.914
8168,1380.840
8169,1380.693
8170,1380.398
8171,1379.918
8172,1379.237
8173,1378.381
8174,1377.438
8175,1376.520
8176,1375.683
8177,1374.958
8178,1374.400
8179,1374.068
8180,1373.957
8181,1374.007
8182,1374.117
8183,1374.171
8184,1374.052
8185,1373.679
8186,1373.019
8187,1372.133
8188,1371.145
8189,1370.198
8190,1369.440
8191,1368.936
8192,1368.690
8193,1368.657
8194,1368.780
8195,1369.014
8196,1369.321
8197,1369.661
8198,1370.014
8199,1370.309
8200,1370.448
8201,1370.387
8202,1370.129
8203,1369.666
8204,1369.055
8205,1368.366
8206,1367.583
8207,1366.694
8208,1365.788
8209,1364.955
8210,1364.230
8211,1363.627
8212,1363.209
8213,1362.967
8214,1362.857
8215,1362.750
8216,1362.504
8217,1361.996
8218,1361.237
8219,1360.389
8220,1359.675
8221,1359.208
8222,1358.884
8223,1358.540
8224,1358.134
8225,1357.732
8226,1357.327
8227,1356.732
8228,1355.781
8229,1354.527
8230,1353.211
8231,1352.075
8232,1351.272
8233,1350.936
8234,1351.243
8235,1352.297
8236,1354.051
8237,1356.445
8238,1359.430
8239,1362.848
8240,1366.353
8241,1369.502
8242,1371.908
8243,1373.367
8244,1373.851
8245,1373.511
8246,1372.646
8247,1371.682
8248,1371.031
8249,1370.908
8250,1371.256
8251,1371.887
8252,1372.633
8253,1373.367
8254,1374.003
8255,1374.527
8256,1375.044
8257,1375.765
8258,1376.905
8259,1378.516
8260,1380.434
8261,1382.312
8262,1383.833
8263,1384.837
8264,1385.317
8265,1385.272
8266,1384.743
8267,1383.878
8268,1382.878
8269,1381.955
8270,1381.275
8271,1380.930
8272,1380.869
8273,1380.918
8274,1380.894
8275,1380.676
8276,1380.229
8277,1379.606
8278,1378.909
8279,1378.217
8280,1377.557
8281,1376.958
8282,1376.438
8283,1376.015
8284,1375.737
8285,1375.655
8286,1375.814
8287,1376.315
8288,1377.200
8289,1378.422
8290,1379.873
8291,1381.504
8292,1383.345
8293,1385.489
8294,1388.035
8295,1391.048
8296,1394.528
8297,1398.332
8298,1402.210
8299,1405.916
8300,1409.285
8301,1412.179
8302,1414.442
8303,1415.930
8304,1416.558
8305,1416.299
8306,1415.233
8307,1413.545
8308,1411.454
8309,1409.125
8310,1406.686
8311,1404.333
8312,1402.325
8313,1400.878
8314,1400.013
8315,1399.517
8316,1399.086
8317,1398.603
8318,1398.180
8319,1398.020
8320,1398.205
8321,1398.693
8322,1399.345
8323,1399.890
8324,1400.050
8325,1399.701
8326,1398.976
8327,1398.148
8328,1397.463
8329,1397.061
8330,1396.992
8331,1397.221
8332,1397.684
8333,1398.291
8334,1398.984
8335,1399.738
8336,1400.492
8337,1401.165
8338,1401.706
8339,1402.144
8340,1402.538
8341,1402.927
8342,1403.288
8343,1403.567
8344,1403.682
8345,1403.567
8346,1403.231
8347,1402.776
8348,1402.378
8349,1402.181
8350,1402.251
8351,1402.546
8352,1402.927
8353,1403.128
8354,1402.849
8355,1401.915
8356,1400.435
8357,1398.717
8358,1397.102
8359,1395.766
8360,1394.733
8361,1393.954
8362,1393.409
8363,1393.118
8364,1393.032
8365,1392.974
8366,1392.765
8367,1392.327
8368,1391.691
8369,1390.961
8370,1390.252
8371,1389.613
8372,1389.109
8373,1388.809
8374,1388.649
8375,1388.379
8376,1387.719
8377,1386.485
8378,1384.554
8379,1381.861
8380,1378.454
8381,1374.552
8382,1370.559
8383,1366.964
8384,1364.238
8385,1362.713
8386,1362.529
8387,1363.611
8388,1365.685
8389,1368.300
8390,1371.035
8391,1373.609
8392,1375.868
8393,1377.700
8394,1378.942
8395,1379.348
8396,1378.664
8397,1376.815
8398,1374.003
8399,1370.703
8400,1367.546
8401,1365.082
8402,1363.668
8403,1363.439
8404,1364.295
8405,1365.984
8406,1368.165
8407,1370.461
8408,1372.576
8409,1374.363
8410,1375.798
8411,1376.917
8412,1377.844
8413,1378.700
8414,1379.459
8415,1379.951
8416,1380.057
8417,1379.836
8418,1379.442
8419,1379.000
8420,1378.565
8421,1378.176
8422,1377.848
8423,1377.598
8424,1377.446
8425,1377.360
8426,1377.229
8427,1376.917
8428,1376.388
8429,1375.683
8430,1374.872
8431,1374.072
8432,1373.412
8433,1372.945
8434,1372.633
8435,1372.449
8436,1372.375
8437,1372.449
8438,1372.674
8439,1372.982
8440,1373.285
8441,1373.580
8442,1373.871
8443,1374.085
8444,1374.142
8445,1374.052
8446,1373.826
8447,1373.466
8448,1373.064
8449,1372.810
8450,1372.871
8451,1373.252
8452,1373.798
8453,1374.294
8454,1374.650
8455,1374.896
8456,1375.073
8457,1375.200
8458,1375.323
8459,1375.540
8460,1375.917
8461,1376.442
8462,1377.028
8463,1377.548
8464,1377.885
8465,1378.004
8466,1377.954
8467,1377.782
8468,1377.491
8469,1377.081
8470,1376.589
8471,1376.044
8472,1375.441
8473,1374.794
8474,1374.240
8475,1374.003
8476,1374.187
8477,1374.724
8478,1375.466
8479,1376.315
8480,1377.167
8481,1377.971
8482,1378.762
8483,1379.623
8484,1380.549
8485,1381.435
8486,1382.160
8487,1382.697
8488,1383.062
8489,1383.349
8490,1383.693
8491,1384.284
8492,1385.292
8493,1386.764
8494,1388.600
8495,1390.679
8496,1392.900
8497,1395.184
8498,1397.385
8499,1399.332
8500,1400.894
8501,1402.005
8502,1402.608
8503,1402.669
8504,1402.169
8505,1401.120
8506,1399.562
8507,1397.475
8508,1394.811
8509,1391.556
8510,1387.793
8511,1383.685
8512,1379.459
8513,1375.376
8514,1371.695
8515,1368.579
8516,1366.054
8517,1364.058
8518,1362.574
8519,1361.606
8520,1361.077
8521,1360.795
8522,1360.565
8523,1360.294
8524,1359.938
8525,1359.499
8526,1358.975
8527,1358.384
8528,1357.794
8529,1357.273
8530,1356.872
8531,1356.568
8532,1356.322
8533,1356.113
8534,1355.908
8535,1355.670
8536,1355.371
8537,1354.982
8538,1354.457
8539,1353.822
8540,1353.182
8541,1352.621
8542,1352.211
8543,1352.141
8544,1352.690
8545,1354.084
8546,1356.376
8547,1359.368
8548,1362.664
8549,1365.783
8550,1368.403
8551,1370.453
8552,1372.060
8553,1373.359
8554,1374.413
8555,1375.273
8556,1375.999
8557,1376.638
8558,1377.204
8559,1377.745
8560,1378.372
8561,1379.176
8562,1380.123
8563,1381.221
8564,1382.537
8565,1384.087
8566,1385.743
8567,1387.325
8568,1388.727
8569,1389.949
8570,1391.056
8571,1392.048
8572,1392.917
8573,1393.687
8574,1394.372
8575,1394.971
8576,1395.487
8577,1395.942
8578,1396.356
8579,1396.762
8580,1397.119
8581,1397.274
8582,1397.065
8583,1396.446
8584,1395.536
8585,1394.552
8586,1393.765
8587,1393.364
8588,1393.380
8589,1393.700
8590,1394.130
8591,1394.438
8592,1394.429
8593,1393.983
8594,1393.027
8595,1391.597
8596,1389.846
8597,1387.981
8598,1386.075
8599,1384.009
8600,1381.631
8601,1379.000
8602,1376.401
8603,1374.195
8604,1372.568
8605,1371.506
8606,1370.871
8607,1370.518
8608,1370.362
8609,1370.375
8610,1370.567
8611,1370.985
8612,1371.723
8613,1372.896
8614,1374.589
8615,1376.827
8616,1379.565
8617,1382.636
8618,1385.727
8619,1388.440
8620,1390.494
8621,1391.843
8622,1392.626
8623,1392.962
8624,1392.905
8625,1392.540
8626,1391.994
8627,1391.359
8628,1390.740
8629,1390.260
8630,1389.961
8631,1389.740
8632,1389.416
8633,1388.854
8634,1388.014
8635,1387.038
8636,1386.190
8637,1385.645
8638,1385.354
8639,1385.149
8640,1384.882
8641,1384.509
8642,1384.034
8643,1383.492
8644,1382.955
8645,1382.484
8646,1382.111
