'sample interval','wrist_ppg'
'0.00390625 sec','mV'
0,1411.355
1,1403.096
2,1395.715
3,1389.979
4,1386.170
5,1384.156
6,1383.487
7,1383.623
8,1384.149
9,1384.787
10,1385.274
11,1385.382
12,1385.062
13,1384.428
14,1383.598
15,1382.668
16,1381.790
17,1381.204
18,1381.183
19,1381.898
20,1383.278
21,1385.076
22,1386.947
23,1388.571
24,1389.679
25,1390.139
26,1390.038
27,1389.589
28,1388.923
29,1388.003
30,1386.766
31,1385.362
32,1384.124
33,1383.319
34,1382.999
35,1383.069
36,1383.354
37,1383.650
38,1383.853
39,1383.992
40,1384.128
41,1384.239
42,1384.295
43,1384.285
44,1384.250
45,1384.327
46,1384.665
47,1385.355
48,1386.358
49,1387.574
50,1388.850
51,1390.038
52,1391.024
53,1391.693
54,1391.882
55,1391.547
56,1390.892
57,1390.205
58,1389.609
59,1388.982
60,1388.121
61,1386.940
62,1385.452
63,1383.689
64,1381.713
65,1379.716
66,1377.991
67,1376.782
68,1376.169
69,1376.040
70,1376.231
71,1376.629
72,1377.103
73,1377.441
74,1377.507
75,1377.378
76,1377.280
77,1377.371
78,1377.608
79,1377.887
80,1378.225
81,1378.719
82,1379.361
83,1379.984
84,1380.417
85,1380.598
86,1380.500
87,1380.117
88,1379.542
89,1378.915
90,1378.357
91,1377.977
92,1377.855
93,1377.925
94,1377.991
95,1377.915
96,1377.691
97,1377.395
98,1377.054
99,1376.688
100,1376.371
101,1376.207
102,1376.263
103,1376.569
104,1377.082
105,1377.705
106,1378.395
107,1379.190
108,1380.152
109,1381.263
110,1382.389
111,1383.420
112,1384.344
113,1385.138
114,1385.700
115,1385.874
116,1385.557
117,1384.818
118,1383.880
119,1382.929
120,1381.974
121,1380.971
122,1379.936
123,1378.946
124,1378.099
125,1377.601
126,1377.705
127,1378.542
128,1380.012
129,1381.776
130,1383.361
131,1384.354
132,1384.584
133,1384.107
134,1383.142
135,1382.044
136,1381.176
137,1380.748
138,1380.671
139,1380.615
140,1380.166
141,1379.030
142,1377.151
143,1374.761
144,1372.318
145,1370.314
146,1369.091
147,1368.708
148,1368.959
149,1369.492
150,1369.976
151,1370.231
152,1370.262
153,1370.109
154,1369.774
155,1369.251
156,1368.628
157,1368.073
158,1367.645
159,1367.230
160,1366.697
161,1365.972
162,1364.975
163,1363.676
164,1362.247
165,1360.982
166,1360.090
167,1359.574
168,1359.330
169,1359.240
170,1359.184
171,1359.079
172,1358.971
173,1358.971
174,1359.107
175,1359.389
176,1359.877
177,1360.595
178,1361.466
179,1362.411
180,1363.439
181,1364.575
182,1365.805
183,1367.056
184,1368.185
185,1369.101
186,1369.833
187,1370.457
188,1371.011
189,1371.419
190,1371.562
191,1371.325
192,1370.677
193,1369.722
194,1368.673
195,1367.749
196,1367.150
197,1367.052
198,1367.547
199,1368.628
200,1370.210
201,1372.067
202,1373.907
203,1375.548
204,1376.953
205,1378.036
206,1378.563
207,1378.273
208,1377.120
209,1375.350
210,1373.388
211,1371.624
212,1370.234
213,1369.237
214,1368.673
215,1368.621
216,1369.025
217,1369.614
218,1370.028
219,1370.077
220,1369.826
221,1369.446
222,1369.098
223,1368.959
224,1369.164
225,1369.687
226,1370.321
227,1370.886
228,1371.346
229,1371.739
230,1371.987
231,1371.942
232,1371.537
233,1370.788
234,1369.781
235,1368.767
236,1368.084
237,1367.924
238,1368.178
239,1368.561
240,1368.837
241,1368.938
242,1368.854
243,1368.596
244,1368.216
245,1367.732
246,1367.126
247,1366.439
248,1365.819
249,1365.348
250,1365.042
251,1364.937
252,1365.056
253,1365.265
254,1365.310
255,1365.070
256,1364.700
257,1364.515
258,1364.791
259,1365.655
260,1367.045
261,1368.680
262,1370.150
263,1371.151
264,1371.642
265,1371.827
266,1371.924
267,1371.962
268,1371.820
269,1371.405
270,1370.684
271,1369.642
272,1368.373
273,1367.185
274,1366.491
275,1366.565
276,1367.390
277,1368.729
278,1370.297
279,1371.921
280,1373.517
281,1374.911
282,1375.803
283,1375.946
284,1375.374
285,1374.409
286,1373.506
287,1372.997
288,1373.022
289,1373.607
290,1374.715
291,1376.252
292,1378.019
293,1379.678
294,1380.873
295,1381.445
296,1381.497
297,1381.302
298,1381.079
299,1380.831
300,1380.396
301,1379.608
302,1378.402
303,1376.838
304,1375.088
305,1373.433
306,1372.151
307,1371.381
308,1371.022
309,1370.847
310,1370.628
311,1370.300
312,1369.976
313,1369.833
314,1370.004
315,1370.537
316,1371.377
317,1372.342
318,1373.255
319,1374.008
320,1374.559
321,1374.876
322,1374.900
323,1374.587
324,1373.928
325,1372.949
326,1371.729
327,1370.509
328,1369.628
329,1369.335
330,1369.683
331,1370.579
332,1371.886
333,1373.538
334,1375.486
335,1377.583
336,1379.566
337,1381.169
338,1382.225
339,1382.696
340,1382.650
341,1382.250
342,1381.675
343,1381.033
344,1380.281
345,1379.291
346,1377.998
347,1376.524
348,1375.172
349,1374.255
350,1374.019
351,1374.597
352,1375.994
353,1378.099
354,1380.664
355,1383.354
356,1385.916
357,1388.257
358,1390.383
359,1392.282
360,1393.941
361,1395.352
362,1396.475
363,1397.269
364,1397.687
365,1397.698
366,1397.391
367,1396.973
368,1396.635
369,1396.412
370,1396.175
371,1395.736
372,1394.941
373,1393.763
374,1392.254
375,1390.512
376,1388.724
377,1387.215
378,1386.327
379,1386.281
380,1387.163
381,1388.954
382,1391.519
383,1394.565
384,1397.638
385,1400.214
386,1401.855
387,1402.406
388,1402.001
389,1400.970
390,1399.681
391,1398.517
392,1397.809
393,1397.680
394,1398.011
395,1398.551
396,1399.036
397,1399.276
398,1399.214
399,1398.882
400,1398.321
401,1397.572
402,1396.666
403,1395.593
404,1394.418
405,1393.296
406,1392.300
407,1391.432
408,1390.770
409,1390.442
410,1390.481
411,1390.798
412,1391.293
413,1391.906
414,1392.572
415,1393.206
416,1393.728
417,1394.105
418,1394.283
419,1394.213
420,1393.878
421,1393.300
422,1392.523
423,1391.603
424,1390.571
425,1389.477
426,1388.435
427,1387.606
428,1387.066
429,1386.759
430,1386.567
431,1386.390
432,1386.194
433,1386.034
434,1386.055
435,1386.421
436,1387.181
437,1388.254
438,1389.487
439,1390.732
440,1391.812
441,1392.512
442,1392.669
443,1392.251
444,1391.366
445,1390.191
446,1388.892
447,1387.595
448,1386.403
449,1385.368
450,1384.490
451,1383.790
452,1383.344
453,1383.208
454,1383.340
455,1383.647
456,1384.027
457,1384.407
458,1384.755
459,1385.027
460,1385.177
461,1385.166
462,1384.985
463,1384.623
464,1384.100
465,1383.532
466,1383.110
467,1382.971
468,1383.069
469,1383.288
470,1383.574
471,1383.891
472,1384.159
473,1384.358
474,1384.570
475,1384.877
476,1385.247
477,1385.567
478,1385.790
479,1385.940
480,1386.041
481,1386.142
482,1386.344
483,1386.696
484,1387.174
485,1387.731
486,1388.264
487,1388.627
488,1388.735
489,1388.550
490,1387.989
491,1386.996
492,1385.689
493,1384.368
494,1383.389
495,1382.964
496,1383.089
497,1383.542
498,1384.030
499,1384.361
500,1384.532
501,1384.598
502,1384.605
503,1384.668
504,1385.030
505,1385.905
506,1387.299
507,1388.951
508,1390.481
509,1391.617
510,1392.272
511,1392.481
512,1392.342
513,1391.899
514,1391.122
515,1390.007
516,1388.752
517,1387.693
518,1387.031
519,1386.710
520,1386.567
521,1386.477
522,1386.330
523,1386.104
524,1385.902
525,1385.842
526,1385.930
527,1386.083
528,1386.173
529,1386.083
530,1385.780
531,1385.344
532,1384.902
533,1384.501
534,1384.159
535,1383.818
536,1383.375
537,1382.762
538,1382.030
539,1381.302
540,1380.667
541,1380.173
542,1379.880
543,1379.894
544,1380.249
545,1380.751
546,1380.974
547,1380.444
548,1378.936
549,1376.608
550,1373.914
551,1371.360
552,1369.283
553,1367.812
554,1366.882
555,1366.303
556,1365.808
557,1365.171
558,1364.324
559,1363.404
560,1362.648
561,1362.289
562,1362.477
563,1363.306
564,1364.812
565,1366.937
566,1369.558
567,1372.422
568,1375.168
569,1377.364
570,1378.650
571,1378.810
572,1377.876
573,1376.068
574,1373.677
575,1370.990
576,1368.283
577,1365.808
578,1363.808
579,1362.449
580,1361.811
581,1361.923
582,1362.728
583,1364.069
584,1365.683
585,1367.230
586,1368.405
587,1369.035
588,1369.182
589,1369.035
590,1368.687
591,1368.098
592,1367.307
593,1366.544
594,1366.073
595,1366.010
596,1366.240
597,1366.575
598,1366.878
599,1367.073
600,1367.143
601,1367.115
602,1367.045
603,1366.997
604,1366.955
605,1366.781
606,1366.355
607,1365.749
608,1365.244
609,1365.115
610,1365.495
611,1366.293
612,1367.324
613,1368.415
614,1369.446
615,1370.269
616,1370.816
617,1371.168
618,1371.475
619,1371.834
620,1372.297
621,1372.931
622,1373.750
623,1374.712
624,1375.705
625,1376.611
626,1377.364
627,1377.963
628,1378.385
629,1378.608
630,1378.688
631,1378.733
632,1378.800
633,1378.883
634,1378.949
635,1378.922
636,1378.733
637,1378.441
638,1378.200
639,1378.148
640,1378.214
641,1378.124
642,1377.563
643,1376.423
644,1374.883
645,1373.301
646,1372.039
647,1371.332
648,1371.304
649,1371.969
650,1373.227
651,1374.820
652,1376.486
653,1378.057
654,1379.416
655,1380.434
656,1380.995
657,1381.079
658,1380.793
659,1380.270
660,1379.622
661,1378.932
662,1378.305
663,1377.827
664,1377.545
665,1377.475
666,1377.622
667,1377.949
668,1378.388
669,1378.869
670,1379.319
671,1379.657
672,1379.859
673,1379.998
674,1380.169
675,1380.385
676,1380.629
677,1380.985
678,1381.532
679,1382.222
680,1382.947
681,1383.619
682,1384.173
683,1384.574
684,1384.800
685,1384.821
686,1384.626
687,1384.205
688,1383.553
689,1382.706
690,1381.716
691,1380.643
692,1379.566
693,1378.573
694,1377.695
695,1376.942
696,1376.346
697,1375.946
698,1375.750
699,1375.723
700,1375.778
701,1375.865
702,1376.047
703,1376.458
704,1377.172
705,1378.151
706,1379.274
707,1380.420
708,1381.493
709,1382.424
710,1383.159
711,1383.637
712,1383.772
713,1383.539
714,1383.034
715,1382.417
716,1381.845
717,1381.455
718,1381.361
719,1381.619
720,1382.128
721,1382.622
722,1382.849
723,1382.800
724,1382.689
725,1382.758
726,1383.048
727,1383.375
728,1383.546
729,1383.595
730,1383.720
731,1384.044
732,1384.487
733,1384.881
734,1385.138
735,1385.309
736,1385.494
737,1385.686
738,1385.811
739,1385.863
740,1385.842
741,1385.790
742,1385.773
743,1385.856
744,1386.114
745,1386.626
746,1387.372
747,1388.229
748,1389.062
749,1389.721
750,1390.097
751,1390.115
752,1389.658
753,1388.557
754,1386.755
755,1384.414
756,1381.866
757,1379.458
758,1377.461
759,1376.085
760,1375.548
761,1376.029
762,1377.618
763,1380.277
764,1383.842
765,1388.034
766,1392.481
767,1396.795
768,1400.611
769,1403.643
770,1405.702
771,1406.751
772,1406.932
773,1406.528
774,1405.821
775,1404.974
776,1404.155
777,1403.643
778,1403.726
779,1404.479
780,1405.674
781,1406.953
782,1408.034
783,1408.765
784,1409.096
785,1409.072
786,1408.765
787,1408.260
788,1407.703
789,1407.295
790,1407.211
791,1407.535
792,1408.264
793,1409.309
794,1410.515
795,1411.748
796,1412.940
797,1414.034
798,1414.954
799,1415.651
800,1416.076
801,1416.198
802,1416.056
803,1415.690
804,1415.080
805,1414.181
806,1412.937
807,1411.337
808,1409.501
809,1407.643
810,1405.908
811,1404.277
812,1402.702
813,1401.284
814,1400.235
815,1399.719
816,1399.789
817,1400.395
818,1401.444
819,1402.855
820,1404.490
821,1406.093
822,1407.323
823,1407.901
824,1407.689
825,1406.626
826,1404.726
827,1402.130
828,1399.161
829,1396.248
830,1393.788
831,1392.059
832,1391.212
833,1391.314
834,1392.349
835,1394.199
836,1396.603
837,1399.200
838,1401.632
839,1403.632
840,1405.016
841,1405.650
842,1405.490
843,1404.594
844,1403.155
845,1401.378
846,1399.332
847,1396.987
848,1394.408
849,1391.895
850,1389.829
851,1388.480
852,1387.975
853,1388.306
854,1389.359
855,1390.930
856,1392.836
857,1394.976
858,1397.196
859,1399.207
860,1400.698
861,1401.566
862,1401.994
863,1402.231
864,1402.437
865,1402.594
866,1402.608
867,1402.454
868,1402.176
869,1401.817
870,1401.416
871,1401.067
872,1400.824
873,1400.764
874,1400.984
875,1401.454
876,1401.897
877,1401.984
878,1401.604
879,1400.921
880,1400.238
881,1399.809
882,1399.691
883,1399.733
884,1399.740
885,1399.684
886,1399.681
887,1399.775
888,1399.806
889,1399.583
890,1399.102
891,1398.520
892,1397.969
893,1397.485
894,1397.109
895,1396.854
896,1396.670
897,1396.492
898,1396.311
899,1396.102
900,1395.764
901,1395.213
902,1394.418
903,1393.411
904,1392.244
905,1390.948
906,1389.578
907,1388.299
908,1387.296
909,1386.654
910,1386.348
911,1386.261
912,1386.243
913,1386.243
914,1386.247
915,1386.219
916,1386.100
917,1385.874
918,1385.578
919,1385.320
920,1385.306
921,1385.759
922,1386.780
923,1388.331
924,1390.310
925,1392.568
926,1394.837
927,1396.753
928,1398.008
929,1398.433
930,1398.046
931,1397.032
932,1395.663
933,1394.213
934,1392.920
935,1391.934
936,1391.307
937,1390.951
938,1390.693
939,1390.456
940,1390.286
941,1390.198
942,1390.146
943,1390.080
944,1390.010
945,1389.937
946,1389.836
947,1389.704
948,1389.634
949,1389.704
950,1389.930
951,1390.348
952,1390.986
953,1391.749
954,1392.464
955,1393.025
956,1393.450
957,1393.746
958,1393.885
959,1393.889
960,1393.833
961,1393.763
962,1393.631
963,1393.370
964,1393.011
965,1392.641
966,1392.321
967,1392.077
968,1391.955
969,1391.923
970,1391.721
971,1390.906
972,1389.097
973,1386.177
974,1382.358
975,1378.124
976,1374.053
977,1370.628
978,1368.140
979,1366.749
980,1366.512
981,1367.401
982,1369.248
983,1371.715
984,1374.353
985,1376.712
986,1378.409
987,1379.092
988,1378.566
989,1376.897
990,1374.461
991,1371.813
992,1369.530
993,1368.028
994,1367.488
995,1367.885
996,1369.094
997,1370.917
998,1373.036
999,1375.040
1000,1376.535
1001,1377.301
1002,1377.385
1003,1377.071
1004,1376.768
1005,1376.834
1006,1377.427
1007,1378.458
1008,1379.667
1009,1380.796
1010,1381.720
1011,1382.525
1012,1383.382
1013,1384.299
1014,1385.027
1015,1385.240
1016,1384.738
1017,1383.535
1018,1381.831
1019,1379.967
1020,1378.228
1021,1376.677
1022,1375.168
1023,1373.611
1024,1372.133
1025,1370.983
1026,1370.311
1027,1370.081
1028,1370.203
1029,1370.694
1030,1371.687
1031,1373.262
1032,1375.280
1033,1377.312
1034,1378.855
1035,1379.531
1036,1379.179
1037,1377.855
1038,1375.803
1039,1373.346
1040,1370.802
1041,1368.436
1042,1366.390
1043,1364.651
1044,1363.167
1045,1361.933
1046,1360.982
1047,1360.355
1048,1360.024
1049,1359.884
1050,1359.748
1051,1359.452
1052,1358.905
1053,1358.177
1054,1357.480
1055,1357.121
1056,1357.403
1057,1358.560
1058,1360.689
1059,1363.780
1060,1367.701
1061,1372.161
1062,1376.643
1063,1380.500
1064,1383.194
1065,1384.417
1066,1384.069
1067,1382.173
1068,1378.852
1069,1374.367
1070,1369.216
1071,1364.059
1072,1359.511
1073,1356.016
1074,1353.828
1075,1353.030
1076,1353.577
1077,1355.333
1078,1358.055
1079,1361.407
1080,1364.958
1081,1368.227
1082,1370.785
1083,1372.429
1084,1373.308
1085,1373.733
1086,1373.924
1087,1373.921
1088,1373.761
1089,1373.559
1090,1373.423
1091,1373.370
1092,1373.503
1093,1374.043
1094,1375.186
1095,1376.918
1096,1379.019
1097,1381.190
1098,1383.138
1099,1384.612
1100,1385.480
1101,1385.815
1102,1385.839
1103,1385.787
1104,1385.766
1105,1385.801
1106,1385.860
1107,1385.877
1108,1385.790
1109,1385.647
1110,1385.598
1111,1385.825
1112,1386.532
1113,1387.926
1114,1390.094
1115,1392.917
1116,1396.102
1117,1399.266
1118,1402.054
1119,1404.249
1120,1405.793
1121,1406.681
1122,1406.904
1123,1406.479
1124,1405.507
1125,1404.162
1126,1402.660
1127,1401.235
1128,1400.120
1129,1399.503
1130,1399.475
1131,1399.893
1132,1400.377
1133,1400.475
1134,1399.942
1135,1398.834
1136,1397.464
1137,1396.231
1138,1395.474
1139,1395.352
1140,1395.826
1141,1396.711
1142,1397.691
1143,1398.464
1144,1398.931
1145,1399.214
1146,1399.499
1147,1399.917
1148,1400.566
1149,1401.465
1150,1402.555
1151,1403.740
1152,1404.897
1153,1405.922
1154,1406.796
1155,1407.591
1156,1408.302
1157,1408.772
1158,1408.832
1159,1408.476
1160,1407.873
1161,1407.176
1162,1406.451
1163,1405.821
1164,1405.462
1165,1405.525
1166,1406.012
1167,1406.765
1168,1407.473
1169,1407.776
1170,1407.490
1171,1406.744
1172,1405.936
1173,1405.462
1174,1405.500
1175,1405.925
1176,1406.438
1177,1406.838
1178,1407.128
1179,1407.323
1180,1407.274
1181,1406.765
1182,1405.741
1183,1404.343
1184,1402.723
1185,1401.050
1186,1399.552
1187,1398.478
1188,1397.997
1189,1398.172
1190,1398.914
1191,1399.984
1192,1401.088
1193,1402.085
1194,1403.019
1195,1403.939
1196,1404.726
1197,1405.218
1198,1405.392
1199,1405.364
1200,1405.183
1201,1404.873
1202,1404.521
1203,1404.239
1204,1404.127
1205,1404.308
1206,1404.838
1207,1405.545
1208,1406.075
1209,1406.113
1210,1405.584
1211,1404.625
1212,1403.374
1213,1401.865
1214,1400.179
1215,1398.541
1216,1397.203
1217,1396.255
1218,1395.614
1219,1395.150
1220,1394.791
1221,1394.547
1222,1394.439
1223,1394.457
1224,1394.530
1225,1394.589
1226,1394.621
1227,1394.621
1228,1394.586
1229,1394.509
1230,1394.272
1231,1393.690
1232,1392.680
1233,1391.422
1234,1390.317
1235,1389.690
1236,1389.616
1237,1389.951
1238,1390.529
1239,1391.247
1240,1391.990
1241,1392.624
1242,1393.059
1243,1393.181
1244,1392.885
1245,1392.209
1246,1391.310
1247,1390.258
1248,1388.944
1249,1387.289
1250,1385.417
1251,1383.626
1252,1382.225
1253,1381.413
1254,1381.263
1255,1381.744
1256,1382.751
1257,1384.142
1258,1385.706
1259,1387.146
1260,1388.153
1261,1388.599
1262,1388.648
1263,1388.592
1264,1388.602
1265,1388.637
1266,1388.494
1267,1387.993
1268,1387.059
1269,1385.773
1270,1384.327
1271,1382.954
1272,1381.828
1273,1381.019
1274,1380.532
1275,1380.336
1276,1380.403
1277,1380.695
1278,1381.166
1279,1381.702
1280,1382.225
1281,1382.730
1282,1383.330
1283,1384.163
1284,1385.267
1285,1386.543
1286,1387.825
1287,1388.986
1288,1389.982
1289,1390.801
1290,1391.408
1291,1391.868
1292,1392.275
1293,1392.652
1294,1392.983
1295,1393.262
1296,1393.397
1297,1393.293
1298,1392.997
1299,1392.676
1300,1392.387
1301,1392.066
1302,1391.669
1303,1391.216
1304,1390.773
1305,1390.387
1306,1390.069
1307,1389.787
1308,1389.501
1309,1389.205
1310,1388.986
1311,1388.930
1312,1389.031
1313,1389.163
1314,1389.167
1315,1388.916
1316,1388.446
1317,1387.933
1318,1387.543
1319,1387.320
1320,1387.181
1321,1386.996
1322,1386.748
1323,1386.567
1324,1386.564
1325,1386.741
1326,1387.010
1327,1387.254
1328,1387.383
1329,1387.275
1330,1386.801
1331,1386.027
1332,1385.222
1333,1384.605
1334,1384.222
1335,1383.985
1336,1383.783
1337,1383.549
1338,1383.285
1339,1383.023
1340,1382.790
1341,1382.626
1342,1382.602
1343,1382.807
1344,1383.260
1345,1383.853
1346,1384.386
1347,1384.668
1348,1384.522
1349,1383.825
1350,1382.602
1351,1381.016
1352,1379.159
1353,1376.876
1354,1373.907
1355,1370.199
1356,1366.021
1357,1361.839
1358,1358.083
1359,1355.051
1360,1352.904
1361,1351.712
1362,1351.472
1363,1352.113
1364,1353.486
1365,1355.344
1366,1357.361
1367,1359.240
1368,1360.839
1369,1362.184
1370,1363.303
1371,1364.049
1372,1364.198
1373,1363.707
1374,1362.815
1375,1361.916
1376,1361.275
1377,1360.891
1378,1360.588
1379,1360.198
1380,1359.644
1381,1358.888
1382,1358.006
1383,1357.163
1384,1356.521
1385,1356.135
1386,1355.922
1387,1355.727
1388,1355.445
1389,1355.082
1390,1354.709
1391,1354.472
1392,1354.570
1393,1355.093
1394,1355.898
1395,1356.804
1396,1357.661
1397,1358.326
1398,1358.678
1399,1358.665
1400,1358.267
1401,1357.522
1402,1356.535
1403,1355.452
1404,1354.458
1405,1353.779
1406,1353.573
1407,1353.911
1408,1354.667
1409,1355.479
1410,1355.946
1411,1355.856
1412,1355.340
1413,1354.793
1414,1354.577
1415,1354.828
1416,1355.427
1417,1356.152
1418,1356.842
1419,1357.452
1420,1357.947
1421,1358.299
1422,1358.581
1423,1358.947
1424,1359.466
1425,1360.027
1426,1360.330
1427,1360.125
1428,1359.372
1429,1358.187
1430,1356.622
1431,1354.612
1432,1352.085
1433,1349.144
1434,1346.060
1435,1343.157
1436,1340.711
1437,1338.909
1438,1337.871
1439,1337.648
1440,1338.278
1441,1339.763
1442,1342.087
1443,1345.178
1444,1348.851
1445,1352.744
1446,1356.382
1447,1359.267
1448,1361.003
1449,1361.383
1450,1360.407
1451,1358.285
1452,1355.410
1453,1352.319
1454,1349.520
1455,1347.325
1456,1345.774
1457,1344.677
1458,1343.753
1459,1342.885
1460,1342.213
1461,1342.004
1462,1342.457
1463,1343.568
1464,1345.123
1465,1346.753
1466,1348.137
1467,1349.165
1468,1349.946
1469,1350.590
1470,1351.165
1471,1351.719
1472,1352.263
1473,1352.838
1474,1353.542
1475,1354.455
1476,1355.535
1477,1356.696
1478,1357.870
1479,1358.950
1480,1359.776
1481,1360.264
1482,1360.498
1483,1360.640
1484,1360.843
1485,1361.222
1486,1361.839
1487,1362.658
1488,1363.522
1489,1364.244
1490,1364.752
1491,1365.059
1492,1365.160
1493,1365.066
1494,1364.885
1495,1364.714
1496,1364.488
1497,1364.052
1498,1363.400
1499,1362.731
1500,1362.317
1501,1362.355
1502,1362.916
1503,1363.972
1504,1365.432
1505,1367.157
1506,1368.976
1507,1370.704
1508,1372.165
1509,1373.179
1510,1373.653
1511,1373.674
1512,1373.468
1513,1373.252
1514,1373.168
1515,1373.356
1516,1373.970
1517,1375.151
1518,1376.946
1519,1379.193
1520,1381.493
1521,1383.393
1522,1384.675
1523,1385.386
1524,1385.644
1525,1385.550
1526,1385.229
1527,1384.839
1528,1384.483
1529,1384.274
1530,1384.281
1531,1384.522
1532,1384.971
1533,1385.644
1534,1386.525
1535,1387.512
1536,1388.421
1537,1389.066
1538,1389.407
1539,1389.599
1540,1389.836
1541,1390.195
1542,1390.676
1543,1391.293
1544,1392.014
1545,1392.676
1546,1393.101
1547,1393.241
1548,1393.136
1549,1392.781
1550,1392.105
1551,1391.150
1552,1390.212
1553,1389.697
1554,1389.864
1555,1390.700
1556,1391.937
1557,1393.199
1558,1394.213
1559,1394.885
1560,1395.237
1561,1395.328
1562,1395.192
1563,1394.840
1564,1394.276
1565,1393.593
1566,1392.896
1567,1392.188
1568,1391.383
1569,1390.484
1570,1389.627
1571,1388.923
1572,1388.372
1573,1387.871
1574,1387.261
1575,1386.421
1576,1385.372
1577,1384.264
1578,1383.292
1579,1382.598
1580,1382.155
1581,1381.884
1582,1381.702
1583,1381.563
1584,1381.420
1585,1381.201
1586,1380.807
1587,1380.214
1588,1379.430
1589,1378.437
1590,1377.326
1591,1376.364
1592,1375.862
1593,1375.925
1594,1376.374
1595,1376.904
1596,1377.252
1597,1377.284
1598,1376.988
1599,1376.416
1600,1375.618
1601,1374.656
1602,1373.611
1603,1372.590
1604,1371.708
1605,1371.042
1606,1370.656
1607,1370.565
1608,1370.753
1609,1371.245
1610,1372.032
1611,1373.011
1612,1373.998
1613,1374.830
1614,1375.426
1615,1375.782
1616,1375.973
1617,1376.050
1618,1376.029
1619,1376.001
1620,1376.127
1621,1376.500
1622,1377.057
1623,1377.643
1624,1378.183
1625,1378.716
1626,1379.267
1627,1379.741
1628,1379.974
1629,1379.856
1630,1379.497
1631,1379.200
1632,1379.288
1633,1379.894
1634,1380.932
1635,1382.159
1636,1383.337
1637,1384.386
1638,1385.362
1639,1386.250
1640,1386.850
1641,1386.898
1642,1386.278
1643,1384.999
1644,1383.117
1645,1380.814
1646,1378.458
1647,1376.430
1648,1374.987
1649,1374.245
1650,1374.217
1651,1374.830
1652,1375.932
1653,1377.319
1654,1378.862
1655,1380.605
1656,1382.598
1657,1384.769
1658,1386.902
1659,1388.738
1660,1390.080
1661,1390.902
1662,1391.317
1663,1391.470
1664,1391.460
1665,1391.289
1666,1390.934
1667,1390.411
1668,1389.784
1669,1389.104
1670,1388.383
1671,1387.602
1672,1386.696
1673,1385.557
1674,1384.065
1675,1382.135
1676,1379.737
1677,1376.977
1678,1374.109
1679,1371.436
1680,1369.213
1681,1367.666
1682,1366.951
1683,1367.098
1684,1367.997
1685,1369.408
1686,1370.945
1687,1372.084
1688,1372.384
1689,1371.736
1690,1370.457
1691,1369.074
1692,1368.070
1693,1367.739
1694,1368.168
1695,1369.269
1696,1370.844
1697,1372.579
1698,1374.116
1699,1375.224
1700,1375.935
1701,1376.423
1702,1376.841
1703,1377.259
1704,1377.702
1705,1378.092
1706,1378.266
1707,1378.064
1708,1377.364
1709,1376.106
1710,1374.336
1711,1372.248
1712,1370.098
1713,1368.133
1714,1366.578
1715,1365.519
1716,1364.840
1717,1364.223
1718,1363.285
1719,1361.829
1720,1360.024
1721,1358.326
1722,1357.190
1723,1356.873
1724,1357.393
1725,1358.515
1726,1359.842
1727,1360.916
1728,1361.351
1729,1360.975
1730,1359.898
1731,1358.455
1732,1357.006
1733,1355.744
1734,1354.664
1735,1353.573
1736,1352.221
1737,1350.468
1738,1348.381
1739,1346.248
1740,1344.391
1741,1343.056
1742,1342.401
1743,1342.478
1744,1343.286
1745,1344.760
1746,1346.802
1747,1349.256
1748,1351.855
1749,1354.281
1750,1356.270
1751,1357.755
1752,1358.786
1753,1359.400
1754,1359.623
1755,1359.546
1756,1359.323
1757,1359.079
1758,1358.804
1759,1358.393
1760,1357.835
1761,1357.225
1762,1356.685
1763,1356.288
1764,1356.002
1765,1355.713
1766,1355.309
1767,1354.765
1768,1354.166
1769,1353.626
1770,1353.176
1771,1352.754
1772,1352.200
1773,1351.423
1774,1350.489
1775,1349.562
1776,1348.796
1777,1348.255
1778,1347.924
1779,1347.729
1780,1347.642
1781,1347.656
1782,1347.785
1783,1348.043
1784,1348.444
1785,1348.952
1786,1349.458
1787,1349.768
1788,1349.688
1789,1349.175
1790,1348.343
1791,1347.381
1792,1346.461
1793,1345.652
1794,1344.976
1795,1344.467
1796,1344.231
1797,1344.373
1798,1344.952
1799,1345.914
1800,1347.102
1801,1348.336
1802,1349.433
1803,1350.176
1804,1350.339
1805,1349.883
1806,1349.026
1807,1348.127
1808,1347.391
1809,1346.809
1810,1346.259
1811,1345.516
1812,1344.339
1813,1342.638
1814,1340.589
1815,1338.526
1816,1336.756
1817,1335.456
1818,1334.696
1819,1334.487
1820,1334.794
1821,1335.519
1822,1336.512
1823,1337.557
1824,1338.421
1825,1338.920
1826,1338.989
1827,1338.679
1828,1338.104
1829,1337.453
1830,1336.979
1831,1336.961
1832,1337.627
1833,1339.111
1834,1341.450
1835,1344.555
1836,1348.182
1837,1351.914
1838,1355.225
1839,1357.685
1840,1359.135
1841,1359.682
1842,1359.511
1843,1358.769
1844,1357.619
1845,1356.375
1846,1355.472
1847,1355.270
1848,1355.814
1849,1356.783
1850,1357.699
1851,1358.239
1852,1358.372
1853,1358.218
1854,1357.800
1855,1356.922
1856,1355.333
1857,1352.977
1858,1350.106
1859,1347.119
1860,1344.401
1861,1342.227
1862,1340.791
1863,1340.240
1864,1340.634
1865,1341.958
1866,1344.105
1867,1346.886
1868,1349.980
1869,1352.936
1870,1355.298
1871,1356.866
1872,1357.772
1873,1358.253
1874,1358.407
1875,1358.243
1876,1357.880
1877,1357.497
1878,1357.170
1879,1356.891
1880,1356.661
1881,1356.497
1882,1356.427
1883,1356.466
1884,1356.643
1885,1357.089
1886,1358.006
1887,1359.483
1888,1361.445
1889,1363.759
1890,1366.355
1891,1369.171
1892,1372.025
1893,1374.573
1894,1376.420
1895,1377.225
1896,1376.789
1897,1375.109
1898,1372.468
1899,1369.384
1900,1366.446
1901,1364.129
1902,1362.710
1903,1362.289
1904,1362.839
1905,1364.216
1906,1366.129
1907,1368.188
1908,1370.119
1909,1371.900
1910,1373.726
1911,1375.764
1912,1378.036
1913,1380.431
1914,1382.790
1915,1384.968
1916,1386.790
1917,1388.062
1918,1388.634
1919,1388.599
1920,1388.289
1921,1388.069
1922,1388.146
1923,1388.568
1924,1389.359
1925,1390.505
1926,1391.916
1927,1393.492
1928,1395.070
1929,1396.398
1930,1397.206
1931,1397.374
1932,1396.983
1933,1396.335
1934,1395.785
1935,1395.586
1936,1395.771
1937,1396.171
1938,1396.548
1939,1396.785
1940,1396.889
1941,1396.882
1942,1396.746
1943,1396.450
1944,1395.931
1945,1395.199
1946,1394.377
1947,1393.659
1948,1393.289
1949,1393.509
1950,1394.446
1951,1396.063
1952,1398.116
1953,1400.144
1954,1401.622
1955,1402.186
1956,1401.663
1957,1400.036
1958,1397.457
1959,1394.279
1960,1391.003
1961,1388.142
1962,1386.027
1963,1384.724
1964,1384.121
1965,1384.041
1966,1384.347
1967,1384.954
1968,1385.727
1969,1386.431
1970,1386.839
1971,1386.895
1972,1386.762
1973,1386.654
1974,1386.595
1975,1386.390
1976,1385.752
1977,1384.539
1978,1382.954
1979,1381.441
1980,1380.410
1981,1380.051
1982,1380.371
1983,1381.187
1984,1382.190
1985,1383.100
1986,1383.835
1987,1384.490
1988,1385.118
1989,1385.578
1990,1385.710
1991,1385.501
1992,1385.093
1993,1384.626
1994,1384.170
1995,1383.692
1996,1383.177
1997,1382.668
1998,1382.166
1999,1381.581
2000,1380.856
2001,1380.033
2002,1379.169
2003,1378.319
2004,1377.570
2005,1376.988
2006,1376.555
2007,1376.224
2008,1375.946
2009,1375.663
2010,1375.350
2011,1375.040
2012,1374.820
2013,1374.823
2014,1375.165
2015,1375.932
2016,1377.179
2017,1378.876
2018,1380.863
2019,1382.926
2020,1384.748
2021,1385.933
2022,1386.166
2023,1385.334
2024,1383.542
2025,1381.110
2026,1378.517
2027,1376.176
2028,1374.221
2029,1372.524
2030,1370.962
2031,1369.638
2032,1368.784
2033,1368.526
2034,1368.750
2035,1369.265
2036,1370.028
2037,1371.175
2038,1372.795
2039,1374.705
2040,1376.482
2041,1377.678
2042,1377.988
2043,1377.371
2044,1375.977
2045,1374.032
2046,1371.715
2047,1369.234
2048,1366.923
2049,1365.143
2050,1364.010
2051,1363.327
2052,1362.766
2053,1362.142
2054,1361.526
2055,1361.121
2056,1361.041
2057,1361.191
2058,1361.397
2059,1361.609
2060,1361.916
2061,1362.379
2062,1362.975
2063,1363.704
2064,1364.624
2065,1365.728
2066,1366.815
2067,1367.586
2068,1367.795
2069,1367.415
2070,1366.669
2071,1365.833
2072,1365.035
2073,1364.268
2074,1363.501
2075,1362.669
2076,1361.703
2077,1360.564
2078,1359.257
2079,1357.821
2080,1356.284
2081,1354.688
2082,1353.183
2083,1352.061
2084,1351.604
2085,1352.002
2086,1353.281
2087,1355.270
2088,1357.616
2089,1359.870
2090,1361.630
2091,1362.672
2092,1362.961
2093,1362.550
2094,1361.553
2095,1360.180
2096,1358.734
2097,1357.570
2098,1356.964
2099,1356.999
2100,1357.480
2101,1358.051
2102,1358.403
2103,1358.410
2104,1358.107
2105,1357.522
2106,1356.581
2107,1355.253
2108,1353.671
2109,1352.057
2110,1350.608
2111,1349.426
2112,1348.520
2113,1347.876
2114,1347.538
2115,1347.520
2116,1347.715
2117,1347.942
2118,1348.099
2119,1348.179
2120,1348.144
2121,1347.959
2122,1347.663
2123,1347.370
2124,1347.172
2125,1347.071
2126,1347.018
2127,1346.994
2128,1346.980
2129,1346.980
2130,1347.001
2131,1347.008
2132,1346.875
2133,1346.482
2134,1345.837
2135,1345.060
2136,1344.258
2137,1343.492
2138,1342.844
2139,1342.363
2140,1342.007
2141,1341.739
2142,1341.624
2143,1341.760
2144,1342.199
2145,1342.917
2146,1343.774
2147,1344.579
2148,1345.175
2149,1345.482
2150,1345.471
2151,1345.150
2152,1344.534
2153,1343.673
2154,1342.641
2155,1341.512
2156,1340.348
2157,1339.202
2158,1338.122
2159,1337.240
2160,1336.763
2161,1336.832
2162,1337.386
2163,1338.209
2164,1339.136
2165,1340.094
2166,1341.007
2167,1341.826
2168,1342.568
2169,1343.241
2170,1343.767
2171,1344.109
2172,1344.356
2173,1344.603
2174,1344.858
2175,1345.164
2176,1345.590
2177,1346.084
2178,1346.492
2179,1346.712
2180,1346.726
2181,1346.590
2182,1346.377
2183,1346.057
2184,1345.461
2185,1344.394
2186,1342.781
2187,1340.788
2188,1338.718
2189,1336.850
2190,1335.344
2191,1334.278
2192,1333.682
2193,1333.529
2194,1333.724
2195,1334.163
2196,1334.815
2197,1335.707
2198,1336.905
2199,1338.453
2200,1340.335
2201,1342.439
2202,1344.576
2203,1346.527
2204,1348.130
2205,1349.318
2206,1350.148
2207,1350.712
2208,1351.050
2209,1351.207
2210,1351.367
2211,1351.786
2212,1352.587
2213,1353.685
2214,1354.904
2215,1356.148
2216,1357.368
2217,1358.515
2218,1359.539
2219,1360.344
2220,1360.780
2221,1360.776
2222,1360.403
2223,1359.787
2224,1359.104
2225,1358.563
2226,1358.302
2227,1358.354
2228,1358.727
2229,1359.428
2230,1360.466
2231,1361.794
2232,1363.285
2233,1364.773
2234,1366.101
2235,1367.171
2236,1367.955
2237,1368.478
2238,1368.791
2239,1368.892
2240,1368.781
2241,1368.537
2242,1368.265
2243,1368.070
2244,1368.028
2245,1368.185
2246,1368.537
2247,1369.060
2248,1369.704
2249,1370.328
2250,1370.764
2251,1370.966
2252,1371.063
2253,1371.238
2254,1371.628
2255,1372.297
2256,1373.137
2257,1373.904
2258,1374.374
2259,1374.566
2260,1374.684
2261,1374.911
2262,1375.242
2263,1375.559
2264,1375.806
2265,1376.005
2266,1376.179
2267,1376.266
2268,1376.176
2269,1375.886
2270,1375.486
2271,1375.088
2272,1374.799
2273,1374.681
2274,1374.792
2275,1375.203
2276,1375.928
2277,1376.876
2278,1377.876
2279,1378.758
2280,1379.392
2281,1379.768
2282,1380.023
2283,1380.298
2284,1380.633
2285,1381.019
2286,1381.469
2287,1381.884
2288,1382.075
2289,1381.905
2290,1381.431
2291,1380.922
2292,1380.678
2293,1380.828
2294,1381.291
2295,1381.845
2296,1382.225
2297,1382.302
2298,1382.162
2299,1382.114
2300,1382.431
2301,1383.180
2302,1384.218
2303,1385.278
2304,1386.125
2305,1386.606
2306,1386.686
2307,1386.431
2308,1385.856
2309,1384.919
2310,1383.678
2311,1382.389
2312,1381.316
2313,1380.654
2314,1380.518
2315,1380.988
2316,1382.061
2317,1383.581
2318,1385.215
2319,1386.613
2320,1387.616
2321,1388.278
2322,1388.689
2323,1388.822
2324,1388.627
2325,1388.212
2326,1387.864
2327,1387.857
2328,1388.240
2329,1388.857
2330,1389.536
2331,1390.202
2332,1390.805
2333,1391.212
2334,1391.219
2335,1390.679
2336,1389.613
2337,1388.195
2338,1386.644
2339,1385.173
2340,1383.922
2341,1382.905
2342,1382.072
2343,1381.420
2344,1380.943
2345,1380.539
2346,1380.040
2347,1379.281
2348,1378.253
2349,1377.040
2350,1375.712
2351,1374.318
2352,1372.949
2353,1371.694
2354,1370.614
2355,1369.697
2356,1368.913
2357,1368.248
2358,1367.746
2359,1367.478
2360,1367.523
2361,1367.927
2362,1368.669
2363,1369.687
2364,1370.854
2365,1371.997
2366,1372.977
2367,1373.722
2368,1374.196
2369,1374.353
2370,1374.217
2371,1373.841
2372,1373.231
2373,1372.409
2374,1371.502
2375,1370.687
2376,1370.084
2377,1369.687
2378,1369.429
2379,1369.304
2380,1369.345
2381,1369.492
2382,1369.666
2383,1369.889
2384,1370.255
2385,1370.851
2386,1371.757
2387,1373.032
2388,1374.674
2389,1376.587
2390,1378.573
2391,1380.371
2392,1381.783
2393,1382.793
2394,1383.441
2395,1383.755
2396,1383.772
2397,1383.591
2398,1383.407
2399,1383.490
2400,1383.999
2401,1384.891
2402,1385.964
2403,1386.958
2404,1387.665
2405,1387.965
2406,1387.850
2407,1387.341
2408,1386.438
2409,1385.222
2410,1383.884
2411,1382.588
2412,1381.476
2413,1380.657
2414,1380.162
2415,1379.880
2416,1379.646
2417,1379.403
2418,1379.138
2419,1378.866
2420,1378.653
2421,1378.639
2422,1378.855
2423,1379.127
2424,1379.197
2425,1378.946
2426,1378.437
2427,1377.719
2428,1376.691
2429,1375.189
2430,1373.220
2431,1371.046
2432,1369.011
2433,1367.415
2434,1366.439
2435,1366.098
2436,1366.178
2437,1366.244
2438,1365.770
2439,1364.421
2440,1362.240
2441,1359.585
2442,1356.863
2443,1354.371
2444,1352.319
2445,1350.855
2446,1350.088
2447,1350.081
2448,1350.859
2449,1352.374
2450,1354.511
2451,1357.142
2452,1360.180
2453,1363.575
2454,1367.146
2455,1370.572
2456,1373.478
2457,1375.541
2458,1376.535
2459,1376.350
2460,1375.040
2461,1372.823
2462,1370.098
2463,1367.376
2464,1365.097
2465,1363.428
2466,1362.282
2467,1361.480
2468,1360.933
2469,1360.637
2470,1360.550
2471,1360.529
2472,1360.369
2473,1359.909
2474,1359.152
2475,1358.211
2476,1357.121
2477,1355.810
2478,1354.291
2479,1352.789
2480,1351.632
2481,1351.068
2482,1351.148
2483,1351.733
2484,1352.531
2485,1353.211
2486,1353.570
2487,1353.681
2488,1353.800
2489,1354.106
2490,1354.573
2491,1355.075
2492,1355.594
2493,1356.201
2494,1356.852
2495,1357.337
2496,1357.438
2497,1357.013
2498,1355.884
2499,1353.950
2500,1351.353
2501,1348.440
2502,1345.593
2503,1343.133
2504,1341.321
2505,1340.352
2506,1340.335
2507,1341.268
2508,1343.004
2509,1345.300
2510,1347.830
2511,1350.183
2512,1351.967
2513,1352.998
2514,1353.427
2515,1353.580
2516,1353.720
2517,1353.943
2518,1354.295
2519,1354.779
2520,1355.270
2521,1355.514
2522,1355.312
2523,1354.678
2524,1353.772
2525,1352.716
2526,1351.563
2527,1350.413
2528,1349.465
2529,1348.938
2530,1348.925
2531,1349.315
2532,1349.813
2533,1350.113
2534,1350.106
2535,1349.858
2536,1349.447
2537,1348.963
2538,1348.607
2539,1348.618
2540,1349.116
2541,1349.966
2542,1350.852
2543,1351.461
2544,1351.684
2545,1351.667
2546,1351.751
2547,1352.252
2548,1353.343
2549,1354.953
2550,1356.849
2551,1358.776
2552,1360.536
2553,1362.013
2554,1363.156
2555,1364.003
2556,1364.630
2557,1365.129
2558,1365.568
2559,1365.986
2560,1366.463
2561,1367.087
2562,1367.847
2563,1368.617
2564,1369.255
2565,1369.666
2566,1369.802
2567,1369.663
2568,1369.297
2569,1368.767
2570,1368.094
2571,1367.272
2572,1366.352
2573,1365.481
2574,1364.829
2575,1364.502
2576,1364.536
2577,1364.888
2578,1365.495
2579,1366.300
2580,1367.258
2581,1368.321
2582,1369.419
2583,1370.478
2584,1371.433
2585,1372.269
2586,1373.022
2587,1373.740
2588,1374.447
2589,1375.137
2590,1375.841
2591,1376.587
2592,1377.367
2593,1378.110
2594,1378.664
2595,1378.838
2596,1378.521
2597,1377.747
2598,1376.663
2599,1375.458
2600,1374.280
2601,1373.214
2602,1372.255
2603,1371.335
2604,1370.356
2605,1369.241
2606,1367.969
2607,1366.613
2608,1365.366
2609,1364.498
2610,1364.289
2611,1364.864
2612,1366.139
2613,1367.850
2614,1369.638
2615,1371.161
2616,1372.234
2617,1372.858
2618,1373.172
2619,1373.367
2620,1373.590
2621,1373.872
2622,1374.182
2623,1374.461
2624,1374.663
2625,1374.778
2626,1374.841
2627,1374.904
2628,1375.022
2629,1375.196
2630,1375.367
2631,1375.451
2632,1375.433
2633,1375.364
2634,1375.315
2635,1375.388
2636,1375.691
2637,1376.287
2638,1377.211
2639,1378.437
2640,1379.849
2641,1381.277
2642,1382.609
2643,1383.786
2644,1384.748
2645,1385.421
2646,1385.703
2647,1385.487
2648,1384.724
2649,1383.567
2650,1382.291
2651,1381.103
2652,1380.113
2653,1379.385
2654,1378.911
2655,1378.604
2656,1378.388
2657,1378.246
2658,1378.183
2659,1378.172
2660,1378.155
2661,1378.158
2662,1378.385
2663,1379.078
2664,1380.329
2665,1381.985
2666,1383.692
2667,1385.023
2668,1385.616
2669,1385.288
2670,1384.023
2671,1382.040
2672,1379.782
2673,1377.758
2674,1376.381
2675,1375.946
2676,1376.639
2677,1378.545
2678,1381.567
2679,1385.403
2680,1389.592
2681,1393.575
2682,1396.826
2683,1399.001
2684,1399.987
2685,1399.848
2686,1398.778
2687,1397.056
2688,1394.983
2689,1392.767
2690,1390.502
2691,1388.254
2692,1386.201
2693,1384.612
2694,1383.637
2695,1383.184
2696,1383.009
2697,1382.898
2698,1382.845
2699,1383.006
2700,1383.438
2701,1384.065
2702,1384.790
2703,1385.581
2704,1386.330
2705,1386.930
2706,1387.452
2707,1388.142
2708,1389.170
2709,1390.449
2710,1391.721
2711,1392.742
2712,1393.394
2713,1393.687
2714,1393.732
2715,1393.669
2716,1393.648
2717,1393.864
2718,1394.398
2719,1395.119
2720,1395.816
2721,1396.325
2722,1396.576
2723,1396.537
2724,1396.178
2725,1395.516
2726,1394.645
2727,1393.690
2728,1392.690
2729,1391.652
2730,1390.634
2731,1389.731
2732,1389.028
2733,1388.588
2734,1388.466
2735,1388.689
2736,1389.205
2737,1389.853
2738,1390.390
2739,1390.620
2740,1390.536
2741,1390.233
2742,1389.826
2743,1389.404
2744,1389.041
2745,1388.815
2746,1388.721
2747,1388.679
2748,1388.623
2749,1388.519
2750,1388.282
2751,1387.857
2752,1387.236
2753,1386.386
2754,1385.295
2755,1384.023
2756,1382.671
2757,1381.344
2758,1380.148
2759,1379.239
2760,1378.723
2761,1378.573
2762,1378.678
2763,1378.956
2764,1379.322
2765,1379.573
2766,1379.476
2767,1378.988
2768,1378.305
2769,1377.709
2770,1377.336
2771,1377.110
2772,1376.900
2773,1376.754
2774,1376.886
2775,1377.434
2776,1378.315
2777,1379.322
2778,1380.187
2779,1380.626
2780,1380.382
2781,1379.399
2782,1377.873
2783,1376.197
2784,1374.813
2785,1373.994
2786,1373.743
2787,1373.869
2788,1374.154
2789,1374.433
2790,1374.559
2791,1374.391
2792,1373.827
2793,1372.869
2794,1371.701
2795,1370.656
2796,1370.039
2797,1369.955
2798,1370.272
2799,1370.795
2800,1371.367
2801,1371.914
2802,1372.426
2803,1372.997
2804,1373.792
2805,1374.921
2806,1376.217
2807,1377.284
2808,1377.702
2809,1377.228
2810,1375.893
2811,1373.998
2812,1371.976
2813,1370.203
2814,1368.837
2815,1367.836
2816,1367.087
2817,1366.505
2818,1366.052
2819,1365.739
2820,1365.571
2821,1365.568
2822,1365.829
2823,1366.429
2824,1367.307
2825,1368.307
2826,1369.182
2827,1369.697
2828,1369.778
2829,1369.561
2830,1369.293
2831,1369.143
2832,1369.171
2833,1369.338
2834,1369.568
2835,1369.778
2836,1369.903
2837,1369.858
2838,1369.506
2839,1368.760
2840,1367.704
2841,1366.585
2842,1365.592
2843,1364.707
2844,1363.829
2845,1362.996
2846,1362.379
2847,1362.038
2848,1361.850
2849,1361.668
2850,1361.456
2851,1361.191
2852,1360.752
2853,1360.062
2854,1359.246
2855,1358.602
2856,1358.365
2857,1358.588
2858,1359.201
2859,1360.076
2860,1361.048
2861,1361.979
2862,1362.832
2863,1363.620
2864,1364.331
2865,1364.937
2866,1365.432
2867,1365.878
2868,1366.314
2869,1366.704
2870,1366.920
2871,1366.767
2872,1366.108
2873,1364.965
2874,1363.561
2875,1362.233
2876,1361.236
2877,1360.592
2878,1360.104
2879,1359.609
2880,1359.159
2881,1358.936
2882,1358.996
2883,1359.240
2884,1359.591
2885,1360.114
2886,1360.860
2887,1361.724
2888,1362.487
2889,1362.933
2890,1362.839
2891,1362.024
2892,1360.550
2893,1358.790
2894,1357.250
2895,1356.337
2896,1356.229
2897,1356.953
2898,1358.389
2899,1360.177
2900,1361.742
2901,1362.554
2902,1362.351
2903,1361.240
2904,1359.546
2905,1357.612
2906,1355.682
2907,1354.012
2908,1352.894
2909,1352.510
2910,1352.838
2911,1353.751
2912,1355.089
2913,1356.608
2914,1358.002
2915,1359.016
2916,1359.511
2917,1359.490
2918,1359.107
2919,1358.539
2920,1357.814
2921,1356.790
2922,1355.316
2923,1353.396
2924,1351.266
2925,1349.336
2926,1347.987
2927,1347.395
2928,1347.457
2929,1347.917
2930,1348.580
2931,1349.353
2932,1350.158
2933,1350.789
2934,1350.994
2935,1350.670
2936,1350.005
2937,1349.336
2938,1348.907
2939,1348.740
2940,1348.785
2941,1349.071
2942,1349.667
2943,1350.555
2944,1351.587
2945,1352.629
2946,1353.514
2947,1353.960
2948,1353.587
2949,1352.200
2950,1349.987
2951,1347.454
2952,1345.175
2953,1343.600
2954,1342.993
2955,1343.464
2956,1344.917
2957,1347.067
2958,1349.454
2959,1351.611
2960,1353.298
2961,1354.549
2962,1355.431
2963,1355.856
2964,1355.615
2965,1354.647
2966,1353.096
2967,1351.238
2968,1349.465
2969,1348.228
2970,1347.907
2971,1348.705
2972,1350.615
2973,1353.413
2974,1356.706
2975,1359.964
2976,1362.637
2977,1364.383
2978,1365.125
2979,1365.035
2980,1364.481
2981,1363.920
2982,1363.710
2983,1363.902
2984,1364.209
2985,1364.205
2986,1363.609
2987,1362.421
2988,1360.898
2989,1359.459
2990,1358.553
2991,1358.508
2992,1359.361
2993,1360.815
2994,1362.376
2995,1363.609
2996,1364.268
2997,1364.362
2998,1364.055
2999,1363.480
3000,1362.700
3001,1361.790
3002,1360.856
3003,1359.912
3004,1358.929
3005,1357.940
3006,1357.065
3007,1356.504
3008,1356.410
3009,1356.793
3010,1357.556
3011,1358.539
3012,1359.515
3013,1360.264
3014,1360.672
3015,1360.714
3016,1360.386
3017,1359.748
3018,1358.954
3019,1358.100
3020,1357.194
3021,1356.284
3022,1355.518
3023,1355.093
3024,1355.197
3025,1355.922
3026,1357.211
3027,1358.940
3028,1360.958
3029,1363.118
3030,1365.233
3031,1367.153
3032,1368.844
3033,1370.366
3034,1371.781
3035,1373.133
3036,1374.503
3037,1375.928
3038,1377.340
3039,1378.643
3040,1379.772
3041,1380.744
3042,1381.629
3043,1382.469
3044,1383.253
3045,1383.943
3046,1384.459
3047,1384.769
3048,1384.943
3049,1385.062
3050,1385.173
3051,1385.334
3052,1385.588
3053,1385.950
3054,1386.435
3055,1387.052
3056,1387.763
3057,1388.491
3058,1389.202
3059,1389.958
3060,1390.819
3061,1391.794
3062,1392.836
3063,1393.843
3064,1394.680
3065,1395.196
3066,1395.297
3067,1395.070
3068,1394.774
3069,1394.596
3070,1394.485
3071,1394.216
3072,1393.631
3073,1392.777
3074,1391.780
3075,1390.787
3076,1390.003
3077,1389.630
3078,1389.756
3079,1390.292
3080,1391.073
3081,1391.934
3082,1392.735
3083,1393.335
3084,1393.617
3085,1393.547
3086,1393.202
3087,1392.753
3088,1392.443
3089,1392.436
3090,1392.645
3091,1392.781
3092,1392.599
3093,1392.094
3094,1391.456
3095,1390.906
3096,1390.637
3097,1390.780
3098,1391.394
3099,1392.422
3100,1393.711
3101,1395.088
3102,1396.412
3103,1397.597
3104,1398.628
3105,1399.545
3106,1400.374
3107,1401.074
3108,1401.548
3109,1401.775
3110,1401.799
3111,1401.580
3112,1400.998
3113,1400.060
3114,1398.956
3115,1397.865
3116,1396.886
3117,1396.105
3118,1395.589
3119,1395.293
3120,1395.129
3121,1395.053
3122,1395.018
3123,1394.938
3124,1394.697
3125,1394.171
3126,1393.230
3127,1391.739
3128,1389.585
3129,1386.863
3130,1383.898
3131,1381.145
3132,1379.026
3133,1377.824
3134,1377.660
3135,1378.496
3136,1380.180
3137,1382.490
3138,1385.194
3139,1387.993
3140,1390.491
3141,1392.216
3142,1392.711
3143,1391.704
3144,1389.219
3145,1385.651
3146,1381.633
3147,1377.848
3148,1374.844
3149,1372.942
3150,1372.269
3151,1372.778
3152,1374.276
3153,1376.416
3154,1378.758
3155,1380.863
3156,1382.420
3157,1383.386
3158,1383.891
3159,1383.995
3160,1383.657
3161,1382.912
3162,1381.971
3163,1381.089
3164,1380.441
3165,1380.131
3166,1380.228
3167,1380.737
3168,1381.563
3169,1382.609
3170,1383.776
3171,1384.898
3172,1385.672
3173,1385.849
3174,1385.417
3175,1384.584
3176,1383.623
3177,1382.786
3178,1382.277
3179,1382.194
3180,1382.553
3181,1383.337
3182,1384.476
3183,1385.888
3184,1387.536
3185,1389.338
3186,1391.073
3187,1392.491
3188,1393.467
3189,1394.063
3190,1394.558
3191,1395.387
3192,1396.934
3193,1399.304
3194,1402.263
3195,1405.361
3196,1408.142
3197,1410.257
3198,1411.497
3199,1411.804
3200,1411.208
3201,1409.783
3202,1407.661
3203,1405.110
3204,1402.503
3205,1400.168
3206,1398.252
3207,1396.649
3208,1395.126
3209,1393.554
3210,1391.979
3211,1390.505
3212,1389.163
3213,1387.979
3214,1386.999
3215,1386.250
3216,1385.672
3217,1385.128
3218,1384.522
3219,1383.863
3220,1383.204
3221,1382.588
3222,1382.072
3223,1381.692
3224,1381.427
3225,1381.211
3226,1381.009
3227,1380.877
3228,1380.866
3229,1380.992
3230,1381.218
3231,1381.459
3232,1381.636
3233,1381.716
3234,1381.615
3235,1381.211
3236,1380.514
3237,1379.754
3238,1379.228
3239,1379.009
3240,1378.883
3241,1378.423
3242,1377.186
3243,1374.890
3244,1371.534
3245,1367.397
3246,1362.951
3247,1358.665
3248,1354.866
3249,1351.723
3250,1349.252
3251,1347.381
3252,1346.018
3253,1345.077
3254,1344.506
3255,1344.342
3256,1344.684
3257,1345.607
3258,1347.123
3259,1349.175
3260,1351.688
3261,1354.545
3262,1357.549
3263,1360.379
3264,1362.609
3265,1363.825
3266,1363.787
3267,1362.606
3268,1360.731
3269,1358.783
3270,1357.239
3271,1356.239
3272,1355.619
3273,1355.120
3274,1354.667
3275,1354.371
3276,1354.389
3277,1354.720
3278,1355.263
3279,1355.978
3280,1356.870
3281,1357.891
3282,1358.992
3283,1360.212
3284,1361.522
3285,1362.658
3286,1363.202
3287,1362.871
3288,1361.724
3289,1360.104
3290,1358.375
3291,1356.689
3292,1354.918
3293,1352.786
3294,1350.141
3295,1347.119
3296,1344.077
3297,1341.397
3298,1339.359
3299,1338.122
3300,1337.700
3301,1337.989
3302,1338.836
3303,1340.115
3304,1341.718
3305,1343.565
3306,1345.544
3307,1347.457
3308,1349.015
3309,1350.001
3310,1350.444
3311,1350.569
3312,1350.555
3313,1350.353
3314,1349.848
3315,1349.074
3316,1348.269
3317,1347.642
3318,1347.266
3319,1347.095
3320,1347.064
3321,1347.074
3322,1347.050
3323,1346.956
3324,1346.900
3325,1347.039
3326,1347.381
3327,1347.848
3328,1348.395
3329,1349.012
3330,1349.611
3331,1350.064
3332,1350.284
3333,1350.263
3334,1350.068
3335,1349.834
3336,1349.688
3337,1349.670
3338,1349.743
3339,1349.806
3340,1349.803
3341,1349.858
3342,1350.231
3343,1351.075
3344,1352.319
3345,1353.793
3346,1355.302
3347,1356.560
3348,1357.180
3349,1356.870
3350,1355.594
3351,1353.598
3352,1351.357
3353,1349.374
3354,1347.998
3355,1347.409
3356,1347.642
3357,1348.632
3358,1350.270
3359,1352.427
3360,1354.960
3361,1357.671
3362,1360.316
3363,1362.676
3364,1364.627
3365,1366.129
3366,1367.192
3367,1367.854
3368,1368.181
3369,1368.206
3370,1367.945
3371,1367.373
3372,1366.491
3373,1365.415
3374,1364.341
3375,1363.390
3376,1362.567
3377,1361.871
3378,1361.386
3379,1361.208
3380,1361.407
3381,1362.080
3382,1363.285
3383,1364.937
3384,1366.875
3385,1368.920
3386,1370.813
3387,1372.213
3388,1372.970
3389,1373.189
3390,1373.105
3391,1372.889
3392,1372.600
3393,1372.255
3394,1371.921
3395,1371.719
3396,1371.732
3397,1371.928
3398,1372.255
3399,1372.694
3400,1373.238
3401,1373.872
3402,1374.621
3403,1375.454
3404,1376.231
3405,1376.803
3406,1377.116
3407,1377.218
3408,1377.207
3409,1377.190
3410,1377.228
3411,1377.385
3412,1377.782
3413,1378.542
3414,1379.688
3415,1381.148
3416,1382.779
3417,1384.379
3418,1385.731
3419,1386.637
3420,1386.919
3421,1386.393
3422,1384.968
3423,1382.772
3424,1380.169
3425,1377.587
3426,1375.308
3427,1373.363
3428,1371.670
3429,1370.196
3430,1368.990
3431,1368.014
3432,1367.171
3433,1366.418
3434,1365.808
3435,1365.449
3436,1365.401
3437,1365.683
3438,1366.296
3439,1367.195
3440,1368.296
3441,1369.488
3442,1370.645
3443,1371.666
3444,1372.541
3445,1373.367
3446,1374.287
3447,1375.440
3448,1376.932
3449,1378.803
3450,1381.006
3451,1383.354
3452,1385.581
3453,1387.428
3454,1388.832
3455,1389.961
3456,1391.066
3457,1392.289
3458,1393.610
3459,1394.959
3460,1396.349
3461,1397.795
3462,1399.214
3463,1400.479
3464,1401.527
3465,1402.312
3466,1402.716
3467,1402.716
3468,1402.447
3469,1402.176
3470,1402.071
3471,1402.102
3472,1402.141
3473,1402.183
3474,1402.360
3475,1402.778
3476,1403.420
3477,1404.214
3478,1405.120
3479,1406.023
3480,1406.720
3481,1407.037
3482,1406.950
3483,1406.553
3484,1405.988
3485,1405.399
3486,1404.883
3487,1404.476
3488,1404.211
3489,1404.200
3490,1404.535
3491,1405.186
3492,1406.054
3493,1407.082
3494,1408.232
3495,1409.445
3496,1410.609
3497,1411.595
3498,1412.313
3499,1412.818
3500,1413.212
3501,1413.560
3502,1413.818
3503,1413.895
3504,1413.742
3505,1413.404
3506,1412.999
3507,1412.654
3508,1412.421
3509,1412.302
3510,1412.282
3511,1412.383
3512,1412.658
3513,1413.142
3514,1413.822
3515,1414.637
3516,1415.526
3517,1416.425
3518,1417.254
3519,1417.962
3520,1418.495
3521,1418.864
3522,1419.154
3523,1419.338
3524,1419.286
3525,1418.917
3526,1418.345
3527,1417.801
3528,1417.442
3529,1417.345
3530,1417.582
3531,1418.119
3532,1418.680
3533,1418.816
3534,1418.178
3535,1416.707
3536,1414.613
3537,1412.198
3538,1409.790
3539,1407.678
3540,1406.016
3541,1404.789
3542,1403.981
3543,1403.695
3544,1404.054
3545,1405.002
3546,1406.288
3547,1407.574
3548,1408.650
3549,1409.536
3550,1410.347
3551,1411.132
3552,1411.783
3553,1412.121
3554,1412.024
3555,1411.515
3556,1410.699
3557,1409.675
3558,1408.532
3559,1407.358
3560,1406.249
3561,1405.281
3562,1404.472
3563,1403.820
3564,1403.259
3565,1402.705
3566,1402.043
3567,1401.179
3568,1400.123
3569,1399.029
3570,1398.078
3571,1397.381
3572,1396.962
3573,1396.750
3574,1396.628
3575,1396.475
3576,1396.206
3577,1395.753
3578,1395.122
3579,1394.443
3580,1393.878
3581,1393.516
3582,1393.317
3583,1393.147
3584,1392.868
3585,1392.397
3586,1391.655
3587,1390.603
3588,1389.320
3589,1388.003
3590,1386.815
3591,1385.842
3592,1385.145
3593,1384.793
3594,1384.856
3595,1385.389
3596,1386.390
3597,1387.745
3598,1389.244
3599,1390.620
3600,1391.606
3601,1392.000
3602,1391.794
3603,1391.219
3604,1390.610
3605,1390.164
3606,1389.941
3607,1389.954
3608,1390.198
3609,1390.571
3610,1390.948
3611,1391.240
3612,1391.387
3613,1391.268
3614,1390.794
3615,1389.927
3616,1388.724
3617,1387.316
3618,1385.874
3619,1384.490
3620,1383.225
3621,1382.145
3622,1381.249
3623,1380.441
3624,1379.709
3625,1379.225
3626,1379.190
3627,1379.601
3628,1380.218
3629,1380.751
3630,1381.103
3631,1381.361
3632,1381.629
3633,1381.901
3634,1382.114
3635,1382.229
3636,1382.229
3637,1382.096
3638,1381.835
3639,1381.490
3640,1381.110
3641,1380.626
3642,1379.908
3643,1378.963
3644,1378.026
3645,1377.420
3646,1377.343
3647,1377.709
3648,1378.138
3649,1378.148
3650,1377.468
3651,1376.183
3652,1374.646
3653,1373.245
3654,1372.241
3655,1371.694
3656,1371.506
3657,1371.530
3658,1371.666
3659,1371.858
3660,1372.158
3661,1372.666
3662,1373.419
3663,1374.332
3664,1375.283
3665,1376.137
3666,1376.782
3667,1377.148
3668,1377.228
3669,1377.106
3670,1376.946
3671,1376.876
3672,1376.900
3673,1376.935
3674,1376.942
3675,1377.026
3676,1377.392
3677,1378.186
3678,1379.389
3679,1380.817
3680,1382.257
3681,1383.581
3682,1384.745
3683,1385.745
3684,1386.574
3685,1387.229
3686,1387.724
3687,1388.090
3688,1388.376
3689,1388.599
3690,1388.742
3691,1388.759
3692,1388.627
3693,1388.372
3694,1388.062
3695,1387.717
3696,1387.268
3697,1386.658
3698,1385.881
3699,1384.964
3700,1383.905
3701,1382.724
3702,1381.500
3703,1380.343
3704,1379.336
3705,1378.479
3706,1377.705
3707,1376.904
3708,1375.973
3709,1374.778
3710,1373.259
3711,1371.604
3712,1370.206
3713,1369.471
3714,1369.621
3715,1370.638
3716,1372.290
3717,1374.168
3718,1375.845
3719,1377.015
3720,1377.566
3721,1377.528
3722,1377.001
3723,1376.113
3724,1374.987
3725,1373.761
3726,1372.590
3727,1371.638
3728,1371.004
3729,1370.708
3730,1370.771
3731,1371.189
3732,1371.844
3733,1372.524
3734,1373.060
3735,1373.388
3736,1373.510
3737,1373.409
3738,1373.036
3739,1372.409
3740,1371.611
3741,1370.799
3742,1370.150
3743,1369.826
3744,1369.899
3745,1370.346
3746,1371.060
3747,1371.882
3748,1372.628
3749,1373.182
3750,1373.572
3751,1373.862
3752,1374.064
3753,1374.120
3754,1373.876
3755,1373.172
3756,1371.907
3757,1370.095
3758,1367.854
3759,1365.383
3760,1362.954
3761,1360.923
3762,1359.644
3763,1359.382
3764,1360.254
3765,1362.247
3766,1365.181
3767,1368.732
3768,1372.468
3769,1375.925
3770,1378.601
3771,1380.044
3772,1380.044
3773,1378.699
3774,1376.413
3775,1373.771
3776,1371.346
3777,1369.523
3778,1368.443
3779,1368.080
3780,1368.324
3781,1369.018
3782,1369.913
3783,1370.694
3784,1371.036
3785,1370.718
3786,1369.781
3787,1368.554
3788,1367.502
3789,1367.018
3790,1367.255
3791,1368.087
3792,1369.192
3793,1370.269
3794,1371.213
3795,1372.036
3796,1372.736
3797,1373.248
3798,1373.485
3799,1373.454
3800,1373.245
3801,1373.001
3802,1372.855
3803,1372.903
3804,1373.172
3805,1373.667
3806,1374.437
3807,1375.454
3808,1376.587
3809,1377.681
3810,1378.622
3811,1379.305
3812,1379.639
3813,1379.570
3814,1379.085
3815,1378.246
3816,1377.186
3817,1376.071
3818,1375.043
3819,1374.214
3820,1373.632
3821,1373.283
3822,1373.078
3823,1373.001
3824,1373.151
3825,1373.611
3826,1374.374
3827,1375.381
3828,1376.479
3829,1377.385
3830,1377.869
3831,1377.974
3832,1377.967
3833,1378.131
3834,1378.601
3835,1379.420
3836,1380.587
3837,1382.044
3838,1383.595
3839,1384.922
3840,1385.679
3841,1385.717
3842,1385.163
3843,1384.333
3844,1383.553
3845,1383.062
3846,1382.971
3847,1383.288
3848,1383.975
3849,1385.010
3850,1386.424
3851,1388.257
3852,1390.529
3853,1393.241
3854,1396.342
3855,1399.642
3856,1402.775
3857,1405.291
3858,1406.884
3859,1407.581
3860,1407.682
3861,1407.511
3862,1407.218
3863,1406.814
3864,1406.291
3865,1405.591
3866,1404.587
3867,1403.197
3868,1401.423
3869,1399.329
3870,1397.025
3871,1394.715
3872,1392.582
3873,1390.742
3874,1389.285
3875,1388.278
3876,1387.731
3877,1387.578
3878,1387.721
3879,1388.034
3880,1388.383
3881,1388.634
3882,1388.662
3883,1388.331
3884,1387.599
3885,1386.592
3886,1385.553
3887,1384.710
3888,1384.205
3889,1384.076
3890,1384.264
3891,1384.630
3892,1385.013
3893,1385.341
3894,1385.682
3895,1386.201
3896,1387.052
3897,1388.271
3898,1389.756
3899,1391.268
3900,1392.540
3901,1393.429
3902,1394.004
3903,1394.412
3904,1394.722
3905,1394.969
3906,1395.216
3907,1395.523
3908,1395.920
3909,1396.440
3910,1397.084
3911,1397.792
3912,1398.482
3913,1399.102
3914,1399.632
3915,1400.067
3916,1400.377
3917,1400.517
3918,1400.423
3919,1400.113
3920,1399.684
3921,1399.301
3922,1399.119
3923,1399.210
3924,1399.517
3925,1399.911
3926,1400.287
3927,1400.653
3928,1401.071
3929,1401.538
3930,1401.949
3931,1402.172
3932,1402.102
3933,1401.667
3934,1400.865
3935,1399.747
3936,1398.388
3937,1396.889
3938,1395.370
3939,1393.931
3940,1392.690
3941,1391.749
3942,1391.181
3943,1391.021
3944,1391.303
3945,1392.017
3946,1393.045
3947,1394.244
3948,1395.516
3949,1396.746
3950,1397.708
3951,1398.091
3952,1397.624
3953,1396.255
3954,1394.213
3955,1391.923
3956,1389.721
3957,1387.689
3958,1385.731
3959,1383.696
3960,1381.525
3961,1379.389
3962,1377.685
3963,1376.775
3964,1376.820
3965,1377.758
3966,1379.305
3967,1381.006
3968,1382.417
3969,1383.305
3970,1383.734
3971,1383.901
3972,1383.961
3973,1384.009
3974,1384.135
3975,1384.337
3976,1384.438
3977,1384.239
3978,1383.699
3979,1382.842
3980,1381.720
3981,1380.399
3982,1379.026
3983,1377.841
3984,1377.054
3985,1376.670
3986,1376.489
3987,1376.336
3988,1376.242
3989,1376.381
3990,1376.859
3991,1377.597
3992,1378.423
3993,1379.221
3994,1379.883
3995,1380.239
3996,1380.099
3997,1379.382
3998,1378.169
3999,1376.719
4000,1375.287
4001,1374.005
4002,1372.935
4003,1372.098
4004,1371.492
4005,1371.126
4006,1371.018
4007,1371.217
4008,1371.736
4009,1372.583
4010,1373.743
4011,1375.214
4012,1377.022
4013,1379.186
4014,1381.671
4015,1384.299
4016,1386.794
4017,1388.916
4018,1390.550
4019,1391.697
4020,1392.411
4021,1392.728
4022,1392.648
4023,1392.195
4024,1391.467
4025,1390.589
4026,1389.693
4027,1388.899
4028,1388.275
4029,1387.878
4030,1387.728
4031,1387.714
4032,1387.512
4033,1386.752
4034,1385.240
4035,1383.058
4036,1380.493
4037,1377.866
4038,1375.412
4039,1373.280
4040,1371.482
4041,1369.906
4042,1368.425
4043,1366.962
4044,1365.564
4045,1364.460
4046,1363.930
4047,1364.143
4048,1365.052
4049,1366.394
4050,1367.763
4051,1368.791
4052,1369.349
4053,1369.513
4054,1369.453
4055,1369.335
4056,1369.283
4057,1369.349
4058,1369.471
4059,1369.481
4060,1369.209
4061,1368.680
4062,1368.136
4063,1367.871
4064,1367.972
4065,1368.248
4066,1368.380
4067,1368.060
4068,1367.178
4069,1365.882
4070,1364.456
4071,1363.136
4072,1362.020
4073,1361.188
4074,1360.822
4075,1361.135
4076,1362.160
4077,1363.693
4078,1365.307
4079,1366.505
4080,1366.927
4081,1366.495
4082,1365.394
4083,1363.996
4084,1362.714
4085,1361.874
4086,1361.553
4087,1361.595
4088,1361.742
4089,1361.846
4090,1361.909
4091,1361.905
4092,1361.658
4093,1360.923
4094,1359.640
4095,1357.988
4096,1356.211
4097,1354.472
4098,1352.793
4099,1351.200
4100,1349.886
4101,1349.196
4102,1349.482
4103,1350.946
4104,1353.612
4105,1357.285
4106,1361.529
4107,1365.728
4108,1369.283
4109,1371.767
4110,1372.942
4111,1372.740
4112,1371.231
4113,1368.641
4114,1365.369
4115,1361.926
4116,1358.842
4117,1356.574
4118,1355.396
4119,1355.309
4120,1356.068
4121,1357.326
4122,1358.762
4123,1360.139
4124,1361.316
4125,1362.233
4126,1362.797
4127,1362.912
4128,1362.606
4129,1362.059
4130,1361.494
4131,1360.968
4132,1360.393
4133,1359.720
4134,1359.100
4135,1358.783
4136,1358.874
4137,1359.243
4138,1359.703
4139,1360.173
4140,1360.647
4141,1361.104
4142,1361.526
4143,1361.867
4144,1362.087
4145,1362.184
4146,1362.139
4147,1361.912
4148,1361.557
4149,1361.177
4150,1360.863
4151,1360.654
4152,1360.525
4153,1360.414
4154,1360.278
4155,1360.118
4156,1359.950
4157,1359.828
4158,1359.814
4159,1359.929
4160,1360.184
4161,1360.553
4162,1360.975
4163,1361.365
4164,1361.703
4165,1362.055
4166,1362.491
4167,1362.996
4168,1363.439
4169,1363.707
4170,1363.819
4171,1363.853
4172,1363.850
4173,1363.801
4174,1363.665
4175,1363.411
4176,1363.122
4177,1363.014
4178,1363.230
4179,1363.683
4180,1364.101
4181,1364.195
4182,1363.843
4183,1363.139
4184,1362.379
4185,1361.895
4186,1361.860
4187,1362.257
4188,1362.895
4189,1363.547
4190,1364.101
4191,1364.641
4192,1365.324
4193,1366.199
4194,1367.094
4195,1367.666
4196,1367.575
4197,1366.666
4198,1365.090
4199,1363.278
4200,1361.721
4201,1360.766
4202,1360.581
4203,1361.146
4204,1362.313
4205,1363.864
4206,1365.596
4207,1367.397
4208,1369.244
4209,1371.074
4210,1372.722
4211,1374.046
4212,1375.071
4213,1375.960
4214,1376.820
4215,1377.608
4216,1378.207
4217,1378.542
4218,1378.667
4219,1378.719
4220,1378.737
4221,1378.625
4222,1378.329
4223,1377.970
4224,1377.786
4225,1377.911
4226,1378.294
4227,1378.768
4228,1379.183
4229,1379.403
4230,1379.312
4231,1378.834
4232,1378.005
4233,1377.026
4234,1376.162
4235,1375.583
4236,1375.350
4237,1375.489
4238,1375.994
4239,1376.758
4240,1377.580
4241,1378.256
4242,1378.598
4243,1378.486
4244,1377.918
4245,1376.949
4246,1375.719
4247,1374.499
4248,1373.635
4249,1373.353
4250,1373.733
4251,1374.757
4252,1376.263
4253,1377.974
4254,1379.622
4255,1381.061
4256,1382.257
4257,1383.218
4258,1383.936
4259,1384.386
4260,1384.602
4261,1384.668
4262,1384.644
4263,1384.595
4264,1384.591
4265,1384.727
4266,1385.111
4267,1385.801
4268,1386.700
4269,1387.665
4270,1388.609
4271,1389.491
4272,1390.275
4273,1390.840
4274,1390.979
4275,1390.585
4276,1389.801
4277,1388.906
4278,1388.101
4279,1387.386
4280,1386.748
4281,1386.344
4282,1386.491
4283,1387.498
4284,1389.446
4285,1392.115
4286,1395.007
4287,1397.544
4288,1399.276
4289,1399.935
4290,1399.409
4291,1397.733
4292,1395.088
4293,1391.784
4294,1388.236
4295,1384.853
4296,1382.016
4297,1380.065
4298,1379.190
4299,1379.281
4300,1379.974
4301,1380.821
4302,1381.528
4303,1381.992
4304,1382.149
4305,1381.926
4306,1381.298
4307,1380.319
4308,1379.078
4309,1377.650
4310,1376.057
4311,1374.360
4312,1372.701
4313,1371.276
4314,1370.269
4315,1369.788
4316,1369.812
4317,1370.196
4318,1370.795
4319,1371.551
4320,1372.468
4321,1373.538
4322,1374.761
4323,1376.172
4324,1377.698
4325,1379.176
4326,1380.399
4327,1381.249
4328,1381.734
4329,1382.013
4330,1382.379
4331,1383.110
4332,1384.309
4333,1385.815
4334,1387.257
4335,1388.264
4336,1388.609
4337,1388.313
4338,1387.651
4339,1387.027
4340,1386.773
4341,1386.992
4342,1387.564
4343,1388.278
4344,1389.041
4345,1389.909
4346,1390.916
4347,1392.000
4348,1393.021
4349,1393.784
4350,1394.014
4351,1393.492
4352,1392.167
4353,1390.132
4354,1387.477
4355,1384.309
4356,1380.859
4357,1377.458
4358,1374.402
4359,1371.893
4360,1370.021
4361,1368.763
4362,1368.032
4363,1367.721
4364,1367.767
4365,1368.161
4366,1369.004
4367,1370.426
4368,1372.499
4369,1375.186
4370,1378.315
4371,1381.584
4372,1384.665
4373,1387.264
4374,1389.083
4375,1389.878
4376,1389.564
4377,1388.299
4378,1386.435
4379,1384.379
4380,1382.347
4381,1380.378
4382,1378.458
4383,1376.639
4384,1375.029
4385,1373.743
4386,1372.865
4387,1372.391
4388,1372.297
4389,1372.572
4390,1373.234
4391,1374.315
4392,1375.750
4393,1377.413
4394,1379.159
4395,1380.800
4396,1382.030
4397,1382.626
4398,1382.591
4399,1382.089
4400,1381.274
4401,1380.197
4402,1378.953
4403,1377.765
4404,1376.880
4405,1376.392
4406,1376.231
4407,1376.318
4408,1376.545
4409,1376.765
4410,1376.838
4411,1376.688
4412,1376.388
4413,1376.137
4414,1376.127
4415,1376.357
4416,1376.681
4417,1377.026
4418,1377.444
4419,1377.991
4420,1378.622
4421,1379.239
4422,1379.720
4423,1379.932
4424,1379.761
4425,1379.173
4426,1378.242
4427,1377.116
4428,1375.946
4429,1374.810
4430,1373.674
4431,1372.489
4432,1371.342
4433,1370.429
4434,1369.854
4435,1369.513
4436,1369.122
4437,1368.394
4438,1367.178
4439,1365.554
4440,1363.752
4441,1362.090
4442,1360.895
4443,1360.414
4444,1360.734
4445,1361.759
4446,1363.303
4447,1365.178
4448,1367.220
4449,1369.255
4450,1371.070
4451,1372.433
4452,1373.137
4453,1373.067
4454,1372.276
4455,1370.952
4456,1369.370
4457,1367.694
4458,1365.861
4459,1363.634
4460,1360.891
4461,1357.786
4462,1354.695
4463,1352.005
4464,1349.949
4465,1348.600
4466,1347.907
4467,1347.754
4468,1347.977
4469,1348.384
4470,1348.733
4471,1348.855
4472,1348.796
4473,1348.851
4474,1349.343
4475,1350.451
4476,1352.186
4477,1354.396
4478,1356.811
4479,1359.083
4480,1360.891
4481,1362.041
4482,1362.599
4483,1362.843
4484,1363.080
4485,1363.411
4486,1363.690
4487,1363.724
4488,1363.512
4489,1363.177
4490,1362.794
4491,1362.376
4492,1361.954
4493,1361.546
4494,1361.100
4495,1360.567
4496,1359.961
4497,1359.260
4498,1358.330
4499,1357.082
4500,1355.685
4501,1354.514
4502,1353.932
4503,1354.180
4504,1355.371
4505,1357.494
4506,1360.396
4507,1363.829
4508,1367.572
4509,1371.440
4510,1375.224
4511,1378.604
4512,1381.215
4513,1382.751
4514,1383.075
4515,1382.204
4516,1380.277
4517,1377.566
4518,1374.454
4519,1371.367
4520,1368.631
4521,1366.477
4522,1365.056
4523,1364.400
4524,1364.407
4525,1364.874
4526,1365.606
4527,1366.422
4528,1367.223
4529,1367.990
4530,1368.739
4531,1369.415
4532,1369.903
4533,1370.182
4534,1370.335
4535,1370.398
4536,1370.339
4537,1370.189
4538,1370.018
4539,1369.868
4540,1369.743
4541,1369.649
4542,1369.572
4543,1369.523
4544,1369.527
4545,1369.568
4546,1369.589
4547,1369.558
4548,1369.450
4549,1369.265
4550,1369.035
4551,1368.837
4552,1368.830
4553,1369.199
4554,1369.997
4555,1371.074
4556,1372.210
4557,1373.217
4558,1373.952
4559,1374.360
4560,1374.458
4561,1374.329
4562,1374.140
4563,1374.067
4564,1374.196
4565,1374.573
4566,1375.158
4567,1375.785
4568,1376.197
4569,1376.249
4570,1375.991
4571,1375.527
4572,1374.956
4573,1374.377
4574,1373.890
4575,1373.517
4576,1373.294
4577,1373.290
4578,1373.562
4579,1374.064
4580,1374.695
4581,1375.392
4582,1376.099
4583,1376.716
4584,1377.186
4585,1377.531
4586,1377.796
4587,1377.984
4588,1378.145
4589,1378.368
4590,1378.625
4591,1378.723
4592,1378.441
4593,1377.758
4594,1376.897
4595,1376.169
4596,1375.764
4597,1375.684
4598,1375.845
4599,1376.270
4600,1377.144
4601,1378.653
4602,1380.779
4603,1383.302
4604,1385.870
4605,1388.069
4606,1389.582
4607,1390.334
4608,1390.491
4609,1390.247
4610,1389.711
4611,1389.010
4612,1388.362
4613,1387.954
4614,1387.818
4615,1387.857
4616,1387.972
4617,1388.177
4618,1388.561
4619,1389.191
4620,1390.101
4621,1391.310
4622,1392.739
4623,1394.087
4624,1395.032
4625,1395.408
4626,1395.185
4627,1394.279
4628,1392.603
4629,1390.275
4630,1387.661
4631,1385.222
4632,1383.333
4633,1382.208
4634,1381.932
4635,1382.518
4636,1383.926
4637,1386.072
4638,1388.811
4639,1391.941
4640,1395.203
4641,1398.262
4642,1400.827
4643,1402.778
4644,1404.152
4645,1404.998
4646,1405.378
4647,1405.357
4648,1405.068
4649,1404.730
4650,1404.549
4651,1404.625
4652,1404.939
4653,1405.423
4654,1406.068
4655,1406.995
4656,1408.379
4657,1410.253
4658,1412.417
4659,1414.477
4660,1416.021
4661,1416.854
4662,1417.080
4663,1416.948
4664,1416.669
4665,1416.286
4666,1415.738
4667,1415.021
4668,1414.243
4669,1413.473
4670,1412.647
4671,1411.717
4672,1410.762
4673,1409.915
4674,1409.225
4675,1408.692
4676,1408.417
4677,1408.570
4678,1409.208
4679,1410.194
4680,1411.250
4681,1412.038
4682,1412.299
4683,1411.978
4684,1411.208
4685,1410.166
4686,1408.954
4687,1407.584
4688,1406.100
4689,1404.598
4690,1403.211
4691,1402.005
4692,1400.959
4693,1400.001
4694,1399.064
4695,1398.133
4696,1397.269
4697,1396.516
4698,1395.879
4699,1395.359
4700,1394.962
4701,1394.701
4702,1394.631
4703,1394.802
4704,1395.182
4705,1395.635
4706,1395.987
4707,1396.081
4708,1395.844
4709,1395.325
4710,1394.725
4711,1394.310
4712,1394.241
4713,1394.492
4714,1394.885
4715,1395.227
4716,1395.440
4717,1395.537
4718,1395.520
4719,1395.387
4720,1395.192
4721,1394.993
4722,1394.830
4723,1394.732
4724,1394.666
4725,1394.530
4726,1394.269
4727,1393.924
4728,1393.579
4729,1393.293
4730,1393.087
4731,1392.976
4732,1392.962
4733,1393.045
4734,1393.227
4735,1393.457
4736,1393.666
4737,1393.781
4738,1393.708
4739,1393.331
4740,1392.558
4741,1391.345
4742,1389.756
4743,1387.916
4744,1386.020
4745,1384.288
4746,1382.870
4747,1381.831
4748,1381.208
4749,1380.999
4750,1381.194
4751,1381.817
4752,1382.804
4753,1383.915
4754,1384.828
4755,1385.267
4756,1385.034
4757,1384.152
4758,1382.901
4759,1381.591
4760,1380.403
4761,1379.420
4762,1378.768
4763,1378.542
4764,1378.709
4765,1379.166
4766,1379.754
4767,1380.319
4768,1380.723
4769,1380.894
4770,1380.814
4771,1380.493
4772,1379.946
4773,1379.214
4774,1378.378
4775,1377.594
4776,1377.061
4777,1376.880
4778,1376.981
4779,1377.172
4780,1377.287
4781,1377.273
4782,1377.242
4783,1377.336
4784,1377.636
4785,1378.120
4786,1378.681
4787,1379.169
4788,1379.430
4789,1379.357
4790,1378.963
4791,1378.343
4792,1377.608
4793,1376.845
4794,1376.137
4795,1375.566
4796,1375.294
4797,1375.517
4798,1376.312
4799,1377.507
4800,1378.719
4801,1379.535
4802,1379.789
4803,1379.667
4804,1379.514
4805,1379.643
4806,1380.256
4807,1381.420
4808,1383.023
4809,1384.759
4810,1386.205
4811,1387.010
4812,1386.954
4813,1385.978
4814,1384.205
4815,1381.922
4816,1379.458
4817,1377.162
4818,1375.367
4819,1374.315
4820,1374.130
4821,1374.785
4822,1376.162
4823,1378.050
4824,1380.183
4825,1382.274
4826,1384.072
4827,1385.428
4828,1386.264
4829,1386.525
4830,1386.219
4831,1385.487
4832,1384.511
4833,1383.344
4834,1381.912
4835,1380.225
4836,1378.503
4837,1377.078
4838,1376.259
4839,1376.190
4840,1376.838
4841,1377.981
4842,1379.298
4843,1380.504
4844,1381.472
4845,1382.201
4846,1382.682
4847,1382.884
4848,1382.772
4849,1382.358
4850,1381.706
4851,1380.957
4852,1380.242
4853,1379.681
4854,1379.347
4855,1379.214
4856,1379.148
4857,1378.967
4858,1378.528
4859,1377.820
4860,1376.984
4861,1376.113
4862,1375.179
4863,1374.210
4864,1373.332
4865,1372.646
4866,1372.140
4867,1371.781
4868,1371.509
4869,1371.199
4870,1370.785
4871,1370.314
4872,1369.861
4873,1369.495
4874,1369.373
4875,1369.614
4876,1370.182
4877,1370.952
4878,1371.921
4879,1373.200
4880,1374.757
4881,1376.263
4882,1377.225
4883,1377.242
4884,1376.179
4885,1374.161
4886,1371.489
4887,1368.495
4888,1365.481
4889,1362.731
4890,1360.518
4891,1359.086
4892,1358.543
4893,1358.825
4894,1359.717
4895,1360.815
4896,1361.630
4897,1361.717
4898,1360.856
4899,1359.100
4900,1356.765
4901,1354.322
4902,1352.242
4903,1350.869
4904,1350.461
4905,1351.169
4906,1352.991
4907,1355.727
4908,1358.975
4909,1362.233
4910,1365.094
4911,1367.411
4912,1369.213
4913,1370.468
4914,1370.969
4915,1370.513
4916,1369.143
4917,1367.213
4918,1365.223
4919,1363.602
4920,1362.508
4921,1361.867
4922,1361.560
4923,1361.581
4924,1361.926
4925,1362.459
4926,1363.010
4927,1363.554
4928,1364.223
4929,1365.108
4930,1366.066
4931,1366.795
4932,1367.056
4933,1366.920
4934,1366.707
4935,1366.777
4936,1367.321
4937,1368.269
4938,1369.377
4939,1370.408
4940,1371.217
4941,1371.722
4942,1371.903
4943,1371.802
4944,1371.429
4945,1370.732
4946,1369.687
4947,1368.418
4948,1367.059
4949,1365.652
4950,1364.254
4951,1363.080
4952,1362.383
4953,1362.320
4954,1362.895
4955,1364.007
4956,1365.491
4957,1367.209
4958,1369.081
4959,1371.070
4960,1373.210
4961,1375.656
4962,1378.573
4963,1381.957
4964,1385.557
4965,1388.888
4966,1391.401
4967,1392.704
4968,1392.704
4969,1391.610
4970,1389.864
4971,1388.017
4972,1386.539
4973,1385.644
4974,1385.271
4975,1385.247
4976,1385.529
4977,1386.184
4978,1387.222
4979,1388.505
4980,1389.864
4981,1391.199
4982,1392.470
4983,1393.711
4984,1394.980
4985,1396.300
4986,1397.516
4987,1398.314
4988,1398.409
4989,1397.733
4990,1396.527
4991,1395.258
4992,1394.391
4993,1394.126
4994,1394.342
4995,1394.701
4996,1394.791
4997,1394.303
4998,1393.157
4999,1391.631
5000,1390.237
5001,1389.477
5002,1389.634
5003,1390.752
5004,1392.606
5005,1394.718
5006,1396.506
5007,1397.558
5008,1397.837
5009,1397.635
5010,1397.360
5011,1397.283
5012,1397.471
5013,1397.757
5014,1397.896
5015,1397.764
5016,1397.374
5017,1396.816
5018,1396.248
5019,1395.823
5020,1395.565
5021,1395.408
5022,1395.373
5023,1395.614
5024,1396.290
5025,1397.401
5026,1398.740
5027,1399.970
5028,1400.792
5029,1401.123
5030,1401.095
5031,1400.911
5032,1400.649
5033,1400.203
5034,1399.367
5035,1398.081
5036,1396.502
5037,1394.934
5038,1393.673
5039,1392.871
5040,1392.544
5041,1392.641
5042,1393.195
5043,1394.269
5044,1395.819
5045,1397.638
5046,1399.356
5047,1400.597
5048,1401.182
5049,1401.273
5050,1401.200
5051,1401.231
5052,1401.412
5053,1401.677
5054,1401.977
5055,1402.339
5056,1402.796
5057,1403.319
5058,1403.789
5059,1404.050
5060,1403.925
5061,1403.347
5062,1402.406
5063,1401.270
5064,1400.092
5065,1398.970
5066,1397.956
5067,1397.119
5068,1396.506
5069,1396.109
5070,1395.889
5071,1395.833
5072,1395.920
5073,1396.130
5074,1396.391
5075,1396.596
5076,1396.656
5077,1396.534
5078,1396.241
5079,1395.785
5080,1395.213
5081,1394.547
5082,1393.760
5083,1392.805
5084,1391.686
5085,1390.425
5086,1389.010
5087,1387.442
5088,1385.818
5089,1384.428
5090,1383.584
5091,1383.441
5092,1383.926
5093,1384.863
5094,1386.139
5095,1387.641
5096,1389.240
5097,1390.840
5098,1392.450
5099,1394.098
5100,1395.798
5101,1397.499
5102,1399.032
5103,1400.158
5104,1400.712
5105,1400.722
5106,1400.329
5107,1399.625
5108,1398.621
5109,1397.311
5110,1395.725
5111,1393.903
5112,1391.882
5113,1389.773
5114,1387.783
5115,1386.072
5116,1384.699
5117,1383.668
5118,1383.051
5119,1383.051
5120,1383.891
5121,1385.720
5122,1388.561
5123,1392.254
5124,1396.436
5125,1400.548
5126,1403.967
5127,1406.169
5128,1406.849
5129,1405.932
5130,1403.587
5131,1400.182
5132,1396.133
5133,1391.843
5134,1387.703
5135,1384.100
5136,1381.298
5137,1379.416
5138,1378.472
5139,1378.455
5140,1379.357
5141,1381.131
5142,1383.612
5143,1386.522
5144,1389.508
5145,1392.157
5146,1394.087
5147,1395.126
5148,1395.380
5149,1395.129
5150,1394.558
5151,1393.697
5152,1392.561
5153,1391.240
5154,1389.878
5155,1388.623
5156,1387.574
5157,1386.776
5158,1386.229
5159,1385.940
5160,1385.950
5161,1386.254
5162,1386.738
5163,1387.240
5164,1387.578
5165,1387.592
5166,1387.215
5167,1386.484
5168,1385.445
5169,1384.117
5170,1382.525
5171,1380.737
5172,1378.873
5173,1377.110
5174,1375.663
5175,1374.719
5176,1374.325
5177,1374.374
5178,1374.681
5179,1375.134
5180,1375.733
5181,1376.458
5182,1377.183
5183,1377.796
5184,1378.266
5185,1378.563
5186,1378.608
5187,1378.357
5188,1377.876
5189,1377.343
5190,1376.911
5191,1376.653
5192,1376.684
5193,1377.092
5194,1377.820
5195,1378.709
5196,1379.667
5197,1380.692
5198,1381.713
5199,1382.535
5200,1382.999
5201,1383.069
5202,1382.734
5203,1381.891
5204,1380.497
5205,1378.692
5206,1376.768
5207,1374.984
5208,1373.552
5209,1372.757
5210,1372.910
5211,1374.130
5212,1376.210
5213,1378.678
5214,1380.995
5215,1382.772
5216,1383.853
5217,1384.260
5218,1384.069
5219,1383.295
5220,1382.027
5221,1380.486
5222,1378.974
5223,1377.688
5224,1376.608
5225,1375.527
5226,1374.221
5227,1372.579
5228,1370.649
5229,1368.495
5230,1366.125
5231,1363.557
5232,1360.982
5233,1358.703
5234,1356.964
5235,1355.859
5236,1355.347
5237,1355.284
5238,1355.500
5239,1355.842
5240,1356.128
5241,1356.222
5242,1356.180
5243,1356.246
5244,1356.643
5245,1357.372
5246,1358.184
5247,1358.717
5248,1358.682
5249,1358.016
5250,1356.859
5251,1355.469
5252,1354.124
5253,1353.057
5254,1352.354
5255,1351.995
5256,1351.988
5257,1352.343
5258,1353.085
5259,1354.253
5260,1355.835
5261,1357.664
5262,1359.431
5263,1360.832
5264,1361.756
5265,1362.303
5266,1362.665
5267,1362.909
5268,1362.958
5269,1362.818
5270,1362.616
5271,1362.494
5272,1362.515
5273,1362.707
5274,1363.097
5275,1363.686
5276,1364.414
5277,1365.216
5278,1366.073
5279,1366.944
5280,1367.735
5281,1368.331
5282,1368.648
5283,1368.701
5284,1368.607
5285,1368.474
5286,1368.373
5287,1368.317
5288,1368.276
5289,1368.248
5290,1368.269
5291,1368.335
5292,1368.429
5293,1368.551
5294,1368.743
5295,1369.021
5296,1369.359
5297,1369.687
5298,1369.931
5299,1370.095
5300,1370.227
5301,1370.373
5302,1370.530
5303,1370.610
5304,1370.523
5305,1370.213
5306,1369.687
5307,1369.011
5308,1368.269
5309,1367.568
5310,1367.032
5311,1366.711
5312,1366.582
5313,1366.568
5314,1366.603
5315,1366.687
5316,1366.861
5317,1367.143
5318,1367.509
5319,1367.979
5320,1368.596
5321,1369.377
5322,1370.304
5323,1371.307
5324,1372.280
5325,1373.140
5326,1373.820
5327,1374.242
5328,1374.315
5329,1374.032
5330,1373.555
5331,1373.116
5332,1372.841
5333,1372.659
5334,1372.454
5335,1372.158
5336,1371.764
5337,1371.318
5338,1370.858
5339,1370.356
5340,1369.802
5341,1369.300
5342,1368.986
5343,1368.938
5344,1369.140
5345,1369.523
5346,1370.018
5347,1370.527
5348,1370.927
5349,1371.091
5350,1370.952
5351,1370.551
5352,1370.042
5353,1369.638
5354,1369.502
5355,1369.673
5356,1369.976
5357,1370.105
5358,1369.823
5359,1369.133
5360,1368.314
5361,1367.728
5362,1367.620
5363,1367.990
5364,1368.624
5365,1369.223
5366,1369.631
5367,1369.917
5368,1370.227
5369,1370.635
5370,1371.178
5371,1371.841
5372,1372.513
5373,1373.085
5374,1373.559
5375,1374.032
5376,1374.531
5377,1374.932
5378,1374.966
5379,1374.360
5380,1373.011
5381,1371.147
5382,1369.230
5383,1367.742
5384,1366.972
5385,1366.993
5386,1367.659
5387,1368.736
5388,1370.004
5389,1371.279
5390,1372.363
5391,1373.053
5392,1373.266
5393,1373.182
5394,1373.234
5395,1373.862
5396,1375.283
5397,1377.416
5398,1379.901
5399,1382.257
5400,1384.100
5401,1385.152
5402,1385.170
5403,1383.995
5404,1381.783
5405,1379.005
5406,1376.305
5407,1374.214
5408,1373.025
5409,1372.792
5410,1373.342
5411,1374.318
5412,1375.287
5413,1375.900
5414,1375.949
5415,1375.336
5416,1374.130
5417,1372.663
5418,1371.426
5419,1370.844
5420,1371.175
5421,1372.471
5422,1374.625
5423,1377.350
5424,1380.281
5425,1383.058
5426,1385.386
5427,1387.080
5428,1388.121
5429,1388.721
5430,1389.184
5431,1389.763
5432,1390.571
5433,1391.721
5434,1393.429
5435,1395.875
5436,1399.011
5437,1402.465
5438,1405.699
5439,1408.232
5440,1409.786
5441,1410.309
5442,1409.929
5443,1408.832
5444,1407.208
5445,1405.305
5446,1403.493
5447,1402.165
5448,1401.569
5449,1401.670
5450,1402.158
5451,1402.636
5452,1402.838
5453,1402.674
5454,1402.165
5455,1401.444
5456,1400.698
5457,1400.137
5458,1399.914
5459,1400.085
5460,1400.632
5461,1401.489
5462,1402.475
5463,1403.252
5464,1403.416
5465,1402.625
5466,1400.750
5467,1397.980
5468,1394.788
5469,1391.746
5470,1389.331
5471,1387.843
5472,1387.428
5473,1388.087
5474,1389.693
5475,1391.958
5476,1394.457
5477,1396.673
5478,1398.140
5479,1398.663
5480,1398.405
5481,1397.753
5482,1397.070
5483,1396.558
5484,1396.217
5485,1395.966
5486,1395.812
5487,1395.851
5488,1396.084
5489,1396.304
5490,1396.203
5491,1395.513
5492,1394.147
5493,1392.335
5494,1390.526
5495,1389.160
5496,1388.414
5497,1388.205
5498,1388.257
5499,1388.289
5500,1388.128
5501,1387.850
5502,1387.689
5503,1387.825
5504,1388.261
5505,1388.864
5506,1389.487
5507,1390.017
5508,1390.327
5509,1390.282
5510,1389.874
5511,1389.264
5512,1388.595
5513,1387.888
5514,1387.139
5515,1386.390
5516,1385.706
5517,1385.104
5518,1384.557
5519,1384.034
5520,1383.553
5521,1383.166
5522,1382.884
5523,1382.703
5524,1382.668
5525,1382.783
5526,1382.894
5527,1382.835
5528,1382.518
5529,1381.932
5530,1381.204
5531,1380.587
5532,1380.270
5533,1380.260
5534,1380.465
5535,1380.856
5536,1381.403
5537,1381.953
5538,1382.326
5539,1382.480
5540,1382.511
5541,1382.490
5542,1382.385
5543,1382.114
5544,1381.640
5545,1381.019
5546,1380.336
5547,1379.678
5548,1379.159
5549,1378.824
5550,1378.573
5551,1378.315
5552,1378.092
5553,1378.019
5554,1378.082
5555,1378.106
5556,1377.887
5557,1377.388
5558,1376.730
5559,1376.033
5560,1375.392
5561,1374.932
5562,1374.757
5563,1374.834
5564,1374.980
5565,1374.970
5566,1374.611
5567,1373.879
5568,1372.907
5569,1371.945
5570,1371.255
5571,1371.060
5572,1371.447
5573,1372.294
5574,1373.367
5575,1374.510
5576,1375.642
5577,1376.646
5578,1377.350
5579,1377.590
5580,1377.315
5581,1376.622
5582,1375.656
5583,1374.510
5584,1373.266
5585,1372.074
5586,1371.095
5587,1370.408
5588,1370.001
5589,1369.823
5590,1369.844
5591,1370.105
5592,1370.739
5593,1371.820
5594,1373.193
5595,1374.576
5596,1375.712
5597,1376.562
5598,1377.305
5599,1378.134
5600,1379.030
5601,1379.741
5602,1380.002
5603,1379.734
5604,1378.988
5605,1377.848
5606,1376.517
5607,1375.332
5608,1374.552
5609,1374.147
5610,1373.876
5611,1373.524
5612,1372.990
5613,1372.245
5614,1371.286
5615,1370.199
5616,1369.126
5617,1368.265
5618,1367.749
5619,1367.526
5620,1367.446
5621,1367.376
5622,1367.223
5623,1366.910
5624,1366.474
5625,1366.094
5626,1365.941
5627,1366.115
5628,1366.638
5629,1367.411
5630,1368.206
5631,1368.851
5632,1369.297
5633,1369.575
5634,1369.795
5635,1370.126
5636,1370.666
5637,1371.387
5638,1372.182
5639,1372.900
5640,1373.367
5641,1373.450
5642,1373.147
5643,1372.531
5644,1371.698
5645,1370.725
5646,1369.704
5647,1368.659
5648,1367.561
5649,1366.401
5650,1365.233
5651,1364.139
5652,1363.209
5653,1362.494
5654,1362.024
5655,1361.766
5656,1361.693
5657,1361.749
5658,1361.839
5659,1361.884
5660,1361.871
5661,1361.846
5662,1361.864
5663,1361.951
5664,1362.034
5665,1362.027
5666,1361.919
5667,1361.773
5668,1361.654
5669,1361.581
5670,1361.491
5671,1361.268
5672,1360.884
5673,1360.435
5674,1360.090
5675,1360.044
5676,1360.414
5677,1361.146
5678,1362.094
5679,1363.136
5680,1364.164
5681,1365.059
5682,1365.707
5683,1366.077
5684,1366.230
5685,1366.247
5686,1366.185
5687,1366.003
5688,1365.617
5689,1364.975
5690,1364.104
5691,1363.052
5692,1361.912
5693,1360.811
5694,1359.905
5695,1359.351
5696,1359.187
5697,1359.313
5698,1359.595
5699,1360.006
5700,1360.585
5701,1361.414
5702,1362.522
5703,1363.850
5704,1365.244
5705,1366.551
5706,1367.704
5707,1368.725
5708,1369.593
5709,1370.244
5710,1370.621
5711,1370.656
5712,1370.346
5713,1369.844
5714,1369.314
5715,1368.809
5716,1368.331
5717,1367.910
5718,1367.526
5719,1367.108
5720,1366.687
5721,1366.380
5722,1366.206
5723,1366.066
5724,1365.868
5725,1365.690
5726,1365.665
5727,1365.843
5728,1366.153
5729,1366.547
5730,1366.997
5731,1367.397
5732,1367.586
5733,1367.464
5734,1367.014
5735,1366.251
5736,1365.136
5737,1363.676
5738,1362.024
5739,1360.421
5740,1359.048
5741,1357.950
5742,1357.117
5743,1356.539
5744,1356.239
5745,1356.281
5746,1356.741
5747,1357.706
5748,1359.243
5749,1361.327
5750,1363.784
5751,1366.240
5752,1368.262
5753,1369.551
5754,1370.116
5755,1370.224
5756,1370.199
5757,1370.248
5758,1370.464
5759,1370.921
5760,1371.659
5761,1372.611
5762,1373.646
5763,1374.702
5764,1375.841
5765,1377.200
5766,1378.859
5767,1380.762
5768,1382.821
5769,1385.034
5770,1387.435
5771,1389.965
5772,1392.446
5773,1394.628
5774,1396.251
5775,1397.081
5776,1397.008
5777,1396.119
5778,1394.669
5779,1392.941
5780,1391.115
5781,1389.296
5782,1387.665
5783,1386.396
5784,1385.550
5785,1385.097
5786,1385.058
5787,1385.508
5788,1386.532
5789,1388.160
5790,1390.244
5791,1392.401
5792,1394.140
5793,1395.119
5794,1395.304
5795,1394.941
5796,1394.401
5797,1394.046
5798,1394.056
5799,1394.314
5800,1394.533
5801,1394.558
5802,1394.492
5803,1394.502
5804,1394.565
5805,1394.418
5806,1393.816
5807,1392.634
5808,1390.888
5809,1388.714
5810,1386.376
5811,1384.253
5812,1382.713
5813,1381.957
5814,1381.946
5815,1382.427
5816,1382.978
5817,1383.135
5818,1382.553
5819,1381.197
5820,1379.378
5821,1377.517
5822,1375.946
5823,1374.865
5824,1374.343
5825,1374.395
5826,1375.001
5827,1376.130
5828,1377.719
5829,1379.650
5830,1381.709
5831,1383.598
5832,1385.132
5833,1386.316
5834,1387.247
5835,1387.878
5836,1388.013
5837,1387.498
5838,1386.417
5839,1385.149
5840,1384.156
5841,1383.759
5842,1383.995
5843,1384.675
5844,1385.529
5845,1386.379
5846,1387.205
5847,1388.003
5848,1388.644
5849,1388.930
5850,1388.759
5851,1388.250
5852,1387.637
5853,1387.080
5854,1386.571
5855,1386.048
5856,1385.536
5857,1385.138
5858,1384.947
5859,1384.898
5860,1384.891
5861,1384.915
5862,1384.996
5863,1385.079
5864,1385.069
5865,1384.933
5866,1384.762
5867,1384.720
5868,1384.902
5869,1385.274
5870,1385.696
5871,1386.010
5872,1386.083
5873,1385.828
5874,1385.281
5875,1384.581
5876,1383.825
5877,1383.027
5878,1382.201
5879,1381.361
5880,1380.539
5881,1379.838
5882,1379.378
5883,1379.179
5884,1379.197
5885,1379.427
5886,1379.904
5887,1380.532
5888,1381.009
5889,1381.037
5890,1380.465
5891,1379.319
5892,1377.716
5893,1375.862
5894,1374.074
5895,1372.736
5896,1372.168
5897,1372.499
5898,1373.614
5899,1375.113
5900,1376.458
5901,1377.231
5902,1377.266
5903,1376.656
5904,1375.702
5905,1374.803
5906,1374.311
5907,1374.395
5908,1374.970
5909,1375.865
5910,1376.988
5911,1378.294
5912,1379.643
5913,1380.782
5914,1381.476
5915,1381.584
5916,1381.155
5917,1380.462
5918,1379.824
5919,1379.368
5920,1379.061
5921,1378.894
5922,1378.936
5923,1379.253
5924,1379.863
5925,1380.758
5926,1381.901
5927,1383.211
5928,1384.577
5929,1385.916
5930,1387.170
5931,1388.303
5932,1389.258
5933,1389.972
5934,1390.352
5935,1390.366
5936,1390.083
5937,1389.609
5938,1389.021
5939,1388.299
5940,1387.397
5941,1386.292
5942,1384.975
5943,1383.455
5944,1381.807
5945,1380.201
5946,1378.817
5947,1377.754
5948,1376.998
5949,1376.430
5950,1375.911
5951,1375.336
5952,1374.670
5953,1373.938
5954,1373.168
5955,1372.346
5956,1371.412
5957,1370.314
5958,1369.094
5959,1367.885
5960,1366.885
5961,1366.251
5962,1366.098
5963,1366.533
5964,1367.600
5965,1369.161
5966,1370.886
5967,1372.391
5968,1373.398
5969,1373.789
5970,1373.593
5971,1372.990
5972,1372.168
5973,1371.252
5974,1370.300
5975,1369.363
5976,1368.485
5977,1367.697
5978,1367.066
5979,1366.596
5980,1366.143
5981,1365.578
5982,1364.927
5983,1364.359
5984,1364.007
5985,1363.885
5986,1363.927
5987,1364.028
5988,1364.104
5989,1364.132
5990,1364.083
5991,1363.867
5992,1363.376
5993,1362.529
5994,1361.285
5995,1359.546
5996,1357.180
5997,1354.246
5998,1351.082
5999,1348.172
6000,1345.928
6001,1344.638
6002,1344.447
6003,1345.415
6004,1347.489
6005,1350.496
6006,1354.075
6007,1357.668
6008,1360.623
6009,1362.421
6010,1362.804
6011,1361.693
6012,1359.173
6013,1355.549
6014,1351.350
6015,1347.151
6016,1343.412
6017,1340.439
6018,1338.421
6019,1337.442
6020,1337.480
6021,1338.439
6022,1340.150
6023,1342.391
6024,1344.910
6025,1347.496
6026,1349.925
6027,1351.935
6028,1353.333
6029,1354.138
6030,1354.573
6031,1354.890
6032,1355.194
6033,1355.448
6034,1355.556
6035,1355.452
6036,1355.159
6037,1354.800
6038,1354.511
6039,1354.364
6040,1354.375
6041,1354.573
6042,1355.009
6043,1355.716
6044,1356.675
6045,1357.835
6046,1359.173
6047,1360.647
6048,1362.132
6049,1363.414
6050,1364.425
6051,1365.286
6052,1366.174
6053,1367.181
6054,1368.401
6055,1369.847
6056,1371.356
6057,1372.639
6058,1373.430
6059,1373.579
6060,1373.018
6061,1371.802
6062,1370.154
6063,1368.384
6064,1366.749
6065,1365.320
6066,1364.087
6067,1363.097
6068,1362.432
6069,1362.087
6070,1361.996
6071,1362.111
6072,1362.372
6073,1362.735
6074,1363.191
6075,1363.717
6076,1364.216
6077,1364.610
6078,1364.864
6079,1364.986
6080,1364.996
6081,1364.930
6082,1364.798
6083,1364.550
6084,1364.167
6085,1363.724
6086,1363.310
6087,1362.944
6088,1362.574
6089,1362.118
6090,1361.526
6091,1360.891
6092,1360.421
6093,1360.299
6094,1360.564
6095,1361.156
6096,1361.989
6097,1363.048
6098,1364.411
6099,1366.125
6100,1368.077
6101,1369.952
6102,1371.384
6103,1372.147
6104,1372.290
6105,1372.011
6106,1371.496
6107,1370.875
6108,1370.276
6109,1369.840
6110,1369.680
6111,1369.802
6112,1370.147
6113,1370.708
6114,1371.461
6115,1372.248
6116,1372.767
6117,1372.823
6118,1372.496
6119,1372.039
6120,1371.684
6121,1371.586
6122,1371.834
6123,1372.370
6124,1372.987
6125,1373.524
6126,1373.938
6127,1374.200
6128,1374.290
6129,1374.245
6130,1374.022
6131,1373.492
6132,1372.659
6133,1371.715
6134,1370.907
6135,1370.422
6136,1370.366
6137,1370.746
6138,1371.450
6139,1372.304
6140,1373.193
6141,1374.088
6142,1374.963
6143,1375.764
6144,1376.444
6145,1376.977
6146,1377.353
6147,1377.570
6148,1377.601
6149,1377.406
6150,1376.981
6151,1376.371
6152,1375.670
6153,1375.050
6154,1374.757
6155,1374.980
6156,1375.723
6157,1376.831
6158,1378.110
6159,1379.403
6160,1380.605
6161,1381.612
6162,1382.267
6163,1382.511
6164,1382.507
6165,1382.584
6166,1382.950
6167,1383.570
6168,1384.246
6169,1384.818
6170,1385.274
6171,1385.686
6172,1386.076
6173,1386.396
6174,1386.626
6175,1386.738
6176,1386.675
6177,1386.400
6178,1385.954
6179,1385.459
6180,1385.076
6181,1384.936
6182,1385.017
6183,1385.149
6184,1385.177
6185,1385.107
6186,1385.083
6187,1385.250
6188,1385.710
6189,1386.491
6190,1387.560
6191,1388.885
6192,1390.407
6193,1392.035
6194,1393.704
6195,1395.415
6196,1397.133
6197,1398.705
6198,1399.942
6199,1400.789
6200,1401.273
6201,1401.378
6202,1400.977
6203,1399.959
6204,1398.342
6205,1396.290
6206,1394.014
6207,1391.686
6208,1389.428
6209,1387.323
6210,1385.497
6211,1384.103
6212,1383.305
6213,1383.222
6214,1383.863
6215,1385.090
6216,1386.599
6217,1387.993
6218,1388.923
6219,1389.149
6220,1388.581
6221,1387.383
6222,1385.950
6223,1384.734
6224,1384.090
6225,1384.218
6226,1385.159
6227,1386.769
6228,1388.759
6229,1390.857
6230,1392.944
6231,1395.007
6232,1397.025
6233,1398.956
6234,1400.757
6235,1402.402
6236,1403.859
6237,1405.096
6238,1406.079
6239,1406.817
6240,1407.333
6241,1407.682
6242,1407.978
6243,1408.344
6244,1408.828
6245,1409.421
6246,1410.076
6247,1410.720
6248,1411.264
6249,1411.696
6250,1412.069
6251,1412.390
6252,1412.613
6253,1412.748
6254,1412.863
6255,1412.881
6256,1412.571
6257,1411.811
6258,1410.755
6259,1409.720
6260,1408.978
6261,1408.650
6262,1408.744
6263,1409.215
6264,1410.069
6265,1411.365
6266,1413.066
6267,1414.996
6268,1417.024
6269,1419.087
6270,1421.053
6271,1422.663
6272,1423.670
6273,1423.886
6274,1423.192
6275,1421.527
6276,1418.913
6277,1415.491
6278,1411.550
6279,1407.500
6280,1403.754
6281,1400.594
6282,1398.151
6283,1396.433
6284,1395.349
6285,1394.767
6286,1394.558
6287,1394.631
6288,1394.938
6289,1395.394
6290,1395.879
6291,1396.293
6292,1396.663
6293,1397.105
6294,1397.635
6295,1398.140
6296,1398.524
6297,1398.754
6298,1398.774
6299,1398.503
6300,1397.848
6301,1396.771
6302,1395.349
6303,1393.788
6304,1392.349
6305,1391.226
6306,1390.509
6307,1390.212
6308,1390.244
6309,1390.425
6310,1390.599
6311,1390.711
6312,1390.718
6313,1390.519
6314,1390.017
6315,1389.202
6316,1388.202
6317,1387.247
6318,1386.543
6319,1386.180
6320,1386.128
6321,1386.323
6322,1386.745
6323,1387.431
6324,1388.432
6325,1389.700
6326,1390.948
6327,1391.728
6328,1391.711
6329,1390.871
6330,1389.439
6331,1387.742
6332,1386.017
6333,1384.337
6334,1382.727
6335,1381.295
6336,1380.242
6337,1379.741
6338,1379.786
6339,1380.159
6340,1380.532
6341,1380.580
6342,1380.047
6343,1378.915
6344,1377.461
6345,1376.116
6346,1375.231
6347,1374.952
6348,1375.196
6349,1375.660
6350,1375.935
6351,1375.782
6352,1375.290
6353,1374.782
6354,1374.642
6355,1375.141
6356,1376.367
6357,1378.246
6358,1380.514
6359,1382.744
6360,1384.410
6361,1385.027
6362,1384.250
6363,1381.957
6364,1378.270
6365,1373.569
6366,1368.436
6367,1363.515
6368,1359.292
6369,1356.013
6370,1353.723
6371,1352.336
6372,1351.702
6373,1351.608
6374,1351.799
6375,1352.127
6376,1352.629
6377,1353.451
6378,1354.664
6379,1356.176
6380,1357.776
6381,1359.240
6382,1360.421
6383,1361.250
6384,1361.780
6385,1362.160
6386,1362.581
6387,1363.080
6388,1363.456
6389,1363.449
6390,1363.000
6391,1362.243
6392,1361.351
6393,1360.400
6394,1359.473
6395,1358.745
6396,1358.448
6397,1358.710
6398,1359.424
6399,1360.372
6400,1361.393
6401,1362.470
6402,1363.630
6403,1364.794
6404,1365.801
6405,1366.544
6406,1367.042
6407,1367.300
6408,1367.258
6409,1366.892
6410,1366.192
6411,1365.056
6412,1363.393
6413,1361.271
6414,1358.961
6415,1356.818
6416,1355.169
6417,1354.225
6418,1354.016
6419,1354.389
6420,1355.082
6421,1355.953
6422,1357.030
6423,1358.389
6424,1359.957
6425,1361.463
6426,1362.620
6427,1363.310
6428,1363.568
6429,1363.449
6430,1363.000
6431,1362.310
6432,1361.560
6433,1361.010
6434,1360.888
6435,1361.219
6436,1361.766
6437,1362.118
6438,1361.857
6439,1360.773
6440,1358.961
6441,1356.772
6442,1354.654
6443,1353.019
6444,1352.165
6445,1352.246
6446,1353.253
6447,1355.037
6448,1357.274
6449,1359.550
6450,1361.466
6451,1362.801
6452,1363.491
6453,1363.533
6454,1363.003
6455,1362.034
6456,1360.728
6457,1359.177
6458,1357.504
6459,1355.824
6460,1354.204
6461,1352.699
6462,1351.399
6463,1350.475
6464,1350.134
6465,1350.437
6466,1351.256
6467,1352.361
6468,1353.591
6469,1354.877
6470,1356.128
6471,1357.218
6472,1358.114
6473,1358.877
6474,1359.438
6475,1359.522
6476,1358.842
6477,1357.323
6478,1355.204
6479,1352.946
6480,1351.054
6481,1349.893
6482,1349.642
6483,1350.311
6484,1351.803
6485,1353.943
6486,1356.459
6487,1358.961
6488,1361.027
6489,1362.435
6490,1363.254
6491,1363.665
6492,1363.808
6493,1363.791
6494,1363.679
6495,1363.484
6496,1363.156
6497,1362.609
6498,1361.773
6499,1360.661
6500,1359.334
6501,1357.877
6502,1356.507
6503,1355.497
6504,1355.037
6505,1355.201
6506,1356.002
6507,1357.413
6508,1359.274
6509,1361.282
6510,1363.156
6511,1364.735
6512,1365.965
6513,1366.868
6514,1367.579
6515,1368.244
6516,1368.823
6517,1369.164
6518,1369.206
6519,1369.004
6520,1368.572
6521,1367.823
6522,1366.763
6523,1365.592
6524,1364.540
6525,1363.644
6526,1362.787
6527,1361.843
6528,1360.815
6529,1359.811
6530,1359.003
6531,1358.553
6532,1358.626
6533,1359.240
6534,1360.156
6535,1361.062
6536,1361.790
6537,1362.376
6538,1362.906
6539,1363.449
6540,1364.062
6541,1364.787
6542,1365.617
6543,1366.453
6544,1367.153
6545,1367.610
6546,1367.735
6547,1367.498
6548,1366.958
6549,1366.279
6550,1365.669
6551,1365.223
6552,1364.892
6553,1364.568
6554,1364.170
6555,1363.721
6556,1363.268
6557,1362.888
6558,1362.655
6559,1362.606
6560,1362.662
6561,1362.696
6562,1362.641
6563,1362.442
6564,1362.128
6565,1361.797
6566,1361.494
6567,1361.139
6568,1360.630
6569,1359.982
6570,1359.414
6571,1359.187
6572,1359.501
6573,1360.414
6574,1361.867
6575,1363.658
6576,1365.491
6577,1367.098
6578,1368.425
6579,1369.656
6580,1371.053
6581,1372.712
6582,1374.527
6583,1376.277
6584,1377.813
6585,1379.099
6586,1380.204
6587,1381.232
6588,1382.257
6589,1383.312
6590,1384.320
6591,1385.065
6592,1385.320
6593,1384.999
6594,1384.232
6595,1383.414
6596,1383.100
6597,1383.720
6598,1385.379
6599,1387.780
6600,1390.313
6601,1392.279
6602,1393.164
6603,1392.798
6604,1391.345
6605,1389.191
6606,1386.689
6607,1384.037
6608,1381.347
6609,1378.852
6610,1376.866
6611,1375.639
6612,1375.287
6613,1375.789
6614,1376.988
6615,1378.611
6616,1380.336
6617,1381.828
6618,1382.825
6619,1383.177
6620,1382.842
6621,1381.852
6622,1380.403
6623,1378.834
6624,1377.535
6625,1376.848
6626,1376.977
6627,1377.995
6628,1379.838
6629,1382.295
6630,1385.013
6631,1387.578
6632,1389.662
6633,1391.122
6634,1391.913
6635,1392.091
6636,1391.836
6637,1391.362
6638,1390.728
6639,1389.874
6640,1388.693
6641,1387.153
6642,1385.382
6643,1383.619
6644,1382.027
6645,1380.692
6646,1379.643
6647,1378.810
6648,1378.075
6649,1377.416
6650,1376.939
6651,1376.643
6652,1376.350
6653,1375.862
6654,1375.186
6655,1374.590
6656,1374.374
6657,1374.614
6658,1375.081
6659,1375.437
6660,1375.454
6661,1375.102
6662,1374.454
6663,1373.632
6664,1372.767
6665,1371.956
6666,1371.248
6667,1370.666
6668,1370.217
6669,1369.913
6670,1369.697
6671,1369.446
6672,1369.077
6673,1368.628
6674,1368.154
6675,1367.690
6676,1367.293
6677,1366.986
6678,1366.756
6679,1366.631
6680,1366.746
6681,1367.234
6682,1368.126
6683,1369.286
6684,1370.544
6685,1371.771
6686,1372.813
6687,1373.492
6688,1373.754
6689,1373.635
6690,1373.154
6691,1372.332
6692,1371.269
6693,1370.067
6694,1368.711
6695,1367.143
6696,1365.428
6697,1363.825
6698,1362.623
6699,1362.024
6700,1362.125
6701,1362.968
6702,1364.529
6703,1366.711
6704,1369.293
6705,1371.942
6706,1374.315
6707,1376.207
6708,1377.615
6709,1378.695
6710,1379.556
6711,1380.148
6712,1380.309
6713,1379.943
6714,1379.110
6715,1377.956
6716,1376.632
6717,1375.238
6718,1373.924
6719,1372.862
6720,1372.133
6721,1371.729
6722,1371.614
6723,1371.715
6724,1371.903
6725,1372.057
6726,1372.116
6727,1372.081
6728,1371.980
6729,1371.841
6730,1371.739
6731,1371.764
6732,1371.900
6733,1372.046
6734,1372.119
6735,1372.186
6736,1372.402
6737,1372.879
6738,1373.611
6739,1374.531
6740,1375.552
6741,1376.538
6742,1377.413
6743,1378.284
6744,1379.361
6745,1380.741
6746,1382.281
6747,1383.759
6748,1385.104
6749,1386.414
6750,1387.797
6751,1389.261
6752,1390.725
6753,1392.115
6754,1393.373
6755,1394.422
6756,1395.210
6757,1395.718
6758,1395.966
6759,1396.018
6760,1396.008
6761,1396.015
6762,1396.032
6763,1396.028
6764,1396.028
6765,1396.056
6766,1396.112
6767,1396.206
6768,1396.513
6769,1397.279
6770,1398.593
6771,1400.249
6772,1401.831
6773,1402.946
6774,1403.392
6775,1403.165
6776,1402.388
6777,1401.263
6778,1399.991
6779,1398.729
6780,1397.656
6781,1396.973
6782,1396.788
6783,1397.070
6784,1397.708
6785,1398.527
6786,1399.332
6787,1399.949
6788,1400.193
6789,1399.858
6790,1398.764
6791,1396.816
6792,1394.018
6793,1390.463
6794,1386.355
6795,1382.027
6796,1377.897
6797,1374.311
6798,1371.394
6799,1369.053
6800,1367.042
6801,1365.185
6802,1363.467
6803,1361.944
6804,1360.647
6805,1359.588
6806,1358.724
6807,1357.985
6808,1357.295
6809,1356.577
6810,1355.748
6811,1354.720
6812,1353.291
6813,1351.204
6814,1348.381
6815,1345.070
6816,1341.746
6817,1338.878
6818,1336.780
6819,1335.550
6820,1335.146
6821,1335.473
6822,1336.393
6823,1337.669
6824,1338.993
6825,1340.091
6826,1340.815
6827,1341.073
6828,1340.829
6829,1340.132
6830,1339.059
6831,1337.714
6832,1336.282
6833,1335.055
6834,1334.424
6835,1334.707
6836,1335.965
6837,1337.965
6838,1340.324
6839,1342.596
6840,1344.387
6841,1345.405
6842,1345.530
6843,1344.837
6844,1343.575
6845,1342.094
6846,1340.725
6847,1339.641
6848,1338.867
6849,1338.425
6850,1338.341
6851,1338.589
6852,1339.014
6853,1339.376
6854,1339.484
6855,1339.348
6856,1339.185
6857,1339.306
6858,1339.983
6859,1341.335
6860,1343.234
6861,1345.304
6862,1347.092
6863,1348.315
6864,1349.005
6865,1349.513
6866,1350.350
6867,1351.883
6868,1354.155
6869,1356.915
6870,1359.766
6871,1362.254
6872,1363.961
6873,1364.627
6874,1364.184
6875,1362.791
6876,1360.822
6877,1358.818
6878,1357.285
6879,1356.497
6880,1356.448
6881,1356.859
6882,1357.309
6883,1357.410
6884,1356.967
6885,1355.929
6886,1354.385
6887,1352.584
6888,1350.813
6889,1349.329
6890,1348.367
6891,1348.200
6892,1349.060
6893,1350.977
6894,1353.699
6895,1356.762
6896,1359.623
6897,1361.811
6898,1363.055
6899,1363.251
6900,1362.446
6901,1360.849
6902,1358.835
6903,1356.804
6904,1355.026
6905,1353.643
6906,1352.786
6907,1352.563
6908,1352.949
6909,1353.793
6910,1354.964
6911,1356.372
6912,1357.860
6913,1359.243
6914,1360.435
6915,1361.466
6916,1362.372
6917,1363.167
6918,1363.864
6919,1364.481
6920,1365.014
6921,1365.453
6922,1365.826
6923,1366.174
6924,1366.530
6925,1366.955
6926,1367.509
6927,1368.181
6928,1368.896
6929,1369.663
6930,1370.645
6931,1371.952
6932,1373.461
6933,1374.841
6934,1375.775
6935,1376.172
6936,1376.210
6937,1376.137
6938,1376.061
6939,1375.911
6940,1375.594
6941,1375.186
6942,1374.872
6943,1374.750
6944,1374.761
6945,1374.813
6946,1374.872
6947,1374.890
6948,1374.841
6949,1374.806
6950,1374.973
6951,1375.538
6952,1376.496
6953,1377.597
6954,1378.402
6955,1378.580
6956,1378.131
6957,1377.402
6958,1376.866
6959,1376.838
6960,1377.416
6961,1378.458
6962,1379.619
6963,1380.507
6964,1380.974
6965,1381.215
6966,1381.549
6967,1382.197
6968,1383.243
6969,1384.675
6970,1386.407
6971,1388.278
6972,1390.101
6973,1391.718
6974,1393.091
6975,1394.276
6976,1395.331
6977,1396.304
6978,1397.178
6979,1397.945
6980,1398.583
6981,1399.071
6982,1399.374
6983,1399.468
6984,1399.377
6985,1399.182
6986,1399.008
6987,1398.977
6988,1399.130
6989,1399.388
6990,1399.646
6991,1399.834
6992,1399.977
6993,1400.127
6994,1400.311
6995,1400.569
6996,1400.935
6997,1401.402
6998,1401.918
6999,1402.409
7000,1402.831
7001,1403.134
7002,1403.360
7003,1403.583
7004,1403.761
7005,1403.765
7006,1403.510
7007,1403.040
7008,1402.472
7009,1401.925
7010,1401.475
7011,1401.088
7012,1400.642
7013,1400.057
7014,1399.329
7015,1398.447
7016,1397.328
7017,1395.823
7018,1393.864
7019,1391.610
7020,1389.390
7021,1387.585
7022,1386.473
7023,1386.219
7024,1386.926
7025,1388.623
7026,1391.216
7027,1394.432
7028,1397.875
7029,1401.148
7030,1403.894
7031,1405.821
7032,1406.720
7033,1406.483
7034,1405.117
7035,1402.730
7036,1399.496
7037,1395.607
7038,1391.314
7039,1386.930
7040,1382.772
7041,1379.113
7042,1376.197
7043,1374.179
7044,1373.130
7045,1373.022
7046,1373.785
7047,1375.304
7048,1377.423
7049,1379.890
7050,1382.351
7051,1384.410
7052,1385.804
7053,1386.508
7054,1386.599
7055,1386.121
7056,1385.180
7057,1384.065
7058,1383.114
7059,1382.469
7060,1382.040
7061,1381.678
7062,1381.344
7063,1381.117
7064,1381.127
7065,1381.518
7066,1382.399
7067,1383.828
7068,1385.846
7069,1388.338
7070,1390.934
7071,1393.160
7072,1394.680
7073,1395.443
7074,1395.645
7075,1395.666
7076,1395.927
7077,1396.785
7078,1398.423
7079,1400.757
7080,1403.416
7081,1405.873
7082,1407.657
7083,1408.413
7084,1407.912
7085,1406.065
7086,1402.974
7087,1398.966
7088,1394.554
7089,1390.334
7090,1386.808
7091,1384.243
7092,1382.671
7093,1381.971
7094,1381.943
7095,1382.445
7096,1383.389
7097,1384.682
7098,1386.142
7099,1387.466
7100,1388.362
7101,1388.717
7102,1388.644
7103,1388.327
7104,1387.836
7105,1387.181
7106,1386.449
7107,1385.794
7108,1385.365
7109,1385.243
7110,1385.396
7111,1385.727
7112,1386.125
7113,1386.466
7114,1386.647
7115,1386.606
7116,1386.372
7117,1385.982
7118,1385.445
7119,1384.793
7120,1384.097
7121,1383.431
7122,1382.884
7123,1382.521
7124,1382.375
7125,1382.399
7126,1382.494
7127,1382.577
7128,1382.640
7129,1382.626
7130,1382.413
7131,1381.926
7132,1381.215
7133,1380.385
7134,1379.493
7135,1378.552
7136,1377.583
7137,1376.670
7138,1375.914
7139,1375.437
7140,1375.301
7141,1375.423
7142,1375.615
7143,1375.796
7144,1375.994
7145,1376.141
7146,1376.012
7147,1375.353
7148,1374.095
7149,1372.405
7150,1370.583
7151,1368.889
7152,1367.544
7153,1366.687
7154,1366.310
7155,1366.293
7156,1366.551
7157,1367.157
7158,1368.199
7159,1369.610
7160,1371.126
7161,1372.412
7162,1373.304
7163,1373.907
7164,1374.485
7165,1375.252
7166,1376.210
7167,1377.078
7168,1377.416
7169,1376.890
7170,1375.426
7171,1373.238
7172,1370.732
7173,1368.283
7174,1366.084
7175,1364.164
7176,1362.491
7177,1361.034
7178,1359.710
7179,1358.445
7180,1357.239
7181,1356.232
7182,1355.671
7183,1355.824
7184,1356.849
7185,1358.734
7186,1361.282
7187,1364.157
7188,1366.979
7189,1369.342
7190,1370.934
7191,1371.628
7192,1371.471
7193,1370.614
7194,1369.352
7195,1368.101
7196,1367.227
7197,1366.857
7198,1366.889
7199,1367.126
7200,1367.453
7201,1367.906
7202,1368.586
7203,1369.495
7204,1370.461
7205,1371.279
7206,1371.841
7207,1372.119
7208,1372.140
7209,1371.942
7210,1371.537
7211,1370.924
7212,1370.133
7213,1369.279
7214,1368.502
7215,1367.917
7216,1367.533
7217,1367.251
7218,1366.917
7219,1366.404
7220,1365.700
7221,1364.920
7222,1364.195
7223,1363.582
7224,1363.055
7225,1362.581
7226,1362.236
7227,1362.226
7228,1362.735
7229,1363.738
7230,1365.042
7231,1366.376
7232,1367.537
7233,1368.418
7234,1368.955
7235,1369.133
7236,1369.056
7237,1368.913
7238,1368.892
7239,1369.122
7240,1369.596
7241,1370.199
7242,1370.844
7243,1371.530
7244,1372.290
7245,1373.102
7246,1373.910
7247,1374.656
7248,1375.242
7249,1375.580
7250,1375.618
7251,1375.360
7252,1374.827
7253,1374.046
7254,1373.088
7255,1372.091
7256,1371.238
7257,1370.666
7258,1370.426
7259,1370.516
7260,1370.865
7261,1371.311
7262,1371.694
7263,1371.956
7264,1372.098
7265,1372.140
7266,1372.043
7267,1371.771
7268,1371.328
7269,1370.760
7270,1370.168
7271,1369.666
7272,1369.269
7273,1368.899
7274,1368.523
7275,1368.171
7276,1367.840
7277,1367.485
7278,1367.115
7279,1366.815
7280,1366.669
7281,1366.721
7282,1366.958
7283,1367.317
7284,1367.708
7285,1368.046
7286,1368.321
7287,1368.568
7288,1368.781
7289,1368.868
7290,1368.743
7291,1368.422
7292,1368.004
7293,1367.606
7294,1367.383
7295,1367.446
7296,1367.739
7297,1368.087
7298,1368.349
7299,1368.443
7300,1368.391
7301,1368.227
7302,1367.997
7303,1367.735
7304,1367.460
7305,1367.174
7306,1366.920
7307,1366.763
7308,1366.711
7309,1366.655
7310,1366.439
7311,1366.014
7312,1365.523
7313,1365.199
7314,1365.216
7315,1365.603
7316,1366.258
7317,1367.042
7318,1367.871
7319,1368.722
7320,1369.603
7321,1370.443
7322,1371.067
7323,1371.387
7324,1371.436
7325,1371.325
7326,1371.178
7327,1371.091
7328,1371.029
7329,1370.847
7330,1370.447
7331,1369.840
7332,1369.164
7333,1368.579
7334,1368.168
7335,1367.885
7336,1367.620
7337,1367.328
7338,1367.098
7339,1367.032
7340,1367.192
7341,1367.638
7342,1368.446
7343,1369.666
7344,1371.276
7345,1373.126
7346,1374.970
7347,1376.636
7348,1378.162
7349,1379.702
7350,1381.330
7351,1382.898
7352,1384.124
7353,1384.706
7354,1384.400
7355,1383.100
7356,1380.873
7357,1378.054
7358,1375.210
7359,1372.956
7360,1371.753
7361,1371.809
7362,1373.064
7363,1375.214
7364,1377.793
7365,1380.326
7366,1382.473
7367,1384.072
7368,1385.121
7369,1385.748
7370,1386.086
7371,1386.166
7372,1386.010
7373,1385.693
7374,1385.344
7375,1385.097
7376,1385.037
7377,1385.170
7378,1385.400
7379,1385.647
7380,1385.835
7381,1385.902
7382,1385.905
7383,1386.031
7384,1386.403
7385,1387.010
7386,1387.776
7387,1388.620
7388,1389.481
7389,1390.390
7390,1391.463
7391,1392.746
7392,1394.175
7393,1395.603
7394,1396.934
7395,1398.203
7396,1399.499
7397,1400.813
7398,1402.057
7399,1403.183
7400,1404.214
7401,1405.162
7402,1405.985
7403,1406.661
7404,1407.204
7405,1407.643
7406,1407.974
7407,1408.152
7408,1408.159
7409,1408.047
7410,1407.919
7411,1407.842
7412,1407.807
7413,1407.762
7414,1407.706
7415,1407.730
7416,1407.933
7417,1408.354
7418,1408.974
7419,1409.727
7420,1410.501
7421,1411.159
7422,1411.616
7423,1411.822
7424,1411.745
7425,1411.382
7426,1410.787
7427,1410.083
7428,1409.375
7429,1408.734
7430,1408.187
7431,1407.744
7432,1407.361
7433,1406.866
7434,1406.117
7435,1405.183
7436,1404.343
7437,1403.887
7438,1403.984
7439,1404.587
7440,1405.416
7441,1406.110
7442,1406.434
7443,1406.364
7444,1405.946
7445,1405.291
7446,1404.598
7447,1404.117
7448,1404.016
7449,1404.343
7450,1404.998
7451,1405.779
7452,1406.594
7453,1407.483
7454,1408.441
7455,1409.330
7456,1410.027
7457,1410.546
7458,1410.957
7459,1411.226
7460,1411.215
7461,1410.891
7462,1410.428
7463,1410.090
7464,1409.968
7465,1409.929
7466,1409.821
7467,1409.616
7468,1409.344
7469,1408.985
7470,1408.466
7471,1407.762
7472,1406.939
7473,1406.141
7474,1405.504
7475,1405.099
7476,1404.995
7477,1405.291
7478,1406.030
7479,1407.173
7480,1408.612
7481,1410.274
7482,1412.111
7483,1414.066
7484,1415.979
7485,1417.557
7486,1418.509
7487,1418.683
7488,1418.038
7489,1416.554
7490,1414.289
7491,1411.393
7492,1408.044
7493,1404.479
7494,1401.029
7495,1398.053
7496,1395.788
7497,1394.283
7498,1393.422
7499,1392.892
7500,1392.254
7501,1391.139
7502,1389.508
7503,1387.686
7504,1386.146
7505,1385.274
7506,1385.267
7507,1386.093
7508,1387.501
7509,1389.136
7510,1390.676
7511,1391.990
7512,1393.077
7513,1393.899
7514,1394.342
7515,1394.408
7516,1394.220
7517,1393.924
7518,1393.596
7519,1393.185
7520,1392.582
7521,1391.700
7522,1390.498
7523,1389.024
7524,1387.484
7525,1386.111
7526,1384.982
7527,1383.988
7528,1383.023
7529,1382.089
7530,1381.187
7531,1380.263
7532,1379.361
7533,1378.692
7534,1378.559
7535,1379.183
7536,1380.629
7537,1382.741
7538,1385.152
7539,1387.428
7540,1389.244
7541,1390.390
7542,1390.700
7543,1390.094
7544,1388.714
7545,1386.958
7546,1385.358
7547,1384.333
7548,1384.013
7549,1384.236
7550,1384.717
7551,1385.334
7552,1386.142
7553,1387.181
7554,1388.334
7555,1389.456
7556,1390.481
7557,1391.390
7558,1392.132
7559,1392.641
7560,1392.944
7561,1393.181
7562,1393.547
7563,1394.080
7564,1394.631
7565,1394.976
7566,1394.955
7567,1394.544
7568,1393.843
7569,1393.007
7570,1392.206
7571,1391.568
7572,1391.118
7573,1390.805
7574,1390.596
7575,1390.557
7576,1390.763
7577,1391.216
7578,1391.850
7579,1392.582
7580,1393.328
7581,1394.032
7582,1394.676
7583,1395.279
7584,1395.812
7585,1396.220
7586,1396.464
7587,1396.516
7588,1396.328
7589,1395.816
7590,1394.889
7591,1393.498
7592,1391.714
7593,1389.731
7594,1387.776
7595,1386.065
7596,1384.759
7597,1383.884
7598,1383.368
7599,1383.114
7600,1383.009
7601,1382.929
7602,1382.758
7603,1382.448
7604,1382.037
7605,1381.615
7606,1381.281
7607,1381.082
7608,1381.026
7609,1381.103
7610,1381.295
7611,1381.553
7612,1381.762
7613,1381.758
7614,1381.455
7615,1380.922
7616,1380.302
7617,1379.737
7618,1379.371
7619,1379.406
7620,1379.936
7621,1380.821
7622,1381.800
7623,1382.671
7624,1383.337
7625,1383.696
7626,1383.713
7627,1383.515
7628,1383.292
7629,1383.107
7630,1382.922
7631,1382.793
7632,1382.814
7633,1383.041
7634,1383.515
7635,1384.316
7636,1385.382
7637,1386.470
7638,1387.320
7639,1387.895
7640,1388.365
7641,1388.881
7642,1389.407
7643,1389.759
7644,1389.717
7645,1389.097
7646,1387.815
7647,1385.947
7648,1383.706
7649,1381.225
7650,1378.479
7651,1375.378
7652,1372.001
7653,1368.621
7654,1365.571
7655,1363.087
7656,1361.247
7657,1360.020
7658,1359.334
7659,1359.152
7660,1359.476
7661,1360.278
7662,1361.505
7663,1363.073
7664,1364.801
7665,1366.415
7666,1367.669
7667,1368.485
7668,1368.955
7669,1369.269
7670,1369.603
7671,1369.976
7672,1370.255
7673,1370.279
7674,1369.941
7675,1369.203
7676,1368.136
7677,1366.829
7678,1365.272
7679,1363.456
7680,1361.571
7681,1359.929
7682,1358.734
7683,1358.020
7684,1357.769
7685,1358.016
7686,1358.818
7687,1360.142
7688,1361.919
7689,1364.076
7690,1366.429
7691,1368.641
7692,1370.353
7693,1371.391
7694,1371.785
7695,1371.576
7696,1370.729
7697,1369.220
7698,1367.195
7699,1365.028
7700,1363.188
7701,1362.003
7702,1361.508
7703,1361.567
7704,1362.055
7705,1362.860
7706,1363.728
7707,1364.394
7708,1364.756
7709,1364.885
7710,1364.833
7711,1364.564
7712,1364.066
7713,1363.414
7714,1362.777
7715,1362.299
7716,1362.080
7717,1362.184
7718,1362.634
7719,1363.331
7720,1364.101
7721,1364.791
7722,1365.320
7723,1365.707
7724,1366.003
7725,1366.251
7726,1366.516
7727,1366.826
7728,1367.230
7729,1367.795
7730,1368.558
7731,1369.516
7732,1370.610
7733,1371.757
7734,1372.893
7735,1373.966
7736,1374.907
7737,1375.656
7738,1376.207
7739,1376.597
7740,1376.820
7741,1376.893
7742,1376.900
7743,1376.866
7744,1376.670
7745,1376.203
7746,1375.503
7747,1374.660
7748,1373.778
7749,1372.949
7750,1372.276
7751,1371.781
7752,1371.408
7753,1371.077
7754,1370.771
7755,1370.468
7756,1370.098
7757,1369.579
7758,1368.854
7759,1367.903
7760,1366.857
7761,1366.024
7762,1365.732
7763,1366.181
7764,1367.342
7765,1368.955
7766,1370.670
7767,1372.206
7768,1373.398
7769,1374.158
7770,1374.461
7771,1374.332
7772,1373.844
7773,1373.095
7774,1372.199
7775,1371.279
7776,1370.436
7777,1369.798
7778,1369.596
7779,1370.042
7780,1371.213
7781,1372.963
7782,1374.956
7783,1376.775
7784,1378.120
7785,1378.887
7786,1379.131
7787,1378.953
7788,1378.465
7789,1377.775
7790,1376.960
7791,1376.050
7792,1375.050
7793,1374.050
7794,1373.252
7795,1372.858
7796,1372.970
7797,1373.572
7798,1374.597
7799,1376.001
7800,1377.859
7801,1380.235
7802,1383.086
7803,1386.205
7804,1389.289
7805,1391.983
7806,1393.906
7807,1394.781
7808,1394.565
7809,1393.457
7810,1391.829
7811,1390.000
7812,1388.027
7813,1385.773
7814,1383.201
7815,1380.525
7816,1378.092
7817,1376.245
7818,1375.221
7819,1375.165
7820,1376.102
7821,1377.908
7822,1380.298
7823,1382.887
7824,1385.229
7825,1386.874
7826,1387.466
7827,1386.863
7828,1385.264
7829,1383.204
7830,1381.347
7831,1380.211
7832,1380.051
7833,1380.866
7834,1382.504
7835,1384.672
7836,1386.996
7837,1389.101
7838,1390.718
7839,1391.648
7840,1391.794
7841,1391.258
7842,1390.387
7843,1389.561
7844,1388.989
7845,1388.693
7846,1388.683
7847,1389.021
7848,1389.724
7849,1390.637
7850,1391.488
7851,1391.951
7852,1391.732
7853,1390.700
7854,1389.024
7855,1387.142
7856,1385.539
7857,1384.522
7858,1384.208
7859,1384.626
7860,1385.748
7861,1387.407
7862,1389.285
7863,1391.049
7864,1392.558
7865,1393.878
7866,1395.101
7867,1396.255
7868,1397.353
7869,1398.402
7870,1399.405
7871,1400.377
7872,1401.304
7873,1402.162
7874,1402.942
7875,1403.653
7876,1404.277
7877,1404.775
7878,1405.113
7879,1405.225
7880,1405.082
7881,1404.761
7882,1404.406
7883,1404.169
7884,1404.183
7885,1404.462
7886,1404.848
7887,1405.162
7888,1405.312
7889,1405.281
7890,1405.110
7891,1404.838
7892,1404.420
7893,1403.800
7894,1403.033
7895,1402.221
7896,1401.339
7897,1400.287
7898,1399.106
7899,1398.053
7900,1397.454
7901,1397.485
7902,1398.053
7903,1398.834
7904,1399.437
7905,1399.656
7906,1399.517
7907,1399.179
7908,1398.778
7909,1398.342
7910,1397.802
7911,1397.063
7912,1396.070
7913,1394.903
7914,1393.715
7915,1392.572
7916,1391.449
7917,1390.397
7918,1389.519
7919,1388.871
7920,1388.453
7921,1388.324
7922,1388.592
7923,1389.244
7924,1390.080
7925,1390.777
7926,1391.066
7927,1390.920
7928,1390.519
7929,1390.094
7930,1389.822
7931,1389.791
7932,1389.892
7933,1389.832
7934,1389.306
7935,1388.121
7936,1386.302
7937,1384.124
7938,1382.002
7939,1380.295
7940,1379.179
7941,1378.674
7942,1378.730
7943,1379.308
7944,1380.385
7945,1381.884
7946,1383.644
7947,1385.417
7948,1387.024
7949,1388.442
7950,1389.707
7951,1390.791
7952,1391.659
7953,1392.300
7954,1392.732
7955,1393.014
7956,1393.230
7957,1393.397
7958,1393.471
7959,1393.425
7960,1393.262
7961,1393.014
7962,1392.676
7963,1392.240
7964,1391.704
7965,1391.115
7966,1390.519
7967,1389.927
7968,1389.320
7969,1388.665
7970,1387.895
7971,1386.968
7972,1385.964
7973,1385.086
7974,1384.490
7975,1384.222
7976,1384.208
7977,1384.320
7978,1384.389
7979,1384.285
7980,1383.936
7981,1383.281
7982,1382.270
7983,1380.985
7984,1379.688
7985,1378.706
7986,1378.200
7987,1378.096
7988,1378.207
7989,1378.469
7990,1378.949
7991,1379.615
7992,1380.326
7993,1380.981
7994,1381.525
7995,1381.866
7996,1381.915
7997,1381.668
7998,1381.256
7999,1380.908
8000,1380.884
8001,1381.291
8002,1381.950
8003,1382.448
8004,1382.382
8005,1381.539
8006,1379.939
8007,1377.848
8008,1375.709
8009,1373.945
8010,1372.757
8011,1372.081
8012,1371.750
8013,1371.694
8014,1371.924
8015,1372.412
8016,1373.099
8017,1373.910
8018,1374.782
8019,1375.681
8020,1376.639
8021,1377.744
8022,1379.061
8023,1380.511
8024,1381.915
8025,1383.069
8026,1383.811
8027,1384.163
8028,1384.292
8029,1384.386
8030,1384.515
8031,1384.658
8032,1384.748
8033,1384.800
8034,1384.947
8035,1385.299
8036,1385.821
8037,1386.358
8038,1386.790
8039,1387.114
8040,1387.466
8041,1387.999
8042,1388.745
8043,1389.582
8044,1390.352
8045,1390.958
8046,1391.352
8047,1391.530
8048,1391.505
8049,1391.320
8050,1391.042
8051,1390.725
8052,1390.394
8053,1390.073
8054,1389.777
8055,1389.393
8056,1388.766
8057,1387.895
8058,1386.944
8059,1386.069
8060,1385.243
8061,1384.306
8062,1383.163
8063,1381.835
8064,1380.392
8065,1378.866
8066,1377.291
8067,1375.747
8068,1374.388
8069,1373.325
8070,1372.531
8071,1371.875
8072,1371.325
8073,1370.959
8074,1370.910
8075,1371.241
8076,1371.924
8077,1372.830
8078,1373.823
8079,1374.799
8080,1375.656
8081,1376.270
8082,1376.545
8083,1376.503
8084,1376.259
8085,1375.886
8086,1375.409
8087,1374.914
8088,1374.479
8089,1374.106
8090,1373.789
8091,1373.628
8092,1373.715
8093,1373.959
8094,1374.210
8095,1374.402
8096,1374.566
8097,1374.771
8098,1375.113
8099,1375.615
8100,1376.238
8101,1377.029
8102,1378.162
8103,1379.741
8104,1381.629
8105,1383.501
8106,1384.968
8107,1385.720
8108,1385.574
8109,1384.476
8110,1382.528
8111,1380.005
8112,1377.312
8113,1374.886
8114,1373.015
8115,1371.652
8116,1370.520
8117,1369.387
8118,1368.283
8119,1367.443
8120,1367.073
8121,1367.146
8122,1367.443
8123,1367.788
8124,1368.136
8125,1368.460
8126,1368.729
8127,1368.976
8128,1369.255
8129,1369.478
8130,1369.408
8131,1368.871
8132,1367.917
8133,1366.756
8134,1365.638
8135,1364.763
8136,1364.230
8137,1364.035
8138,1364.045
8139,1363.989
8140,1363.571
8141,1362.686
8142,1361.543
8143,1360.504
8144,1359.860
8145,1359.773
8146,1360.383
8147,1361.752
8148,1363.756
8149,1366.042
8150,1368.122
8151,1369.513
8152,1369.955
8153,1369.499
8154,1368.411
8155,1367.011
8156,1365.603
8157,1364.484
8158,1363.857
8159,1363.770
8160,1364.146
8161,1364.822
8162,1365.617
8163,1366.467
8164,1367.404
8165,1368.359
8166,1369.136
8167,1369.548
8168,1369.530
8169,1369.112
8170,1368.436
8171,1367.774
8172,1367.411
8173,1367.478
8174,1367.993
8175,1368.948
8176,1370.290
8177,1371.928
8178,1373.722
8179,1375.496
8180,1377.043
8181,1378.280
8182,1379.218
8183,1379.869
8184,1380.291
8185,1380.678
8186,1381.330
8187,1382.532
8188,1384.557
8189,1387.546
8190,1391.383
8191,1395.683
8192,1399.886
8193,1403.437
8194,1405.946
8195,1407.225
8196,1407.281
8197,1406.295
8198,1404.611
8199,1402.657
8200,1400.736
8201,1398.872
8202,1396.945
8203,1394.966
8204,1393.157
8205,1391.753
8206,1390.819
8207,1390.286
8208,1390.087
8209,1390.181
8210,1390.401
8211,1390.425
8212,1389.934
8213,1388.804
8214,1387.184
8215,1385.368
8216,1383.678
8217,1382.413
8218,1381.821
8219,1382.054
8220,1383.145
8221,1385.013
8222,1387.463
8223,1390.167
8224,1392.683
8225,1394.551
8226,1395.502
8227,1395.548
8228,1394.931
8229,1394.000
8230,1393.052
8231,1392.188
8232,1391.324
8233,1390.331
8234,1389.167
8235,1387.982
8236,1387.090
8237,1386.815
8238,1387.310
8239,1388.487
8240,1390.038
8241,1391.575
8242,1392.847
8243,1393.819
8244,1394.537
8245,1394.955
8246,1394.959
8247,1394.530
8248,1393.753
8249,1392.767
8250,1391.822
8251,1391.272
8252,1391.355
8253,1392.021
8254,1392.951
8255,1393.774
8256,1394.237
8257,1394.335
8258,1394.300
8259,1394.513
8260,1395.297
8261,1396.684
8262,1398.349
8263,1399.733
8264,1400.297
8265,1399.715
8266,1397.966
8267,1395.318
8268,1392.240
8269,1389.244
8270,1386.797
8271,1385.205
8272,1384.557
8273,1384.672
8274,1385.173
8275,1385.619
8276,1385.724
8277,1385.456
8278,1384.975
8279,1384.466
8280,1384.027
8281,1383.696
8282,1383.542
8283,1383.577
8284,1383.745
8285,1383.943
8286,1384.044
8287,1383.971
8288,1383.755
8289,1383.462
8290,1383.204
8291,1383.166
8292,1383.483
8293,1384.159
8294,1385.107
8295,1386.180
8296,1387.215
8297,1388.090
8298,1388.811
8299,1389.400
8300,1389.770
8301,1389.770
8302,1389.341
8303,1388.602
8304,1387.756
8305,1386.961
8306,1386.316
8307,1385.870
8308,1385.581
8309,1385.281
8310,1384.776
8311,1384.027
8312,1383.215
8313,1382.542
8314,1382.030
8315,1381.581
8316,1381.100
8317,1380.559
8318,1379.950
8319,1379.242
8320,1378.462
8321,1377.740
8322,1377.190
8323,1376.880
8324,1376.963
8325,1377.695
8326,1379.291
8327,1381.786
8328,1385.017
8329,1388.599
8330,1392.007
8331,1394.743
8332,1396.572
8333,1397.576
8334,1398.008
8335,1398.067
8336,1397.830
8337,1397.342
8338,1396.739
8339,1396.203
8340,1395.851
8341,1395.694
8342,1395.739
8343,1395.987
8344,1396.377
8345,1396.844
8346,1397.440
8347,1398.241
8348,1399.189
8349,1400.120
8350,1400.897
8351,1401.419
8352,1401.496
8353,1400.879
8354,1399.464
8355,1397.457
8356,1395.304
8357,1393.492
8358,1392.338
8359,1391.958
8360,1392.296
8361,1393.147
8362,1394.195
8363,1395.112
8364,1395.638
8365,1395.676
8366,1395.359
8367,1394.892
8368,1394.401
8369,1393.913
8370,1393.512
8371,1393.265
8372,1393.206
8373,1393.356
8374,1393.652
8375,1393.952
8376,1394.195
8377,1394.450
8378,1394.725
8379,1394.931
8380,1395.049
8381,1395.136
8382,1395.203
8383,1395.220
8384,1395.164
8385,1394.973
8386,1394.579
8387,1393.986
8388,1393.293
8389,1392.617
8390,1392.021
8391,1391.526
8392,1391.139
8393,1390.815
8394,1390.456
8395,1389.993
8396,1389.425
8397,1388.801
8398,1388.160
8399,1387.452
8400,1386.613
8401,1385.637
8402,1384.612
8403,1383.661
8404,1382.863
8405,1382.277
8406,1381.946
8407,1381.908
8408,1382.169
8409,1382.619
8410,1383.093
8411,1383.473
8412,1383.776
8413,1384.076
8414,1384.396
8415,1384.678
8416,1384.877
8417,1384.947
8418,1384.818
8419,1384.487
8420,1384.107
8421,1383.863
8422,1383.811
8423,1383.936
8424,1384.215
8425,1384.563
8426,1384.814
8427,1384.860
8428,1384.668
8429,1384.264
8430,1383.685
8431,1382.992
8432,1382.250
8433,1381.511
8434,1380.824
8435,1380.221
8436,1379.692
8437,1379.214
8438,1378.768
8439,1378.263
8440,1377.604
8441,1376.765
8442,1375.813
8443,1374.876
8444,1374.186
8445,1374.015
8446,1374.496
8447,1375.538
8448,1376.893
8449,1378.225
8450,1379.183
8451,1379.427
8452,1378.789
8453,1377.378
8454,1375.583
8455,1373.886
8456,1372.656
8457,1372.074
8458,1372.074
8459,1372.370
8460,1372.642
8461,1372.778
8462,1372.855
8463,1372.931
8464,1372.889
8465,1372.548
8466,1371.872
8467,1371.042
8468,1370.366
8469,1370.119
8470,1370.387
8471,1371.004
8472,1371.652
8473,1372.126
8474,1372.422
8475,1372.666
8476,1372.984
8477,1373.416
8478,1373.963
8479,1374.632
8480,1375.419
8481,1376.294
8482,1377.273
8483,1378.483
8484,1379.998
8485,1381.709
8486,1383.382
8487,1384.828
8488,1385.968
8489,1386.755
8490,1387.111
8491,1386.916
8492,1386.153
8493,1384.992
8494,1383.755
8495,1382.668
8496,1381.730
8497,1380.810
8498,1379.859
8499,1378.922
8500,1378.061
8501,1377.399
8502,1377.130
8503,1377.395
8504,1378.106
8505,1378.991
8506,1379.810
8507,1380.479
8508,1381.006
8509,1381.385
8510,1381.636
8511,1381.814
8512,1382.016
8513,1382.319
8514,1382.744
8515,1383.222
8516,1383.650
8517,1383.978
8518,1384.232
8519,1384.487
8520,1384.818
8521,1385.233
8522,1385.672
8523,1386.065
8524,1386.393
8525,1386.654
8526,1386.825
8527,1386.856
8528,1386.724
8529,1386.494
8530,1386.250
8531,1386.041
8532,1385.797
8533,1385.417
8534,1384.888
8535,1384.313
8536,1383.867
8537,1383.668
8538,1383.779
8539,1384.232
8540,1384.978
8541,1385.832
8542,1386.564
8543,1386.996
8544,1387.076
8545,1386.825
8546,1386.355
8547,1385.860
8548,1385.508
8549,1385.365
8550,1385.424
8551,1385.602
8552,1385.811
8553,1385.999
8554,1386.079
8555,1385.964
8556,1385.651
8557,1385.149
8558,1384.421
8559,1383.466
8560,1382.434
8561,1381.556
8562,1380.939
8563,1380.500
8564,1379.984
8565,1379.148
8566,1377.918
8567,1376.440
8568,1374.966
8569,1373.708
8570,1372.827
8571,1372.419
8572,1372.544
8573,1373.210
8574,1374.405
8575,1376.106
8576,1378.305
8577,1380.978
8578,1384.051
8579,1387.379
8580,1390.728
8581,1393.725
8582,1395.938
8583,1397.004
8584,1396.746
8585,1395.255
8586,1392.854
8587,1389.986
8588,1387.066
8589,1384.410
8590,1382.190
8591,1380.448
8592,1379.141
8593,1378.169
8594,1377.420
8595,1376.810
8596,1376.312
8597,1375.939
8598,1375.730
8599,1375.723
8600,1375.963
8601,1376.496
8602,1377.371
8603,1378.618
8604,1380.263
8605,1382.288
8606,1384.612
8607,1387.069
8608,1389.352
8609,1391.070
8610,1391.878
8611,1391.693
8612,1390.791
8613,1389.648
8614,1388.679
8615,1388.111
8616,1388.010
8617,1388.390
8618,1389.324
8619,1390.913
8620,1393.227
8621,1396.231
8622,1399.771
8623,1403.489
8624,1406.891
8625,1409.536
8626,1411.281
8627,1412.316
8628,1412.985
8629,1413.574
8630,1414.202
8631,1414.888
8632,1415.585
8633,1416.205
8634,1416.676
8635,1416.986
8636,1417.146
8637,1417.181
8638,1417.174
8639,1417.230
8640,1417.404
8641,1417.739
8642,1418.289
8643,1419.108
8644,1420.192
8645,1421.453
8646,1422.708
