'sample interval','wrist_ppg'
'0.00390625 sec','mV'
0,1220.715
1,1219.814
2,1218.984
3,1218.315
4,1217.811
5,1217.374
6,1216.880
7,1216.269
8,1215.533
9,1214.682
10,1213.755
11,1212.803
12,1211.893
13,1211.076
14,1210.390
15,1209.873
16,1209.530
17,1209.389
18,1209.459
19,1209.731
20,1210.131
21,1210.575
22,1211.005
23,1211.378
24,1211.671
25,1211.886
26,1212.054
27,1212.208
28,1212.373
29,1212.561
30,1212.783
31,1213.066
32,1213.442
33,1213.916
34,1214.454
35,1214.988
36,1215.435
37,1215.714
38,1215.795
39,1215.694
40,1215.459
41,1215.119
42,1214.679
43,1214.158
44,1213.623
45,1213.153
46,1212.817
47,1212.629
48,1212.561
49,1212.558
50,1212.585
51,1212.635
52,1212.686
53,1212.719
54,1212.726
55,1212.709
56,1212.696
57,1212.692
58,1212.703
59,1212.753
60,1212.864
61,1213.032
62,1213.257
63,1213.536
64,1213.862
65,1214.252
66,1214.699
67,1215.166
68,1215.640
69,1216.114
70,1216.561
71,1216.924
72,1217.149
73,1217.230
74,1217.247
75,1217.284
76,1217.378
77,1217.509
78,1217.667
79,1217.842
80,1217.966
81,1217.959
82,1217.794
83,1217.529
84,1217.240
85,1216.941
86,1216.601
87,1216.181
88,1215.660
89,1215.032
90,1214.349
91,1213.687
92,1213.113
93,1212.676
94,1212.454
95,1212.494
96,1212.773
97,1213.187
98,1213.634
99,1214.097
100,1214.655
101,1215.375
102,1216.228
103,1217.095
104,1217.825
105,1218.315
106,1218.534
107,1218.544
108,1218.443
109,1218.319
110,1218.228
111,1218.221
112,1218.268
113,1218.295
114,1218.235
115,1218.080
116,1217.838
117,1217.489
118,1217.011
119,1216.416
120,1215.758
121,1215.082
122,1214.447
123,1213.929
124,1213.610
125,1213.570
126,1213.849
127,1214.430
128,1215.243
129,1216.151
130,1216.984
131,1217.586
132,1217.889
133,1217.936
134,1217.805
135,1217.583
136,1217.314
137,1217.038
138,1216.823
139,1216.773
140,1216.934
141,1217.274
142,1217.704
143,1218.194
144,1218.762
145,1219.438
146,1220.171
147,1220.826
148,1221.266
149,1221.411
150,1221.253
151,1220.870
152,1220.403
153,1220.023
154,1219.865
155,1219.949
156,1220.167
157,1220.349
158,1220.315
159,1219.946
160,1219.193
161,1218.094
162,1216.769
163,1215.401
164,1214.155
165,1213.133
166,1212.323
167,1211.644
168,1211.029
169,1210.518
170,1210.219
171,1210.246
172,1210.649
173,1211.459
174,1212.662
175,1214.212
176,1216.030
177,1218.013
178,1220.006
179,1221.831
180,1223.290
181,1224.211
182,1224.516
183,1224.204
184,1223.360
185,1222.130
186,1220.678
187,1219.112
188,1217.509
189,1215.983
190,1214.712
191,1213.852
192,1213.523
193,1213.781
194,1214.638
195,1216.027
196,1217.818
197,1219.774
198,1221.616
199,1223.088
200,1224.043
201,1224.422
202,1224.234
203,1223.552
204,1222.507
205,1221.287
206,1220.100
207,1219.102
208,1218.369
209,1217.872
210,1217.542
211,1217.321
212,1217.166
213,1217.021
214,1216.796
215,1216.440
216,1215.969
217,1215.442
218,1214.884
219,1214.312
220,1213.795
221,1213.449
222,1213.402
223,1213.728
224,1214.433
225,1215.452
226,1216.655
227,1217.879
228,1218.964
229,1219.771
230,1220.184
231,1220.161
232,1219.707
233,1218.860
234,1217.710
235,1216.420
236,1215.203
237,1214.269
238,1213.724
239,1213.570
240,1213.714
241,1214.070
242,1214.612
243,1215.334
244,1216.174
245,1217.011
246,1217.731
247,1218.292
248,1218.746
249,1219.169
250,1219.596
251,1220.040
252,1220.507
253,1220.981
254,1221.431
255,1221.808
256,1222.070
257,1222.167
258,1222.090
259,1221.895
260,1221.683
261,1221.545
262,1221.535
263,1221.643
264,1221.808
265,1221.965
266,1222.097
267,1222.228
268,1222.372
269,1222.544
270,1222.742
271,1222.937
272,1223.075
273,1223.128
274,1223.105
275,1223.028
276,1222.933
277,1222.860
278,1222.829
279,1222.856
280,1222.913
281,1222.933
282,1222.866
283,1222.695
284,1222.433
285,1222.070
286,1221.602
287,1221.028
288,1220.376
289,1219.714
290,1219.088
291,1218.494
292,1217.919
293,1217.428
294,1217.119
295,1217.062
296,1217.263
297,1217.657
298,1218.117
299,1218.483
300,1218.628
301,1218.510
302,1218.208
303,1217.885
304,1217.694
305,1217.731
306,1218.016
307,1218.504
308,1219.062
309,1219.512
310,1219.690
311,1219.532
312,1219.082
313,1218.436
314,1217.690
315,1216.978
316,1216.413
317,1216.067
318,1215.943
319,1216.040
320,1216.322
321,1216.753
322,1217.304
323,1217.936
324,1218.584
325,1219.156
326,1219.535
327,1219.677
328,1219.613
329,1219.398
330,1219.099
331,1218.766
332,1218.403
333,1217.983
334,1217.539
335,1217.112
336,1216.739
337,1216.440
338,1216.222
339,1216.053
340,1215.885
341,1215.660
342,1215.398
343,1215.126
344,1214.867
345,1214.638
346,1214.467
347,1214.353
348,1214.252
349,1214.111
350,1213.909
351,1213.650
352,1213.355
353,1213.055
354,1212.783
355,1212.561
356,1212.403
357,1212.326
358,1212.346
359,1212.481
360,1212.719
361,1213.052
362,1213.445
363,1213.872
364,1214.312
365,1214.770
366,1215.243
367,1215.701
368,1216.077
369,1216.319
370,1216.420
371,1216.420
372,1216.363
373,1216.295
374,1216.242
375,1216.178
376,1216.057
377,1215.882
378,1215.690
379,1215.536
380,1215.432
381,1215.371
382,1215.341
383,1215.301
384,1215.217
385,1215.052
386,1214.823
387,1214.541
388,1214.215
389,1213.862
390,1213.539
391,1213.311
392,1213.200
393,1213.213
394,1213.338
395,1213.516
396,1213.687
397,1213.812
398,1213.876
399,1213.865
400,1213.788
401,1213.657
402,1213.496
403,1213.351
404,1213.247
405,1213.180
406,1213.133
407,1213.079
408,1212.988
409,1212.861
410,1212.723
411,1212.582
412,1212.464
413,1212.390
414,1212.346
415,1212.282
416,1212.148
417,1211.930
418,1211.661
419,1211.412
420,1211.254
421,1211.227
422,1211.321
423,1211.476
424,1211.620
425,1211.718
426,1211.748
427,1211.725
428,1211.661
429,1211.543
430,1211.358
431,1211.079
432,1210.686
433,1210.205
434,1209.681
435,1209.157
436,1208.676
437,1208.290
438,1208.017
439,1207.873
440,1207.849
441,1207.859
442,1207.745
443,1207.359
444,1206.659
445,1205.755
446,1204.845
447,1204.108
448,1203.675
449,1203.604
450,1203.914
451,1204.572
452,1205.510
453,1206.612
454,1207.748
455,1208.824
456,1209.839
457,1210.817
458,1211.772
459,1212.706
460,1213.623
461,1214.511
462,1215.361
463,1216.215
464,1217.156
465,1218.221
466,1219.391
467,1220.567
468,1221.623
469,1222.446
470,1223.021
471,1223.394
472,1223.633
473,1223.723
474,1223.579
475,1223.105
476,1222.251
477,1221.045
478,1219.576
479,1217.959
480,1216.272
481,1214.554
482,1212.894
483,1211.446
484,1210.350
485,1209.671
486,1209.345
487,1209.224
488,1209.184
489,1209.150
490,1209.089
491,1208.992
492,1208.881
493,1208.760
494,1208.619
495,1208.498
496,1208.478
497,1208.612
498,1208.868
499,1209.180
500,1209.476
501,1209.728
502,1209.940
503,1210.172
504,1210.451
505,1210.763
506,1211.072
507,1211.351
508,1211.607
509,1211.842
510,1212.047
511,1212.208
512,1212.306
513,1212.245
514,1211.896
515,1211.167
516,1210.088
517,1208.811
518,1207.564
519,1206.572
520,1205.984
521,1205.843
522,1206.132
523,1206.757
524,1207.590
525,1208.505
526,1209.432
527,1210.353
528,1211.288
529,1212.205
530,1213.022
531,1213.671
532,1214.188
533,1214.659
534,1215.133
535,1215.596
536,1216.047
537,1216.464
538,1216.820
539,1217.075
540,1217.223
541,1217.284
542,1217.300
543,1217.267
544,1217.156
545,1217.005
546,1216.911
547,1216.968
548,1217.173
549,1217.442
550,1217.707
551,1217.949
552,1218.164
553,1218.305
554,1218.278
555,1217.989
556,1217.421
557,1216.638
558,1215.801
559,1215.082
560,1214.615
561,1214.450
562,1214.558
563,1214.830
564,1215.109
565,1215.220
566,1215.089
567,1214.793
568,1214.494
569,1214.312
570,1214.252
571,1214.265
572,1214.319
573,1214.410
574,1214.538
575,1214.696
576,1214.857
577,1214.951
578,1214.904
579,1214.689
580,1214.329
581,1213.862
582,1213.324
583,1212.783
584,1212.303
585,1211.919
586,1211.664
587,1211.563
588,1211.630
589,1211.815
590,1212.027
591,1212.155
592,1212.155
593,1212.064
594,1211.956
595,1211.879
596,1211.849
597,1211.839
598,1211.792
599,1211.654
600,1211.415
601,1211.099
602,1210.709
603,1210.249
604,1209.738
605,1209.204
606,1208.679
607,1208.185
608,1207.748
609,1207.392
610,1207.120
611,1206.912
612,1206.733
613,1206.562
614,1206.411
615,1206.303
616,1206.256
617,1206.260
618,1206.283
619,1206.283
620,1206.226
621,1206.098
622,1205.897
623,1205.675
624,1205.513
625,1205.510
626,1205.705
627,1206.068
628,1206.538
629,1207.046
630,1207.530
631,1207.947
632,1208.276
633,1208.505
634,1208.646
635,1208.730
636,1208.817
637,1208.921
638,1209.022
639,1209.113
640,1209.184
641,1209.237
642,1209.261
643,1209.227
644,1209.113
645,1208.932
646,1208.723
647,1208.515
648,1208.303
649,1208.078
650,1207.822
651,1207.540
652,1207.268
653,1207.093
654,1207.103
655,1207.355
656,1207.802
657,1208.353
658,1208.938
659,1209.513
660,1210.041
661,1210.481
662,1210.830
663,1211.140
664,1211.452
665,1211.788
666,1212.148
667,1212.531
668,1212.978
669,1213.587
670,1214.427
671,1215.465
672,1216.558
673,1217.522
674,1218.231
675,1218.604
676,1218.608
677,1218.231
678,1217.482
679,1216.386
680,1214.998
681,1213.459
682,1211.980
683,1210.800
684,1210.115
685,1210.007
686,1210.434
687,1211.247
688,1212.239
689,1213.203
690,1213.993
691,1214.534
692,1214.823
693,1214.887
694,1214.759
695,1214.484
696,1214.121
697,1213.721
698,1213.365
699,1213.153
700,1213.123
701,1213.240
702,1213.479
703,1213.832
704,1214.279
705,1214.770
706,1215.250
707,1215.670
708,1216.013
709,1216.289
710,1216.511
711,1216.716
712,1216.937
713,1217.176
714,1217.398
715,1217.586
716,1217.768
717,1217.966
718,1218.205
719,1218.490
720,1218.833
721,1219.253
722,1219.791
723,1220.473
724,1221.270
725,1222.100
726,1222.910
727,1223.680
728,1224.399
729,1225.041
730,1225.595
731,1226.093
732,1226.557
733,1226.946
734,1227.195
735,1227.242
736,1227.078
737,1226.755
738,1226.405
739,1226.170
740,1226.140
741,1226.321
742,1226.647
743,1227.047
744,1227.464
745,1227.877
746,1228.267
747,1228.610
748,1228.856
749,1228.960
750,1228.929
751,1228.792
752,1228.553
753,1228.247
754,1227.891
755,1227.447
756,1226.832
757,1226.029
758,1225.148
759,1224.355
760,1223.794
761,1223.552
762,1223.639
763,1223.982
764,1224.409
765,1224.742
766,1224.883
767,1224.829
768,1224.604
769,1224.177
770,1223.525
771,1222.695
772,1221.814
773,1221.008
774,1220.329
775,1219.814
776,1219.512
777,1219.475
778,1219.667
779,1219.969
780,1220.241
781,1220.399
782,1220.440
783,1220.416
784,1220.359
785,1220.282
786,1220.201
787,1220.140
788,1220.103
789,1220.073
790,1220.033
791,1219.986
792,1219.932
793,1219.858
794,1219.754
795,1219.596
796,1219.357
797,1219.051
798,1218.732
799,1218.463
800,1218.265
801,1218.124
802,1218.040
803,1218.090
804,1218.373
805,1218.967
806,1219.865
807,1220.950
808,1222.066
809,1223.065
810,1223.838
811,1224.355
812,1224.661
813,1224.869
814,1225.142
815,1225.582
816,1226.187
817,1226.886
818,1227.578
819,1228.173
820,1228.583
821,1228.751
822,1228.640
823,1228.237
824,1227.541
825,1226.540
826,1225.246
827,1223.737
828,1222.181
829,1220.776
830,1219.660
831,1218.843
832,1218.241
833,1217.758
834,1217.334
835,1216.934
836,1216.514
837,1216.033
838,1215.489
839,1214.894
840,1214.282
841,1213.681
842,1213.092
843,1212.535
844,1212.044
845,1211.651
846,1211.382
847,1211.271
848,1211.335
849,1211.550
850,1211.876
851,1212.306
852,1212.820
853,1213.375
854,1213.899
855,1214.339
856,1214.696
857,1214.988
858,1215.227
859,1215.452
860,1215.697
861,1215.953
862,1216.178
863,1216.356
864,1216.497
865,1216.601
866,1216.648
867,1216.621
868,1216.527
869,1216.410
870,1216.349
871,1216.400
872,1216.564
873,1216.847
874,1217.230
875,1217.647
876,1218.010
877,1218.245
878,1218.302
879,1218.164
880,1217.842
881,1217.354
882,1216.722
883,1215.936
884,1214.985
885,1213.902
886,1212.803
887,1211.839
888,1211.136
889,1210.733
890,1210.568
891,1210.568
892,1210.689
893,1210.915
894,1211.214
895,1211.526
896,1211.819
897,1212.091
898,1212.319
899,1212.481
900,1212.588
901,1212.716
902,1212.948
903,1213.318
904,1213.761
905,1214.168
906,1214.420
907,1214.470
908,1214.346
909,1214.111
910,1213.805
911,1213.415
912,1212.938
913,1212.444
914,1212.017
915,1211.664
916,1211.328
917,1210.962
918,1210.592
919,1210.262
920,1210.064
921,1210.078
922,1210.303
923,1210.662
924,1211.076
925,1211.489
926,1211.879
927,1212.256
928,1212.652
929,1213.096
930,1213.613
931,1214.185
932,1214.763
933,1215.314
934,1215.848
935,1216.369
936,1216.816
937,1217.129
938,1217.304
939,1217.435
940,1217.640
941,1217.949
942,1218.336
943,1218.776
944,1219.263
945,1219.777
946,1220.335
947,1220.964
948,1221.666
949,1222.423
950,1223.172
951,1223.784
952,1224.140
953,1224.204
954,1224.046
955,1223.767
956,1223.397
957,1222.933
958,1222.419
959,1221.999
960,1221.838
961,1222.023
962,1222.513
963,1223.162
964,1223.817
965,1224.382
966,1224.816
967,1225.095
968,1225.172
969,1225.027
970,1224.725
971,1224.385
972,1224.106
973,1223.928
974,1223.794
975,1223.666
976,1223.585
977,1223.656
978,1223.928
979,1224.335
980,1224.698
981,1224.826
982,1224.601
983,1224.012
984,1223.172
985,1222.285
986,1221.555
987,1221.105
988,1220.903
989,1220.819
990,1220.719
991,1220.540
992,1220.258
993,1219.892
994,1219.478
995,1219.062
996,1218.699
997,1218.477
998,1218.487
999,1218.746
1000,1219.223
1001,1219.888
1002,1220.719
1003,1221.660
1004,1222.648
1005,1223.639
1006,1224.564
1007,1225.293
1008,1225.703
1009,1225.747
1010,1225.501
1011,1225.098
1012,1224.674
1013,1224.328
1014,1224.113
1015,1224.039
1016,1224.063
1017,1224.086
1018,1224.066
1019,1223.992
1020,1223.861
1021,1223.720
1022,1223.639
1023,1223.673
1024,1223.804
1025,1223.989
1026,1224.177
1027,1224.372
1028,1224.601
1029,1224.869
1030,1225.142
1031,1225.370
1032,1225.538
1033,1225.663
1034,1225.797
1035,1225.979
1036,1226.167
1037,1226.254
1038,1226.140
1039,1225.854
1040,1225.528
1041,1225.330
1042,1225.340
1043,1225.525
1044,1225.763
1045,1225.884
1046,1225.747
1047,1225.256
1048,1224.352
1049,1223.038
1050,1221.424
1051,1219.710
1052,1218.134
1053,1216.904
1054,1216.158
1055,1215.929
1056,1216.188
1057,1216.823
1058,1217.667
1059,1218.531
1060,1219.250
1061,1219.751
1062,1220.073
1063,1220.275
1064,1220.386
1065,1220.396
1066,1220.298
1067,1220.114
1068,1219.885
1069,1219.700
1070,1219.616
1071,1219.606
1072,1219.586
1073,1219.495
1074,1219.344
1075,1219.189
1076,1219.078
1077,1219.031
1078,1219.062
1079,1219.183
1080,1219.394
1081,1219.667
1082,1219.972
1083,1220.292
1084,1220.540
1085,1220.574
1086,1220.255
1087,1219.562
1088,1218.578
1089,1217.431
1090,1216.228
1091,1215.035
1092,1213.929
1093,1212.982
1094,1212.229
1095,1211.681
1096,1211.271
1097,1210.857
1098,1210.360
1099,1209.836
1100,1209.416
1101,1209.197
1102,1209.167
1103,1209.224
1104,1209.264
1105,1209.281
1106,1209.348
1107,1209.557
1108,1209.987
1109,1210.673
1110,1211.600
1111,1212.689
1112,1213.818
1113,1214.894
1114,1215.916
1115,1216.907
1116,1217.858
1117,1218.699
1118,1219.394
1119,1219.902
1120,1220.167
1121,1220.147
1122,1219.858
1123,1219.327
1124,1218.544
1125,1217.505
1126,1216.289
1127,1215.035
1128,1213.909
1129,1213.015
1130,1212.417
1131,1212.118
1132,1212.101
1133,1212.316
1134,1212.716
1135,1213.274
1136,1213.986
1137,1214.867
1138,1215.906
1139,1217.048
1140,1218.201
1141,1219.230
1142,1220.016
1143,1220.554
1144,1220.961
1145,1221.377
1146,1221.858
1147,1222.349
1148,1222.755
1149,1223.021
1150,1223.155
1151,1223.196
1152,1223.212
1153,1223.266
1154,1223.370
1155,1223.515
1156,1223.693
1157,1223.895
1158,1224.063
1159,1224.137
1160,1224.083
1161,1223.922
1162,1223.690
1163,1223.424
1164,1223.162
1165,1222.933
1166,1222.772
1167,1222.702
1168,1222.742
1169,1222.880
1170,1223.071
1171,1223.253
1172,1223.377
1173,1223.428
1174,1223.411
1175,1223.343
1176,1223.212
1177,1222.987
1178,1222.621
1179,1222.070
1180,1221.300
1181,1220.325
1182,1219.236
1183,1218.131
1184,1217.048
1185,1216.000
1186,1215.022
1187,1214.228
1188,1213.755
1189,1213.664
1190,1213.936
1191,1214.481
1192,1215.180
1193,1215.906
1194,1216.500
1195,1216.830
1196,1216.837
1197,1216.561
1198,1216.090
1199,1215.502
1200,1214.823
1201,1214.064
1202,1213.247
1203,1212.397
1204,1211.570
1205,1210.851
1206,1210.293
1207,1209.886
1208,1209.627
1209,1209.563
1210,1209.772
1211,1210.283
1212,1211.019
1213,1211.819
1214,1212.494
1215,1212.955
1216,1213.207
1217,1213.328
1218,1213.368
1219,1213.348
1220,1213.318
1221,1213.355
1222,1213.489
1223,1213.681
1224,1213.859
1225,1214.000
1226,1214.104
1227,1214.191
1228,1214.299
1229,1214.467
1230,1214.729
1231,1215.112
1232,1215.613
1233,1216.195
1234,1216.820
1235,1217.411
1236,1217.912
1237,1218.309
1238,1218.641
1239,1218.947
1240,1219.267
1241,1219.673
1242,1220.268
1243,1221.125
1244,1222.241
1245,1223.515
1246,1224.785
1247,1225.864
1248,1226.610
1249,1226.960
1250,1226.963
1251,1226.718
1252,1226.342
1253,1225.915
1254,1225.447
1255,1224.930
1256,1224.355
1257,1223.740
1258,1223.088
1259,1222.426
1260,1221.808
1261,1221.270
1262,1220.816
1263,1220.430
1264,1220.093
1265,1219.791
1266,1219.529
1267,1219.307
1268,1219.146
1269,1219.045
1270,1219.001
1271,1219.011
1272,1219.088
1273,1219.250
1274,1219.495
1275,1219.791
1276,1220.103
1277,1220.419
1278,1220.725
1279,1221.018
1280,1221.307
1281,1221.609
1282,1221.952
1283,1222.352
1284,1222.786
1285,1223.216
1286,1223.606
1287,1223.932
1288,1224.184
1289,1224.379
1290,1224.557
1291,1224.826
1292,1225.316
1293,1226.056
1294,1226.936
1295,1227.763
1296,1228.338
1297,1228.516
1298,1228.240
1299,1227.585
1300,1226.725
1301,1225.874
1302,1225.202
1303,1224.809
1304,1224.705
1305,1224.789
1306,1224.923
1307,1225.000
1308,1225.037
1309,1225.135
1310,1225.407
1311,1225.898
1312,1226.567
1313,1227.316
1314,1228.032
1315,1228.603
1316,1228.997
1317,1229.286
1318,1229.565
1319,1229.850
1320,1230.055
1321,1230.079
1322,1229.884
1323,1229.501
1324,1228.923
1325,1228.140
1326,1227.212
1327,1226.278
1328,1225.488
1329,1224.920
1330,1224.567
1331,1224.345
1332,1224.157
1333,1223.955
1334,1223.740
1335,1223.532
1336,1223.347
1337,1223.199
1338,1223.091
1339,1223.007
1340,1222.981
1341,1223.051
1342,1223.206
1343,1223.387
1344,1223.549
1345,1223.639
1346,1223.643
1347,1223.572
1348,1223.451
1349,1223.286
1350,1223.088
1351,1222.853
1352,1222.604
1353,1222.382
1354,1222.181
1355,1221.959
1356,1221.717
1357,1221.545
1358,1221.592
1359,1221.972
1360,1222.725
1361,1223.767
1362,1224.903
1363,1225.908
1364,1226.600
1365,1226.876
1366,1226.721
1367,1226.200
1368,1225.468
1369,1224.748
1370,1224.234
1371,1223.999
1372,1223.959
1373,1223.938
1374,1223.804
1375,1223.532
1376,1223.179
1377,1222.839
1378,1222.544
1379,1222.281
1380,1222.036
1381,1221.831
1382,1221.710
1383,1221.660
1384,1221.623
1385,1221.562
1386,1221.468
1387,1221.320
1388,1221.075
1389,1220.735
1390,1220.379
1391,1220.114
1392,1219.952
1393,1219.821
1394,1219.623
1395,1219.297
1396,1218.853
1397,1218.342
1398,1217.835
1399,1217.428
1400,1217.233
1401,1217.361
1402,1217.868
1403,1218.678
1404,1219.620
1405,1220.520
1406,1221.307
1407,1221.976
1408,1222.537
1409,1222.974
1410,1223.256
1411,1223.367
1412,1223.347
1413,1223.246
1414,1223.065
1415,1222.782
1416,1222.419
1417,1222.033
1418,1221.656
1419,1221.324
1420,1221.092
1421,1221.024
1422,1221.169
1423,1221.518
1424,1221.999
1425,1222.540
1426,1223.054
1427,1223.417
1428,1223.535
1429,1223.404
1430,1223.132
1431,1222.849
1432,1222.658
1433,1222.557
1434,1222.480
1435,1222.335
1436,1222.090
1437,1221.784
1438,1221.492
1439,1221.324
1440,1221.367
1441,1221.650
1442,1222.103
1443,1222.634
1444,1223.118
1445,1223.434
1446,1223.505
1447,1223.293
1448,1222.809
1449,1222.086
1450,1221.192
1451,1220.191
1452,1219.146
1453,1218.114
1454,1217.139
1455,1216.228
1456,1215.294
1457,1214.222
1458,1212.965
1459,1211.567
1460,1210.098
1461,1208.636
1462,1207.264
1463,1206.102
1464,1205.228
1465,1204.670
1466,1204.421
1467,1204.451
1468,1204.693
1469,1205.026
1470,1205.349
1471,1205.594
1472,1205.728
1473,1205.708
1474,1205.503
1475,1205.144
1476,1204.720
1477,1204.320
1478,1203.998
1479,1203.816
1480,1203.823
1481,1204.024
1482,1204.384
1483,1204.838
1484,1205.369
1485,1206.018
1486,1206.801
1487,1207.648
1488,1208.414
1489,1208.975
1490,1209.254
1491,1209.261
1492,1209.066
1493,1208.757
1494,1208.387
1495,1207.974
1496,1207.557
1497,1207.170
1498,1206.817
1499,1206.475
1500,1206.155
1501,1205.880
1502,1205.597
1503,1205.258
1504,1204.888
1505,1204.623
1506,1204.613
1507,1204.922
1508,1205.500
1509,1206.256
1510,1207.143
1511,1208.138
1512,1209.170
1513,1210.138
1514,1210.985
1515,1211.725
1516,1212.356
1517,1212.834
1518,1213.076
1519,1213.029
1520,1212.716
1521,1212.208
1522,1211.617
1523,1211.049
1524,1210.609
1525,1210.373
1526,1210.353
1527,1210.518
1528,1210.780
1529,1211.019
1530,1211.113
1531,1211.036
1532,1210.841
1533,1210.605
1534,1210.340
1535,1210.017
1536,1209.654
1537,1209.352
1538,1209.234
1539,1209.392
1540,1209.822
1541,1210.461
1542,1211.224
1543,1212.040
1544,1212.844
1545,1213.576
1546,1214.195
1547,1214.719
1548,1215.190
1549,1215.654
1550,1216.144
1551,1216.669
1552,1217.230
1553,1217.798
1554,1218.349
1555,1218.850
1556,1219.297
1557,1219.720
1558,1220.198
1559,1220.853
1560,1221.781
1561,1223.004
1562,1224.463
1563,1226.083
1564,1227.797
1565,1229.565
1566,1231.356
1567,1233.171
1568,1235.020
1569,1236.878
1570,1238.683
1571,1240.333
1572,1241.708
1573,1242.689
1574,1243.217
1575,1243.318
1576,1243.126
1577,1242.804
1578,1242.491
1579,1242.229
1580,1242.017
1581,1241.859
1582,1241.765
1583,1241.752
1584,1241.805
1585,1241.879
1586,1241.893
1587,1241.795
1588,1241.574
1589,1241.227
1590,1240.760
1591,1240.219
1592,1239.651
1593,1239.120
1594,1238.663
1595,1238.297
1596,1238.018
1597,1237.816
1598,1237.682
1599,1237.608
1600,1237.597
1601,1237.651
1602,1237.755
1603,1237.863
1604,1237.947
1605,1238.021
1606,1238.118
1607,1238.286
1608,1238.535
1609,1238.801
1610,1238.999
1611,1239.070
1612,1239.006
1613,1238.848
1614,1238.626
1615,1238.374
1616,1238.125
1617,1237.903
1618,1237.702
1619,1237.476
1620,1237.181
1621,1236.774
1622,1236.256
1623,1235.665
1624,1235.036
1625,1234.391
1626,1233.783
1627,1233.258
1628,1232.791
1629,1232.264
1630,1231.551
1631,1230.586
1632,1229.366
1633,1227.918
1634,1226.358
1635,1224.879
1636,1223.686
1637,1222.917
1638,1222.621
1639,1222.789
1640,1223.323
1641,1224.049
1642,1224.795
1643,1225.431
1644,1225.888
1645,1226.100
1646,1226.042
1647,1225.794
1648,1225.491
1649,1225.263
1650,1225.179
1651,1225.246
1652,1225.421
1653,1225.629
1654,1225.797
1655,1225.847
1656,1225.733
1657,1225.468
1658,1225.155
1659,1224.940
1660,1224.967
1661,1225.303
1662,1225.861
1663,1226.446
1664,1226.846
1665,1226.920
1666,1226.624
1667,1226.022
1668,1225.279
1669,1224.587
1670,1224.090
1671,1223.827
1672,1223.794
1673,1223.952
1674,1224.211
1675,1224.412
1676,1224.416
1677,1224.184
1678,1223.791
1679,1223.360
1680,1222.994
1681,1222.718
1682,1222.544
1683,1222.473
1684,1222.520
1685,1222.671
1686,1222.873
1687,1223.054
1688,1223.179
1689,1223.226
1690,1223.162
1691,1222.970
1692,1222.705
1693,1222.463
1694,1222.305
1695,1222.214
1696,1222.140
1697,1222.070
1698,1221.986
1699,1221.865
1700,1221.710
1701,1221.566
1702,1221.461
1703,1221.384
1704,1221.270
1705,1221.048
1706,1220.685
1707,1220.238
1708,1219.814
1709,1219.488
1710,1219.297
1711,1219.226
1712,1219.240
1713,1219.273
1714,1219.240
1715,1219.082
1716,1218.766
1717,1218.319
1718,1217.788
1719,1217.206
1720,1216.601
1721,1215.996
1722,1215.449
1723,1214.985
1724,1214.585
1725,1214.178
1726,1213.704
1727,1213.129
1728,1212.450
1729,1211.711
1730,1210.958
1731,1210.226
1732,1209.543
1733,1208.972
1734,1208.639
1735,1208.663
1736,1209.079
1737,1209.846
1738,1210.928
1739,1212.306
1740,1213.906
1741,1215.603
1742,1217.250
1743,1218.689
1744,1219.774
1745,1220.399
1746,1220.537
1747,1220.245
1748,1219.623
1749,1218.756
1750,1217.717
1751,1216.591
1752,1215.485
1753,1214.497
1754,1213.691
1755,1213.103
1756,1212.766
1757,1212.662
1758,1212.676
1759,1212.689
1760,1212.635
1761,1212.575
1762,1212.619
1763,1212.844
1764,1213.217
1765,1213.664
1766,1214.114
1767,1214.534
1768,1214.884
1769,1215.143
1770,1215.314
1771,1215.412
1772,1215.472
1773,1215.533
1774,1215.610
1775,1215.714
1776,1215.815
1777,1215.882
1778,1215.932
1779,1216.027
1780,1216.279
1781,1216.783
1782,1217.573
1783,1218.608
1784,1219.791
1785,1221.061
1786,1222.433
1787,1223.942
1788,1225.579
1789,1227.249
1790,1228.829
1791,1230.173
1792,1231.148
1793,1231.632
1794,1231.571
1795,1231.013
1796,1230.123
1797,1229.148
1798,1228.388
1799,1228.086
1800,1228.345
1801,1229.101
1802,1230.166
1803,1231.275
1804,1232.159
1805,1232.640
1806,1232.633
1807,1232.166
1808,1231.323
1809,1230.230
1810,1229.030
1811,1227.877
1812,1226.879
1813,1226.046
1814,1225.313
1815,1224.648
1816,1224.110
1817,1223.814
1818,1223.864
1819,1224.301
1820,1225.078
1821,1226.096
1822,1227.212
1823,1228.284
1824,1229.219
1825,1230.005
1826,1230.711
1827,1231.373
1828,1231.934
1829,1232.284
1830,1232.361
1831,1232.206
1832,1231.924
1833,1231.612
1834,1231.333
1835,1231.097
1836,1230.872
1837,1230.613
1838,1230.301
1839,1229.924
1840,1229.528
1841,1229.171
1842,1228.893
1843,1228.698
1844,1228.556
1845,1228.435
1846,1228.281
1847,1228.066
1848,1227.814
1849,1227.578
1850,1227.390
1851,1227.219
1852,1227.041
1853,1226.862
1854,1226.701
1855,1226.567
1856,1226.489
1857,1226.536
1858,1226.778
1859,1227.259
1860,1227.985
1861,1228.923
1862,1229.985
1863,1231.067
1864,1232.089
1865,1232.976
1866,1233.608
1867,1233.860
1868,1233.675
1869,1233.127
1870,1232.381
1871,1231.669
1872,1231.171
1873,1230.993
1874,1231.121
1875,1231.443
1876,1231.773
1877,1231.897
1878,1231.652
1879,1231.013
1880,1230.102
1881,1229.161
1882,1228.412
1883,1227.975
1884,1227.837
1885,1227.901
1886,1228.059
1887,1228.261
1888,1228.499
1889,1228.755
1890,1228.940
1891,1228.983
1892,1228.903
1893,1228.822
1894,1228.899
1895,1229.219
1896,1229.736
1897,1230.338
1898,1230.886
1899,1231.212
1900,1231.175
1901,1230.681
1902,1229.726
1903,1228.409
1904,1226.899
1905,1225.400
1906,1224.066
1907,1223.004
1908,1222.238
1909,1221.744
1910,1221.488
1911,1221.431
1912,1221.508
1913,1221.656
1914,1221.824
1915,1221.982
1916,1222.134
1917,1222.295
1918,1222.476
1919,1222.691
1920,1222.984
1921,1223.370
1922,1223.804
1923,1224.167
1924,1224.322
1925,1224.197
1926,1223.824
1927,1223.307
1928,1222.775
1929,1222.359
1930,1222.137
1931,1222.097
1932,1222.137
1933,1222.127
1934,1221.999
1935,1221.754
1936,1221.428
1937,1221.048
1938,1220.651
1939,1220.298
1940,1220.040
1941,1219.851
1942,1219.673
1943,1219.448
1944,1219.179
1945,1218.904
1946,1218.662
1947,1218.467
1948,1218.329
1949,1218.255
1950,1218.285
1951,1218.433
1952,1218.675
1953,1218.974
1954,1219.317
1955,1219.673
1956,1220.019
1957,1220.302
1958,1220.466
1959,1220.487
1960,1220.386
1961,1220.241
1962,1220.171
1963,1220.329
1964,1220.789
1965,1221.542
1966,1222.490
1967,1223.538
1968,1224.644
1969,1225.760
1970,1226.775
1971,1227.562
1972,1228.049
1973,1228.277
1974,1228.351
1975,1228.358
1976,1228.351
1977,1228.378
1978,1228.476
1979,1228.647
1980,1228.856
1981,1229.020
1982,1229.047
1983,1228.819
1984,1228.264
1985,1227.390
1986,1226.241
1987,1224.913
1988,1223.532
1989,1222.302
1990,1221.428
1991,1221.068
1992,1221.246
1993,1221.875
1994,1222.769
1995,1223.703
1996,1224.473
1997,1224.987
1998,1225.259
1999,1225.347
2000,1225.246
2001,1224.957
2002,1224.530
2003,1224.063
2004,1223.616
2005,1223.169
2006,1222.691
2007,1222.181
2008,1221.650
2009,1221.108
2010,1220.554
2011,1219.996
2012,1219.421
2013,1218.816
2014,1218.181
2015,1217.532
2016,1216.874
2017,1216.215
2018,1215.586
2019,1215.082
2020,1214.786
2021,1214.756
2022,1214.944
2023,1215.227
2024,1215.485
2025,1215.701
2026,1215.949
2027,1216.332
2028,1216.880
2029,1217.536
2030,1218.205
2031,1218.816
2032,1219.320
2033,1219.693
2034,1219.949
2035,1220.110
2036,1220.204
2037,1220.275
2038,1220.342
2039,1220.436
2040,1220.581
2041,1220.809
2042,1221.112
2043,1221.424
2044,1221.683
2045,1221.844
2046,1221.888
2047,1221.808
2048,1221.619
2049,1221.357
2050,1221.068
2051,1220.752
2052,1220.396
2053,1220.009
2054,1219.620
2055,1219.230
2056,1218.826
2057,1218.450
2058,1218.188
2059,1218.084
2060,1218.131
2061,1218.292
2062,1218.557
2063,1218.930
2064,1219.367
2065,1219.798
2066,1220.151
2067,1220.372
2068,1220.440
2069,1220.379
2070,1220.248
2071,1220.103
2072,1219.989
2073,1219.939
2074,1219.962
2075,1220.033
2076,1220.090
2077,1220.097
2078,1220.070
2079,1220.063
2080,1220.097
2081,1220.191
2082,1220.342
2083,1220.544
2084,1220.776
2085,1221.028
2086,1221.297
2087,1221.562
2088,1221.801
2089,1221.986
2090,1222.103
2091,1222.147
2092,1222.097
2093,1221.942
2094,1221.734
2095,1221.542
2096,1221.434
2097,1221.428
2098,1221.508
2099,1221.666
2100,1221.881
2101,1222.127
2102,1222.365
2103,1222.591
2104,1222.792
2105,1222.960
2106,1223.118
2107,1223.330
2108,1223.646
2109,1224.056
2110,1224.496
2111,1224.906
2112,1225.229
2113,1225.421
2114,1225.407
2115,1225.138
2116,1224.654
2117,1224.083
2118,1223.582
2119,1223.330
2120,1223.505
2121,1224.197
2122,1225.360
2123,1226.842
2124,1228.409
2125,1229.830
2126,1230.929
2127,1231.628
2128,1231.934
2129,1231.907
2130,1231.655
2131,1231.312
2132,1231.003
2133,1230.802
2134,1230.691
2135,1230.627
2136,1230.593
2137,1230.607
2138,1230.694
2139,1230.872
2140,1231.141
2141,1231.423
2142,1231.561
2143,1231.400
2144,1230.872
2145,1230.018
2146,1228.953
2147,1227.807
2148,1226.708
2149,1225.794
2150,1225.158
2151,1224.782
2152,1224.543
2153,1224.318
2154,1224.063
2155,1223.851
2156,1223.811
2157,1224.043
2158,1224.533
2159,1225.135
2160,1225.646
2161,1225.884
2162,1225.753
2163,1225.269
2164,1224.567
2165,1223.861
2166,1223.364
2167,1223.219
2168,1223.478
2169,1224.137
2170,1225.101
2171,1226.221
2172,1227.303
2173,1228.170
2174,1228.694
2175,1228.812
2176,1228.560
2177,1228.093
2178,1227.615
2179,1227.299
2180,1227.232
2181,1227.417
2182,1227.841
2183,1228.482
2184,1229.262
2185,1230.065
2186,1230.815
2187,1231.511
2188,1232.169
2189,1232.774
2190,1233.262
2191,1233.591
2192,1233.749
2193,1233.779
2194,1233.716
2195,1233.591
2196,1233.440
2197,1233.336
2198,1233.356
2199,1233.527
2200,1233.810
2201,1234.152
2202,1234.519
2203,1234.865
2204,1235.181
2205,1235.494
2206,1235.856
2207,1236.307
2208,1236.865
2209,1237.483
2210,1238.098
2211,1238.666
2212,1239.160
2213,1239.567
2214,1239.846
2215,1239.974
2216,1239.923
2217,1239.701
2218,1239.322
2219,1238.781
2220,1238.081
2221,1237.221
2222,1236.216
2223,1235.120
2224,1234.008
2225,1232.936
2226,1231.995
2227,1231.275
2228,1230.798
2229,1230.509
2230,1230.281
2231,1229.978
2232,1229.524
2233,1228.933
2234,1228.244
2235,1227.541
2236,1226.980
2237,1226.711
2238,1226.815
2239,1227.232
2240,1227.804
2241,1228.382
2242,1228.909
2243,1229.403
2244,1229.837
2245,1230.150
2246,1230.311
2247,1230.344
2248,1230.274
2249,1230.133
2250,1229.948
2251,1229.750
2252,1229.561
2253,1229.383
2254,1229.188
2255,1228.933
2256,1228.570
2257,1228.015
2258,1227.209
2259,1226.157
2260,1224.940
2261,1223.659
2262,1222.433
2263,1221.344
2264,1220.403
2265,1219.579
2266,1218.860
2267,1218.265
2268,1217.848
2269,1217.667
2270,1217.751
2271,1218.073
2272,1218.594
2273,1219.253
2274,1220.003
2275,1220.786
2276,1221.518
2277,1222.076
2278,1222.322
2279,1222.197
2280,1221.750
2281,1221.061
2282,1220.224
2283,1219.317
2284,1218.389
2285,1217.431
2286,1216.376
2287,1215.139
2288,1213.691
2289,1212.077
2290,1210.367
2291,1208.666
2292,1207.123
2293,1205.876
2294,1205.039
2295,1204.690
2296,1204.868
2297,1205.587
2298,1206.794
2299,1208.360
2300,1210.091
2301,1211.758
2302,1213.163
2303,1214.205
2304,1214.874
2305,1215.240
2306,1215.364
2307,1215.264
2308,1214.941
2309,1214.403
2310,1213.691
2311,1212.877
2312,1212.077
2313,1211.439
2314,1211.076
2315,1211.015
2316,1211.210
2317,1211.593
2318,1212.098
2319,1212.645
2320,1213.146
2321,1213.556
2322,1213.872
2323,1214.101
2324,1214.245
2325,1214.346
2326,1214.460
2327,1214.628
2328,1214.850
2329,1215.099
2330,1215.351
2331,1215.586
2332,1215.778
2333,1215.932
2334,1216.111
2335,1216.400
2336,1216.800
2337,1217.257
2338,1217.737
2339,1218.221
2340,1218.668
2341,1219.055
2342,1219.425
2343,1219.848
2344,1220.356
2345,1220.947
2346,1221.545
2347,1222.033
2348,1222.291
2349,1222.244
2350,1221.885
2351,1221.300
2352,1220.611
2353,1219.939
2354,1219.388
2355,1219.011
2356,1218.816
2357,1218.776
2358,1218.863
2359,1219.072
2360,1219.408
2361,1219.888
2362,1220.544
2363,1221.367
2364,1222.295
2365,1223.209
2366,1223.989
2367,1224.527
2368,1224.721
2369,1224.516
2370,1223.965
2371,1223.222
2372,1222.490
2373,1221.952
2374,1221.750
2375,1221.972
2376,1222.658
2377,1223.780
2378,1225.232
2379,1226.852
2380,1228.462
2381,1229.965
2382,1231.353
2383,1232.620
2384,1233.716
2385,1234.569
2386,1235.151
2387,1235.517
2388,1235.796
2389,1236.135
2390,1236.623
2391,1237.231
2392,1237.890
2393,1238.559
2394,1239.238
2395,1239.930
2396,1240.626
2397,1241.301
2398,1241.916
2399,1242.437
2400,1242.874
2401,1243.291
2402,1243.731
2403,1244.202
2404,1244.642
2405,1244.988
2406,1245.274
2407,1245.624
2408,1246.185
2409,1247.049
2410,1248.195
2411,1249.472
2412,1250.648
2413,1251.495
2414,1251.875
2415,1251.791
2416,1251.327
2417,1250.591
2418,1249.657
2419,1248.615
2420,1247.563
2421,1246.571
2422,1245.697
2423,1244.992
2424,1244.464
2425,1244.111
2426,1243.913
2427,1243.872
2428,1243.967
2429,1244.135
2430,1244.326
2431,1244.457
2432,1244.380
2433,1243.977
2434,1243.214
2435,1242.148
2436,1240.871
2437,1239.473
2438,1238.058
2439,1236.714
2440,1235.514
2441,1234.455
2442,1233.453
2443,1232.408
2444,1231.286
2445,1230.126
2446,1228.970
2447,1227.830
2448,1226.711
2449,1225.595
2450,1224.486
2451,1223.407
2452,1222.379
2453,1221.428
2454,1220.598
2455,1219.912
2456,1219.378
2457,1218.984
2458,1218.749
2459,1218.658
2460,1218.648
2461,1218.638
2462,1218.561
2463,1218.406
2464,1218.198
2465,1217.942
2466,1217.663
2467,1217.425
2468,1217.267
2469,1217.220
2470,1217.287
2471,1217.475
2472,1217.768
2473,1218.127
2474,1218.500
2475,1218.833
2476,1219.109
2477,1219.317
2478,1219.458
2479,1219.529
2480,1219.535
2481,1219.505
2482,1219.475
2483,1219.492
2484,1219.583
2485,1219.774
2486,1220.063
2487,1220.430
2488,1220.850
2489,1221.317
2490,1221.834
2491,1222.399
2492,1222.960
2493,1223.431
2494,1223.720
2495,1223.770
2496,1223.535
2497,1222.987
2498,1222.130
2499,1220.991
2500,1219.623
2501,1218.097
2502,1216.504
2503,1214.954
2504,1213.546
2505,1212.343
2506,1211.382
2507,1210.673
2508,1210.212
2509,1210.017
2510,1210.128
2511,1210.595
2512,1211.409
2513,1212.504
2514,1213.761
2515,1215.025
2516,1216.141
2517,1216.971
2518,1217.408
2519,1217.405
2520,1217.011
2521,1216.383
2522,1215.727
2523,1215.217
2524,1214.938
2525,1214.904
2526,1215.062
2527,1215.304
2528,1215.499
2529,1215.563
2530,1215.452
2531,1215.163
2532,1214.759
2533,1214.366
2534,1214.087
2535,1213.963
2536,1213.953
2537,1213.997
2538,1214.087
2539,1214.259
2540,1214.521
2541,1214.823
2542,1215.092
2543,1215.267
2544,1215.284
2545,1215.065
2546,1214.598
2547,1213.966
2548,1213.321
2549,1212.807
2550,1212.498
2551,1212.370
2552,1212.336
2553,1212.289
2554,1212.205
2555,1212.111
2556,1212.027
2557,1211.923
2558,1211.765
2559,1211.577
2560,1211.449
2561,1211.476
2562,1211.745
2563,1212.286
2564,1213.055
2565,1213.909
2566,1214.642
2567,1215.055
2568,1215.015
2569,1214.504
2570,1213.573
2571,1212.336
2572,1210.901
2573,1209.385
2574,1207.953
2575,1206.811
2576,1206.135
2577,1206.021
2578,1206.475
2579,1207.419
2580,1208.720
2581,1210.215
2582,1211.701
2583,1213.002
2584,1214.037
2585,1214.837
2586,1215.499
2587,1216.114
2588,1216.763
2589,1217.489
2590,1218.289
2591,1219.102
2592,1219.861
2593,1220.557
2594,1221.263
2595,1222.063
2596,1222.987
2597,1224.026
2598,1225.148
2599,1226.311
2600,1227.441
2601,1228.499
2602,1229.514
2603,1230.492
2604,1231.356
2605,1231.985
2606,1232.277
2607,1232.193
2608,1231.739
2609,1230.996
2610,1230.106
2611,1229.245
2612,1228.550
2613,1228.039
2614,1227.666
2615,1227.340
2616,1226.946
2617,1226.338
2618,1225.390
2619,1224.086
2620,1222.537
2621,1220.930
2622,1219.458
2623,1218.302
2624,1217.600
2625,1217.442
2626,1217.838
2627,1218.715
2628,1219.949
2629,1221.360
2630,1222.728
2631,1223.848
2632,1224.614
2633,1225.054
2634,1225.266
2635,1225.320
2636,1225.263
2637,1225.132
2638,1224.947
2639,1224.691
2640,1224.338
2641,1223.908
2642,1223.454
2643,1223.014
2644,1222.594
2645,1222.194
2646,1221.868
2647,1221.720
2648,1221.818
2649,1222.147
2650,1222.651
2651,1223.296
2652,1224.046
2653,1224.809
2654,1225.434
2655,1225.810
2656,1225.925
2657,1225.894
2658,1225.905
2659,1226.106
2660,1226.547
2661,1227.118
2662,1227.656
2663,1228.015
2664,1228.153
2665,1228.069
2666,1227.787
2667,1227.336
2668,1226.805
2669,1226.288
2670,1225.851
2671,1225.545
2672,1225.380
2673,1225.296
2674,1225.195
2675,1225.034
2676,1224.792
2677,1224.459
2678,1224.016
2679,1223.481
2680,1222.893
2681,1222.261
2682,1221.572
2683,1220.813
2684,1219.959
2685,1219.028
2686,1218.060
2687,1217.116
2688,1216.225
2689,1215.422
2690,1214.716
2691,1214.111
2692,1213.603
2693,1213.176
2694,1212.800
2695,1212.477
2696,1212.256
2697,1212.161
2698,1212.195
2699,1212.353
2700,1212.615
2701,1212.911
2702,1213.133
2703,1213.213
2704,1213.119
2705,1212.857
2706,1212.467
2707,1212.014
2708,1211.567
2709,1211.200
2710,1210.978
2711,1210.925
2712,1211.032
2713,1211.294
2714,1211.704
2715,1212.249
2716,1212.891
2717,1213.566
2718,1214.215
2719,1214.783
2720,1215.240
2721,1215.603
2722,1215.899
2723,1216.168
2724,1216.396
2725,1216.551
2726,1216.605
2727,1216.591
2728,1216.554
2729,1216.507
2730,1216.447
2731,1216.359
2732,1216.235
2733,1216.101
2734,1216.013
2735,1215.986
2736,1215.996
2737,1216.020
2738,1216.067
2739,1216.158
2740,1216.329
2741,1216.595
2742,1216.968
2743,1217.381
2744,1217.714
2745,1217.845
2746,1217.717
2747,1217.344
2748,1216.783
2749,1216.141
2750,1215.553
2751,1215.133
2752,1214.961
2753,1215.055
2754,1215.388
2755,1215.902
2756,1216.507
2757,1217.109
2758,1217.623
2759,1218.006
2760,1218.252
2761,1218.399
2762,1218.497
2763,1218.568
2764,1218.584
2765,1218.494
2766,1218.238
2767,1217.784
2768,1217.149
2769,1216.406
2770,1215.667
2771,1215.022
2772,1214.494
2773,1214.054
2774,1213.664
2775,1213.297
2776,1212.955
2777,1212.669
2778,1212.487
2779,1212.410
2780,1212.350
2781,1212.225
2782,1212.044
2783,1211.839
2784,1211.674
2785,1211.657
2786,1211.889
2787,1212.430
2788,1213.240
2789,1214.185
2790,1215.059
2791,1215.677
2792,1215.969
2793,1215.976
2794,1215.808
2795,1215.536
2796,1215.180
2797,1214.783
2798,1214.474
2799,1214.343
2800,1214.380
2801,1214.450
2802,1214.430
2803,1214.276
2804,1214.050
2805,1213.852
2806,1213.728
2807,1213.681
2808,1213.728
2809,1213.936
2810,1214.366
2811,1215.008
2812,1215.775
2813,1216.548
2814,1217.210
2815,1217.663
2816,1217.862
2817,1217.821
2818,1217.556
2819,1217.062
2820,1216.376
2821,1215.606
2822,1214.891
2823,1214.349
2824,1214.070
2825,1214.124
2826,1214.497
2827,1215.075
2828,1215.647
2829,1215.973
2830,1215.906
2831,1215.438
2832,1214.686
2833,1213.842
2834,1213.103
2835,1212.565
2836,1212.239
2837,1212.051
2838,1211.906
2839,1211.741
2840,1211.573
2841,1211.469
2842,1211.503
2843,1211.748
2844,1212.222
2845,1212.908
2846,1213.734
2847,1214.605
2848,1215.388
2849,1215.943
2850,1216.201
2851,1216.195
2852,1216.023
2853,1215.811
2854,1215.687
2855,1215.748
2856,1216.000
2857,1216.353
2858,1216.655
2859,1216.779
2860,1216.675
2861,1216.430
2862,1216.222
2863,1216.238
2864,1216.571
2865,1217.203
2866,1218.003
2867,1218.762
2868,1219.277
2869,1219.418
2870,1219.179
2871,1218.672
2872,1218.067
2873,1217.532
2874,1217.156
2875,1216.914
2876,1216.779
2877,1216.746
2878,1216.816
2879,1216.961
2880,1217.179
2881,1217.468
2882,1217.771
2883,1217.983
2884,1217.969
2885,1217.660
2886,1217.102
2887,1216.470
2888,1215.993
2889,1215.832
2890,1216.013
2891,1216.470
2892,1217.099
2893,1217.825
2894,1218.588
2895,1219.314
2896,1219.946
2897,1220.470
2898,1220.863
2899,1221.078
2900,1221.082
2901,1220.903
2902,1220.645
2903,1220.372
2904,1220.097
2905,1219.794
2906,1219.451
2907,1219.068
2908,1218.645
2909,1218.211
2910,1217.811
2911,1217.499
2912,1217.341
2913,1217.368
2914,1217.576
2915,1217.936
2916,1218.403
2917,1218.927
2918,1219.448
2919,1219.885
2920,1220.181
2921,1220.319
2922,1220.322
2923,1220.218
2924,1220.040
2925,1219.828
2926,1219.609
2927,1219.411
2928,1219.250
2929,1219.122
2930,1219.018
2931,1218.900
2932,1218.689
2933,1218.299
2934,1217.687
2935,1216.843
2936,1215.822
2937,1214.733
2938,1213.701
2939,1212.797
2940,1212.003
2941,1211.277
2942,1210.632
2943,1210.115
2944,1209.731
2945,1209.422
2946,1209.086
2947,1208.666
2948,1208.185
2949,1207.748
2950,1207.483
2951,1207.500
2952,1207.826
2953,1208.414
2954,1209.120
2955,1209.765
2956,1210.199
2957,1210.367
2958,1210.293
2959,1210.071
2960,1209.768
2961,1209.402
2962,1208.955
2963,1208.454
2964,1207.967
2965,1207.564
2966,1207.301
2967,1207.238
2968,1207.392
2969,1207.755
2970,1208.279
2971,1208.878
2972,1209.456
2973,1209.947
2974,1210.313
2975,1210.572
2976,1210.763
2977,1210.911
2978,1211.012
2979,1211.046
2980,1211.012
2981,1210.935
2982,1210.878
2983,1210.888
2984,1210.965
2985,1211.123
2986,1211.395
2987,1211.849
2988,1212.508
2989,1213.341
2990,1214.289
2991,1215.348
2992,1216.568
2993,1217.946
2994,1219.374
2995,1220.658
2996,1221.650
2997,1222.288
2998,1222.614
2999,1222.722
3000,1222.708
3001,1222.604
3002,1222.406
3003,1222.150
3004,1221.898
3005,1221.666
3006,1221.408
3007,1221.088
3008,1220.702
3009,1220.275
3010,1219.858
3011,1219.492
3012,1219.206
3013,1219.004
3014,1218.877
3015,1218.789
3016,1218.699
3017,1218.581
3018,1218.453
3019,1218.315
3020,1218.168
3021,1218.013
3022,1217.872
3023,1217.784
3024,1217.778
3025,1217.825
3026,1217.858
3027,1217.798
3028,1217.579
3029,1217.183
3030,1216.645
3031,1216.043
3032,1215.469
3033,1215.022
3034,1214.773
3035,1214.780
3036,1215.018
3037,1215.381
3038,1215.711
3039,1215.909
3040,1215.912
3041,1215.664
3042,1215.096
3043,1214.181
3044,1212.908
3045,1211.277
3046,1209.355
3047,1207.305
3048,1205.362
3049,1203.745
3050,1202.583
3051,1201.924
3052,1201.766
3053,1202.068
3054,1202.764
3055,1203.759
3056,1204.918
3057,1206.115
3058,1207.231
3059,1208.195
3060,1209.005
3061,1209.721
3062,1210.420
3063,1211.136
3064,1211.819
3065,1212.340
3066,1212.595
3067,1212.571
3068,1212.326
3069,1211.950
3070,1211.513
3071,1211.005
3072,1210.367
3073,1209.570
3074,1208.720
3075,1207.974
3076,1207.443
3077,1207.117
3078,1206.898
3079,1206.713
3080,1206.562
3081,1206.491
3082,1206.481
3083,1206.454
3084,1206.333
3085,1206.132
3086,1205.873
3087,1205.547
3088,1205.113
3089,1204.603
3090,1204.119
3091,1203.759
3092,1203.567
3093,1203.547
3094,1203.709
3095,1204.041
3096,1204.519
3097,1205.070
3098,1205.621
3099,1206.125
3100,1206.592
3101,1207.043
3102,1207.493
3103,1207.953
3104,1208.424
3105,1208.905
3106,1209.372
3107,1209.815
3108,1210.259
3109,1210.753
3110,1211.318
3111,1211.960
3112,1212.645
3113,1213.314
3114,1213.913
3115,1214.444
3116,1214.991
3117,1215.660
3118,1216.497
3119,1217.405
3120,1218.211
3121,1218.742
3122,1218.883
3123,1218.574
3124,1217.828
3125,1216.695
3126,1215.284
3127,1213.744
3128,1212.249
3129,1210.955
3130,1209.977
3131,1209.368
3132,1209.100
3133,1209.059
3134,1209.096
3135,1209.126
3136,1209.140
3137,1209.130
3138,1209.120
3139,1209.137
3140,1209.200
3141,1209.308
3142,1209.429
3143,1209.523
3144,1209.563
3145,1209.547
3146,1209.506
3147,1209.520
3148,1209.691
3149,1210.135
3150,1210.918
3151,1212.024
3152,1213.304
3153,1214.531
3154,1215.529
3155,1216.228
3156,1216.648
3157,1216.863
3158,1216.941
3159,1216.974
3160,1217.055
3161,1217.253
3162,1217.573
3163,1217.959
3164,1218.352
3165,1218.729
3166,1219.088
3167,1219.451
3168,1219.865
3169,1220.386
3170,1221.065
3171,1221.965
3172,1223.115
3173,1224.466
3174,1225.894
3175,1227.242
3176,1228.375
3177,1229.252
3178,1229.908
3179,1230.428
3180,1230.912
3181,1231.440
3182,1232.032
3183,1232.657
3184,1233.302
3185,1233.971
3186,1234.647
3187,1235.221
3188,1235.571
3189,1235.645
3190,1235.483
3191,1235.181
3192,1234.808
3193,1234.472
3194,1234.314
3195,1234.458
3196,1234.919
3197,1235.615
3198,1236.425
3199,1237.211
3200,1237.813
3201,1238.085
3202,1237.957
3203,1237.403
3204,1236.438
3205,1235.164
3206,1233.742
3207,1232.344
3208,1231.077
3209,1229.961
3210,1228.990
3211,1228.160
3212,1227.447
3213,1226.819
3214,1226.217
3215,1225.582
3216,1224.869
3217,1224.063
3218,1223.169
3219,1222.224
3220,1221.236
3221,1220.211
3222,1219.216
3223,1218.369
3224,1217.747
3225,1217.358
3226,1217.179
3227,1217.206
3228,1217.452
3229,1217.895
3230,1218.477
3231,1219.105
3232,1219.704
3233,1220.208
3234,1220.547
3235,1220.645
3236,1220.473
3237,1220.030
3238,1219.320
3239,1218.362
3240,1217.189
3241,1215.845
3242,1214.397
3243,1212.931
3244,1211.563
3245,1210.394
3246,1209.479
3247,1208.811
3248,1208.320
3249,1207.920
3250,1207.584
3251,1207.345
3252,1207.234
3253,1207.214
3254,1207.211
3255,1207.184
3256,1207.177
3257,1207.298
3258,1207.627
3259,1208.162
3260,1208.817
3261,1209.469
3262,1209.994
3263,1210.350
3264,1210.622
3265,1210.968
3266,1211.503
3267,1212.212
3268,1212.955
3269,1213.553
3270,1213.909
3271,1214.054
3272,1214.094
3273,1214.104
3274,1214.101
3275,1214.050
3276,1213.923
3277,1213.687
3278,1213.338
3279,1212.911
3280,1212.464
3281,1212.081
3282,1211.829
3283,1211.768
3284,1211.943
3285,1212.380
3286,1213.055
3287,1213.906
3288,1214.854
3289,1215.822
3290,1216.736
3291,1217.589
3292,1218.410
3293,1219.216
3294,1219.999
3295,1220.732
3296,1221.360
3297,1221.824
3298,1222.073
3299,1222.080
3300,1221.855
3301,1221.451
3302,1220.977
3303,1220.547
3304,1220.245
3305,1220.060
3306,1219.915
3307,1219.730
3308,1219.445
3309,1219.031
3310,1218.467
3311,1217.754
3312,1216.914
3313,1215.996
3314,1215.055
3315,1214.134
3316,1213.250
3317,1212.400
3318,1211.630
3319,1211.046
3320,1210.757
3321,1210.820
3322,1211.241
3323,1212.003
3324,1213.035
3325,1214.208
3326,1215.344
3327,1216.265
3328,1216.816
3329,1216.863
3330,1216.319
3331,1215.190
3332,1213.630
3333,1211.872
3334,1210.178
3335,1208.720
3336,1207.577
3337,1206.747
3338,1206.196
3339,1205.910
3340,1205.890
3341,1206.149
3342,1206.666
3343,1207.379
3344,1208.172
3345,1208.928
3346,1209.567
3347,1210.047
3348,1210.357
3349,1210.478
3350,1210.457
3351,1210.410
3352,1210.434
3353,1210.558
3354,1210.696
3355,1210.730
3356,1210.582
3357,1210.259
3358,1209.836
3359,1209.375
3360,1208.932
3361,1208.562
3362,1208.313
3363,1208.202
3364,1208.206
3365,1208.276
3366,1208.411
3367,1208.619
3368,1208.861
3369,1209.069
3370,1209.217
3371,1209.335
3372,1209.439
3373,1209.476
3374,1209.368
3375,1209.086
3376,1208.679
3377,1208.239
3378,1207.843
3379,1207.540
3380,1207.409
3381,1207.540
3382,1207.930
3383,1208.471
3384,1209.019
3385,1209.456
3386,1209.731
3387,1209.839
3388,1209.819
3389,1209.789
3390,1209.883
3391,1210.189
3392,1210.689
3393,1211.267
3394,1211.795
3395,1212.195
3396,1212.474
3397,1212.676
3398,1212.844
3399,1213.002
3400,1213.143
3401,1213.250
3402,1213.321
3403,1213.351
3404,1213.294
3405,1213.113
3406,1212.827
3407,1212.484
3408,1212.111
3409,1211.711
3410,1211.281
3411,1210.830
3412,1210.367
3413,1209.923
3414,1209.563
3415,1209.358
3416,1209.365
3417,1209.641
3418,1210.226
3419,1211.136
3420,1212.340
3421,1213.765
3422,1215.280
3423,1216.766
3424,1218.144
3425,1219.378
3426,1220.460
3427,1221.387
3428,1222.197
3429,1222.933
3430,1223.626
3431,1224.227
3432,1224.661
3433,1224.906
3434,1225.031
3435,1225.111
3436,1225.182
3437,1225.209
3438,1225.189
3439,1225.195
3440,1225.316
3441,1225.589
3442,1226.005
3443,1226.547
3444,1227.162
3445,1227.740
3446,1228.193
3447,1228.482
3448,1228.593
3449,1228.516
3450,1228.200
3451,1227.615
3452,1226.762
3453,1225.700
3454,1224.537
3455,1223.407
3456,1222.466
3457,1221.838
3458,1221.562
3459,1221.576
3460,1221.713
3461,1221.791
3462,1221.670
3463,1221.276
3464,1220.598
3465,1219.683
3466,1218.625
3467,1217.552
3468,1216.568
3469,1215.727
3470,1215.052
3471,1214.518
3472,1214.067
3473,1213.647
3474,1213.237
3475,1212.864
3476,1212.551
3477,1212.336
3478,1212.239
3479,1212.245
3480,1212.326
3481,1212.450
3482,1212.619
3483,1212.881
3484,1213.291
3485,1213.906
3486,1214.743
3487,1215.798
3488,1217.015
3489,1218.262
3490,1219.310
3491,1219.935
3492,1219.976
3493,1219.378
3494,1218.208
3495,1216.662
3496,1215.015
3497,1213.553
3498,1212.491
3499,1211.933
3500,1211.896
3501,1212.329
3502,1213.150
3503,1214.225
3504,1215.375
3505,1216.396
3506,1217.116
3507,1217.485
3508,1217.569
3509,1217.472
3510,1217.260
3511,1216.961
3512,1216.645
3513,1216.383
3514,1216.198
3515,1216.020
3516,1215.771
3517,1215.405
3518,1214.904
3519,1214.239
3520,1213.418
3521,1212.545
3522,1211.778
3523,1211.308
3524,1211.267
3525,1211.748
3526,1212.777
3527,1214.339
3528,1216.359
3529,1218.678
3530,1221.075
3531,1223.320
3532,1225.259
3533,1226.862
3534,1228.207
3535,1229.407
3536,1230.533
3537,1231.595
3538,1232.553
3539,1233.349
3540,1233.944
3541,1234.317
3542,1234.478
3543,1234.462
3544,1234.327
3545,1234.152
3546,1233.998
3547,1233.853
3548,1233.625
3549,1233.225
3550,1232.616
3551,1231.820
3552,1230.879
3553,1229.844
3554,1228.738
3555,1227.578
3556,1226.419
3557,1225.343
3558,1224.419
3559,1223.683
3560,1223.142
3561,1222.769
3562,1222.513
3563,1222.328
3564,1222.197
3565,1222.056
3566,1221.797
3567,1221.350
3568,1220.735
3569,1220.019
3570,1219.246
3571,1218.393
3572,1217.418
3573,1216.366
3574,1215.364
3575,1214.554
3576,1213.993
3577,1213.630
3578,1213.385
3579,1213.187
3580,1212.978
3581,1212.740
3582,1212.457
3583,1212.131
3584,1211.748
3585,1211.288
3586,1210.696
3587,1209.947
3588,1209.103
3589,1208.249
3590,1207.426
3591,1206.623
3592,1205.873
3593,1205.281
3594,1204.955
3595,1204.949
3596,1205.218
3597,1205.688
3598,1206.270
3599,1206.881
3600,1207.429
3601,1207.846
3602,1208.115
3603,1208.229
3604,1208.209
3605,1208.128
3606,1208.074
3607,1208.101
3608,1208.185
3609,1208.239
3610,1208.132
3611,1207.782
3612,1207.211
3613,1206.522
3614,1205.813
3615,1205.093
3616,1204.340
3617,1203.561
3618,1202.821
3619,1202.179
3620,1201.695
3621,1201.433
3622,1201.457
3623,1201.729
3624,1202.112
3625,1202.445
3626,1202.636
3627,1202.700
3628,1202.744
3629,1202.922
3630,1203.362
3631,1204.072
3632,1204.966
3633,1205.917
3634,1206.814
3635,1207.594
3636,1208.212
3637,1208.622
3638,1208.780
3639,1208.679
3640,1208.367
3641,1207.916
3642,1207.439
3643,1207.049
3644,1206.844
3645,1206.861
3646,1207.096
3647,1207.533
3648,1208.158
3649,1208.942
3650,1209.812
3651,1210.649
3652,1211.338
3653,1211.809
3654,1212.027
3655,1212.040
3656,1211.956
3657,1211.936
3658,1212.118
3659,1212.528
3660,1213.062
3661,1213.576
3662,1213.963
3663,1214.191
3664,1214.272
3665,1214.262
3666,1214.202
3667,1214.081
3668,1213.852
3669,1213.452
3670,1212.867
3671,1212.135
3672,1211.338
3673,1210.609
3674,1210.088
3675,1209.886
3676,1210.034
3677,1210.474
3678,1211.072
3679,1211.667
3680,1212.168
3681,1212.585
3682,1212.988
3683,1213.415
3684,1213.832
3685,1214.178
3686,1214.444
3687,1214.679
3688,1214.944
3689,1215.267
3690,1215.637
3691,1216.053
3692,1216.534
3693,1217.126
3694,1217.862
3695,1218.766
3696,1219.835
3697,1221.034
3698,1222.305
3699,1223.515
3700,1224.510
3701,1225.179
3702,1225.491
3703,1225.515
3704,1225.380
3705,1225.226
3706,1225.182
3707,1225.360
3708,1225.858
3709,1226.735
3710,1228.005
3711,1229.629
3712,1231.511
3713,1233.477
3714,1235.346
3715,1237.023
3716,1238.488
3717,1239.765
3718,1240.844
3719,1241.708
3720,1242.326
3721,1242.673
3722,1242.757
3723,1242.636
3724,1242.390
3725,1242.131
3726,1241.940
3727,1241.799
3728,1241.621
3729,1241.348
3730,1240.979
3731,1240.528
3732,1240.088
3733,1239.762
3734,1239.624
3735,1239.634
3736,1239.735
3737,1239.917
3738,1240.276
3739,1240.908
3740,1241.802
3741,1242.797
3742,1243.647
3743,1244.131
3744,1244.114
3745,1243.536
3746,1242.421
3747,1240.885
3748,1239.133
3749,1237.426
3750,1236.008
3751,1235.033
3752,1234.515
3753,1234.368
3754,1234.428
3755,1234.549
3756,1234.636
3757,1234.653
3758,1234.539
3759,1234.210
3760,1233.628
3761,1232.835
3762,1231.931
3763,1231.010
3764,1230.133
3765,1229.326
3766,1228.580
3767,1227.864
3768,1227.158
3769,1226.483
3770,1225.831
3771,1225.158
3772,1224.432
3773,1223.639
3774,1222.799
3775,1221.959
3776,1221.169
3777,1220.480
3778,1219.922
3779,1219.505
3780,1219.206
3781,1218.981
3782,1218.783
3783,1218.588
3784,1218.352
3785,1218.033
3786,1217.647
3787,1217.250
3788,1216.907
3789,1216.665
3790,1216.578
3791,1216.692
3792,1216.954
3793,1217.223
3794,1217.354
3795,1217.260
3796,1216.951
3797,1216.484
3798,1215.946
3799,1215.422
3800,1214.954
3801,1214.568
3802,1214.272
3803,1214.057
3804,1213.933
3805,1213.879
3806,1213.879
3807,1213.929
3808,1214.037
3809,1214.155
3810,1214.195
3811,1214.131
3812,1213.973
3813,1213.728
3814,1213.408
3815,1213.062
3816,1212.763
3817,1212.592
3818,1212.585
3819,1212.750
3820,1213.092
3821,1213.587
3822,1214.131
3823,1214.565
3824,1214.756
3825,1214.638
3826,1214.188
3827,1213.425
3828,1212.454
3829,1211.425
3830,1210.474
3831,1209.684
3832,1209.073
3833,1208.653
3834,1208.464
3835,1208.538
3836,1208.837
3837,1209.271
3838,1209.762
3839,1210.279
3840,1210.770
3841,1211.133
3842,1211.277
3843,1211.190
3844,1210.908
3845,1210.457
3846,1209.846
3847,1209.143
3848,1208.495
3849,1208.051
3850,1207.883
3851,1207.933
3852,1208.051
3853,1208.024
3854,1207.688
3855,1206.969
3856,1205.907
3857,1204.633
3858,1203.329
3859,1202.149
3860,1201.188
3861,1200.455
3862,1199.901
3863,1199.447
3864,1199.047
3865,1198.691
3866,1198.428
3867,1198.331
3868,1198.479
3869,1198.949
3870,1199.783
3871,1200.926
3872,1202.193
3873,1203.339
3874,1204.176
3875,1204.640
3876,1204.797
3877,1204.747
3878,1204.599
3879,1204.492
3880,1204.582
3881,1204.999
3882,1205.786
3883,1206.945
3884,1208.458
3885,1210.279
3886,1212.346
3887,1214.548
3888,1216.756
3889,1218.860
3890,1220.806
3891,1222.577
3892,1224.150
3893,1225.508
3894,1226.644
3895,1227.558
3896,1228.261
3897,1228.751
3898,1229.037
3899,1229.168
3900,1229.249
3901,1229.393
3902,1229.649
3903,1229.995
3904,1230.445
3905,1230.993
3906,1231.554
3907,1231.991
3908,1232.200
3909,1232.173
3910,1231.968
3911,1231.659
3912,1231.329
3913,1231.044
3914,1230.815
3915,1230.630
3916,1230.553
3917,1230.718
3918,1231.259
3919,1232.200
3920,1233.410
3921,1234.670
3922,1235.746
3923,1236.441
3924,1236.650
3925,1236.344
3926,1235.564
3927,1234.408
3928,1233.016
3929,1231.561
3930,1230.237
3931,1229.212
3932,1228.580
3933,1228.324
3934,1228.345
3935,1228.462
3936,1228.496
3937,1228.328
3938,1227.978
3939,1227.521
3940,1226.980
3941,1226.331
3942,1225.572
3943,1224.772
3944,1224.032
3945,1223.434
3946,1223.024
3947,1222.816
3948,1222.762
3949,1222.775
3950,1222.742
3951,1222.554
3952,1222.187
3953,1221.727
3954,1221.334
3955,1221.162
3956,1221.344
3957,1221.935
3958,1222.920
3959,1224.204
3960,1225.622
3961,1226.994
3962,1228.224
3963,1229.316
3964,1230.287
3965,1231.141
3966,1231.901
3967,1232.653
3968,1233.470
3969,1234.391
3970,1235.406
3971,1236.455
3972,1237.403
3973,1238.159
3974,1238.710
3975,1239.107
3976,1239.399
3977,1239.624
3978,1239.796
3979,1239.896
3980,1239.903
3981,1239.796
3982,1239.574
3983,1239.261
3984,1238.905
3985,1238.535
3986,1238.165
3987,1237.782
3988,1237.335
3989,1236.744
3990,1235.951
3991,1234.956
3992,1233.763
3993,1232.368
3994,1230.812
3995,1229.229
3996,1227.760
3997,1226.493
3998,1225.474
3999,1224.745
4000,1224.332
4001,1224.231
4002,1224.382
4003,1224.695
4004,1225.061
4005,1225.370
4006,1225.525
4007,1225.478
4008,1225.229
4009,1224.806
4010,1224.254
4011,1223.582
4012,1222.755
4013,1221.754
4014,1220.621
4015,1219.455
4016,1218.309
4017,1217.142
4018,1215.912
4019,1214.662
4020,1213.533
4021,1212.689
4022,1212.249
4023,1212.225
4024,1212.545
4025,1213.039
4026,1213.516
4027,1213.869
4028,1214.111
4029,1214.339
4030,1214.625
4031,1215.012
4032,1215.496
4033,1216.023
4034,1216.494
4035,1216.823
4036,1216.988
4037,1217.025
4038,1217.005
4039,1216.981
4040,1216.991
4041,1217.038
4042,1217.109
4043,1217.166
4044,1217.189
4045,1217.203
4046,1217.247
4047,1217.351
4048,1217.512
4049,1217.731
4050,1218.006
4051,1218.349
4052,1218.776
4053,1219.297
4054,1219.898
4055,1220.550
4056,1221.209
4057,1221.844
4058,1222.449
4059,1223.007
4060,1223.491
4061,1223.908
4062,1224.318
4063,1224.772
4064,1225.266
4065,1225.747
4066,1226.217
4067,1226.758
4068,1227.437
4069,1228.271
4070,1229.239
4071,1230.267
4072,1231.282
4073,1232.233
4074,1233.070
4075,1233.702
4076,1234.045
4077,1234.058
4078,1233.756
4079,1233.161
4080,1232.294
4081,1231.222
4082,1230.065
4083,1228.913
4084,1227.814
4085,1226.829
4086,1226.012
4087,1225.400
4088,1225.004
4089,1224.802
4090,1224.765
4091,1224.856
4092,1225.041
4093,1225.263
4094,1225.478
4095,1225.646
4096,1225.743
4097,1225.757
4098,1225.696
4099,1225.582
4100,1225.437
4101,1225.273
4102,1225.078
4103,1224.849
4104,1224.590
4105,1224.311
4106,1224.019
4107,1223.727
4108,1223.438
4109,1223.138
4110,1222.765
4111,1222.251
4112,1221.579
4113,1220.792
4114,1220.006
4115,1219.330
4116,1218.833
4117,1218.524
4118,1218.369
4119,1218.305
4120,1218.238
4121,1218.110
4122,1217.936
4123,1217.805
4124,1217.818
4125,1218.036
4126,1218.430
4127,1218.927
4128,1219.482
4129,1220.114
4130,1220.813
4131,1221.498
4132,1222.026
4133,1222.298
4134,1222.275
4135,1221.976
4136,1221.431
4137,1220.661
4138,1219.714
4139,1218.678
4140,1217.680
4141,1216.816
4142,1216.148
4143,1215.687
4144,1215.381
4145,1215.089
4146,1214.672
4147,1214.070
4148,1213.341
4149,1212.612
4150,1212.003
4151,1211.617
4152,1211.533
4153,1211.792
4154,1212.340
4155,1213.042
4156,1213.751
4157,1214.400
4158,1215.015
4159,1215.643
4160,1216.285
4161,1216.880
4162,1217.384
4163,1217.821
4164,1218.225
4165,1218.611
4166,1218.967
4167,1219.283
4168,1219.529
4169,1219.714
4170,1219.882
4171,1220.060
4172,1220.235
4173,1220.382
4174,1220.483
4175,1220.503
4176,1220.423
4177,1220.255
4178,1220.070
4179,1219.912
4180,1219.757
4181,1219.535
4182,1219.199
4183,1218.746
4184,1218.228
4185,1217.734
4186,1217.354
4187,1217.179
4188,1217.240
4189,1217.452
4190,1217.630
4191,1217.610
4192,1217.300
4193,1216.682
4194,1215.754
4195,1214.538
4196,1213.133
4197,1211.684
4198,1210.353
4199,1209.234
4200,1208.364
4201,1207.725
4202,1207.298
4203,1207.090
4204,1207.127
4205,1207.436
4206,1208.027
4207,1208.878
4208,1209.933
4209,1211.113
4210,1212.333
4211,1213.550
4212,1214.719
4213,1215.758
4214,1216.568
4215,1217.109
4216,1217.428
4217,1217.576
4218,1217.566
4219,1217.398
4220,1217.122
4221,1216.833
4222,1216.632
4223,1216.564
4224,1216.645
4225,1216.863
4226,1217.163
4227,1217.468
4228,1217.761
4229,1218.070
4230,1218.430
4231,1218.867
4232,1219.411
4233,1220.056
4234,1220.745
4235,1221.424
4236,1222.036
4237,1222.533
4238,1222.876
4239,1223.028
4240,1222.933
4241,1222.564
4242,1221.989
4243,1221.364
4244,1220.870
4245,1220.648
4246,1220.776
4247,1221.250
4248,1222.009
4249,1222.994
4250,1224.177
4251,1225.542
4252,1227.007
4253,1228.415
4254,1229.592
4255,1230.432
4256,1230.929
4257,1231.124
4258,1231.097
4259,1230.929
4260,1230.667
4261,1230.388
4262,1230.200
4263,1230.173
4264,1230.284
4265,1230.425
4266,1230.435
4267,1230.197
4268,1229.662
4269,1228.839
4270,1227.793
4271,1226.634
4272,1225.431
4273,1224.221
4274,1223.054
4275,1221.989
4276,1221.082
4277,1220.386
4278,1219.895
4279,1219.549
4280,1219.273
4281,1219.058
4282,1218.947
4283,1218.961
4284,1219.045
4285,1219.115
4286,1219.129
4287,1219.068
4288,1218.900
4289,1218.604
4290,1218.181
4291,1217.663
4292,1217.119
4293,1216.618
4294,1216.208
4295,1215.909
4296,1215.704
4297,1215.536
4298,1215.351
4299,1215.119
4300,1214.891
4301,1214.753
4302,1214.776
4303,1214.961
4304,1215.254
4305,1215.603
4306,1215.936
4307,1216.195
4308,1216.373
4309,1216.504
4310,1216.648
4311,1216.860
4312,1217.193
4313,1217.670
4314,1218.241
4315,1218.786
4316,1219.166
4317,1219.297
4318,1219.139
4319,1218.705
4320,1218.077
4321,1217.361
4322,1216.605
4323,1215.828
4324,1215.065
4325,1214.440
4326,1214.087
4327,1214.081
4328,1214.397
4329,1214.931
4330,1215.539
4331,1216.097
4332,1216.521
4333,1216.742
4334,1216.675
4335,1216.252
4336,1215.469
4337,1214.420
4338,1213.234
4339,1211.997
4340,1210.767
4341,1209.604
4342,1208.585
4343,1207.785
4344,1207.214
4345,1206.828
4346,1206.542
4347,1206.323
4348,1206.182
4349,1206.115
4350,1206.091
4351,1206.048
4352,1205.954
4353,1205.819
4354,1205.661
4355,1205.493
4356,1205.339
4357,1205.231
4358,1205.194
4359,1205.238
4360,1205.359
4361,1205.537
4362,1205.759
4363,1206.061
4364,1206.512
4365,1207.120
4366,1207.836
4367,1208.548
4368,1209.163
4369,1209.651
4370,1210.034
4371,1210.326
4372,1210.488
4373,1210.504
4374,1210.394
4375,1210.165
4376,1209.799
4377,1209.291
4378,1208.663
4379,1207.940
4380,1207.127
4381,1206.246
4382,1205.386
4383,1204.670
4384,1204.172
4385,1203.883
4386,1203.776
4387,1203.830
4388,1204.018
4389,1204.270
4390,1204.495
4391,1204.619
4392,1204.609
4393,1204.482
4394,1204.293
4395,1204.092
4396,1203.907
4397,1203.745
4398,1203.584
4399,1203.403
4400,1203.191
4401,1202.942
4402,1202.650
4403,1202.334
4404,1202.015
4405,1201.685
4406,1201.379
4407,1201.131
4408,1200.986
4409,1201.000
4410,1201.242
4411,1201.732
4412,1202.448
4413,1203.335
4414,1204.361
4415,1205.534
4416,1206.888
4417,1208.421
4418,1210.071
4419,1211.782
4420,1213.506
4421,1215.143
4422,1216.578
4423,1217.724
4424,1218.568
4425,1219.189
4426,1219.737
4427,1220.376
4428,1221.186
4429,1222.144
4430,1223.192
4431,1224.278
4432,1225.333
4433,1226.301
4434,1227.172
4435,1227.948
4436,1228.614
4437,1229.138
4438,1229.545
4439,1229.928
4440,1230.415
4441,1231.111
4442,1232.055
4443,1233.218
4444,1234.522
4445,1235.856
4446,1237.107
4447,1238.169
4448,1239.016
4449,1239.718
4450,1240.374
4451,1240.995
4452,1241.479
4453,1241.705
4454,1241.627
4455,1241.268
4456,1240.659
4457,1239.883
4458,1239.100
4459,1238.518
4460,1238.260
4461,1238.313
4462,1238.525
4463,1238.703
4464,1238.730
4465,1238.660
4466,1238.633
4467,1238.760
4468,1239.033
4469,1239.325
4470,1239.527
4471,1239.604
4472,1239.577
4473,1239.470
4474,1239.312
4475,1239.113
4476,1238.865
4477,1238.555
4478,1238.152
4479,1237.634
4480,1237.006
4481,1236.324
4482,1235.648
4483,1235.033
4484,1234.519
4485,1234.126
4486,1233.850
4487,1233.679
4488,1233.611
4489,1233.638
4490,1233.759
4491,1233.947
4492,1234.169
4493,1234.398
4494,1234.610
4495,1234.774
4496,1234.882
4497,1234.949
4498,1234.996
4499,1235.030
4500,1235.073
4501,1235.134
4502,1235.181
4503,1235.178
4504,1235.114
4505,1234.979
4506,1234.757
4507,1234.448
4508,1234.065
4509,1233.618
4510,1233.104
4511,1232.489
4512,1231.743
4513,1230.855
4514,1229.837
4515,1228.711
4516,1227.511
4517,1226.281
4518,1225.091
4519,1224.029
4520,1223.175
4521,1222.544
4522,1222.117
4523,1221.844
4524,1221.700
4525,1221.656
4526,1221.690
4527,1221.808
4528,1222.046
4529,1222.436
4530,1222.940
4531,1223.424
4532,1223.706
4533,1223.606
4534,1223.017
4535,1221.949
4536,1220.510
4537,1218.880
4538,1217.223
4539,1215.643
4540,1214.185
4541,1212.837
4542,1211.577
4543,1210.380
4544,1209.234
4545,1208.128
4546,1207.019
4547,1205.856
4548,1204.592
4549,1203.211
4550,1201.763
4551,1200.348
4552,1199.030
4553,1197.850
4554,1196.818
4555,1195.958
4556,1195.296
4557,1194.849
4558,1194.580
4559,1194.419
4560,1194.294
4561,1194.180
4562,1194.093
4563,1194.062
4564,1194.113
4565,1194.274
4566,1194.553
4567,1194.946
4568,1195.444
4569,1196.015
4570,1196.613
4571,1197.181
4572,1197.676
4573,1198.092
4574,1198.432
4575,1198.680
4576,1198.869
4577,1199.087
4578,1199.410
4579,1199.827
4580,1200.250
4581,1200.573
4582,1200.727
4583,1200.687
4584,1200.489
4585,1200.196
4586,1199.874
4587,1199.578
4588,1199.329
4589,1199.117
4590,1198.936
4591,1198.832
4592,1198.889
4593,1199.178
4594,1199.726
4595,1200.489
4596,1201.383
4597,1202.331
4598,1203.312
4599,1204.354
4600,1205.483
4601,1206.707
4602,1207.977
4603,1209.184
4604,1210.232
4605,1211.076
4606,1211.755
4607,1212.340
4608,1212.891
4609,1213.375
4610,1213.714
4611,1213.832
4612,1213.714
4613,1213.418
4614,1213.066
4615,1212.777
4616,1212.615
4617,1212.625
4618,1212.830
4619,1213.203
4620,1213.691
4621,1214.269
4622,1214.901
4623,1215.553
4624,1216.215
4625,1216.890
4626,1217.576
4627,1218.299
4628,1219.065
4629,1219.851
4630,1220.601
4631,1221.270
4632,1221.831
4633,1222.251
4634,1222.483
4635,1222.527
4636,1222.419
4637,1222.221
4638,1222.006
4639,1221.871
4640,1221.885
4641,1222.039
4642,1222.255
4643,1222.406
4644,1222.379
4645,1222.113
4646,1221.613
4647,1220.927
4648,1220.134
4649,1219.317
4650,1218.574
4651,1217.983
4652,1217.569
4653,1217.341
4654,1217.317
4655,1217.475
4656,1217.764
4657,1218.161
4658,1218.692
4659,1219.371
4660,1220.110
4661,1220.752
4662,1221.135
4663,1221.139
4664,1220.715
4665,1219.902
4666,1218.813
4667,1217.623
4668,1216.517
4669,1215.637
4670,1215.052
4671,1214.770
4672,1214.729
4673,1214.827
4674,1214.951
4675,1215.065
4676,1215.210
4677,1215.418
4678,1215.690
4679,1215.990
4680,1216.272
4681,1216.504
4682,1216.699
4683,1216.867
4684,1217.025
4685,1217.196
4686,1217.408
4687,1217.647
4688,1217.865
4689,1218.047
4690,1218.205
4691,1218.383
4692,1218.574
4693,1218.725
4694,1218.752
4695,1218.564
4696,1218.168
4697,1217.677
4698,1217.247
4699,1217.018
4700,1217.072
4701,1217.405
4702,1217.932
4703,1218.487
4704,1218.877
4705,1218.974
4706,1218.766
4707,1218.356
4708,1217.879
4709,1217.435
4710,1217.055
4711,1216.746
4712,1216.507
4713,1216.319
4714,1216.161
4715,1216.000
4716,1215.828
4717,1215.670
4718,1215.556
4719,1215.529
4720,1215.569
4721,1215.630
4722,1215.704
4723,1215.828
4724,1216.013
4725,1216.215
4726,1216.379
4727,1216.490
4728,1216.548
4729,1216.574
4730,1216.598
4731,1216.648
4732,1216.732
4733,1216.874
4734,1217.119
4735,1217.489
4736,1217.973
4737,1218.514
4738,1219.068
4739,1219.599
4740,1220.070
4741,1220.460
4742,1220.749
4743,1220.924
4744,1221.008
4745,1221.048
4746,1221.078
4747,1221.122
4748,1221.219
4749,1221.408
4750,1221.697
4751,1222.083
4752,1222.517
4753,1222.944
4754,1223.320
4755,1223.622
4756,1223.811
4757,1223.851
4758,1223.777
4759,1223.636
4760,1223.421
4761,1223.044
4762,1222.453
4763,1221.663
4764,1220.769
4765,1219.858
4766,1218.988
4767,1218.178
4768,1217.411
4769,1216.662
4770,1215.919
4771,1215.183
4772,1214.447
4773,1213.708
4774,1212.982
4775,1212.286
4776,1211.630
4777,1211.025
4778,1210.481
4779,1209.943
4780,1209.315
4781,1208.515
4782,1207.496
4783,1206.233
4784,1204.740
4785,1203.141
4786,1201.611
4787,1200.344
4788,1199.487
4789,1199.121
4790,1199.265
4791,1199.853
4792,1200.751
4793,1201.779
4794,1202.761
4795,1203.584
4796,1204.203
4797,1204.626
4798,1204.905
4799,1205.113
4800,1205.332
4801,1205.591
4802,1205.903
4803,1206.300
4804,1206.834
4805,1207.530
4806,1208.387
4807,1209.362
4808,1210.407
4809,1211.469
4810,1212.518
4811,1213.546
4812,1214.568
4813,1215.654
4814,1216.924
4815,1218.457
4816,1220.245
4817,1222.171
4818,1224.069
4819,1225.817
4820,1227.390
4821,1228.819
4822,1230.133
4823,1231.356
4824,1232.522
4825,1233.652
4826,1234.747
4827,1235.789
4828,1236.724
4829,1237.480
4830,1238.021
4831,1238.344
4832,1238.465
4833,1238.391
4834,1238.118
4835,1237.631
4836,1236.949
4837,1236.129
4838,1235.221
4839,1234.273
4840,1233.366
4841,1232.633
4842,1232.176
4843,1232.015
4844,1232.042
4845,1232.085
4846,1231.988
4847,1231.638
4848,1231.020
4849,1230.166
4850,1229.134
4851,1228.005
4852,1226.839
4853,1225.673
4854,1224.523
4855,1223.417
4856,1222.342
4857,1221.226
4858,1219.982
4859,1218.551
4860,1216.944
4861,1215.257
4862,1213.637
4863,1212.225
4864,1211.136
4865,1210.424
4866,1210.071
4867,1210.000
4868,1210.105
4869,1210.316
4870,1210.612
4871,1211.002
4872,1211.459
4873,1211.869
4874,1212.071
4875,1211.933
4876,1211.476
4877,1210.834
4878,1210.175
4879,1209.614
4880,1209.160
4881,1208.753
4882,1208.347
4883,1207.977
4884,1207.762
4885,1207.789
4886,1208.081
4887,1208.626
4888,1209.409
4889,1210.353
4890,1211.348
4891,1212.259
4892,1212.931
4893,1213.244
4894,1213.180
4895,1212.824
4896,1212.303
4897,1211.711
4898,1211.113
4899,1210.521
4900,1209.933
4901,1209.348
4902,1208.797
4903,1208.310
4904,1207.937
4905,1207.701
4906,1207.621
4907,1207.695
4908,1207.890
4909,1208.145
4910,1208.394
4911,1208.579
4912,1208.686
4913,1208.730
4914,1208.723
4915,1208.683
4916,1208.626
4917,1208.562
4918,1208.521
4919,1208.518
4920,1208.555
4921,1208.609
4922,1208.666
4923,1208.723
4924,1208.770
4925,1208.777
4926,1208.713
4927,1208.555
4928,1208.313
4929,1207.987
4930,1207.567
4931,1207.063
4932,1206.508
4933,1205.960
4934,1205.463
4935,1205.033
4936,1204.646
4937,1204.290
4938,1203.977
4939,1203.756
4940,1203.698
4941,1203.843
4942,1204.169
4943,1204.596
4944,1205.019
4945,1205.366
4946,1205.618
4947,1205.796
4948,1205.930
4949,1206.044
4950,1206.162
4951,1206.260
4952,1206.270
4953,1206.095
4954,1205.698
4955,1205.107
4956,1204.424
4957,1203.789
4958,1203.288
4959,1202.905
4960,1202.573
4961,1202.260
4962,1201.951
4963,1201.621
4964,1201.235
4965,1200.805
4966,1200.391
4967,1200.065
4968,1199.840
4969,1199.665
4970,1199.497
4971,1199.292
4972,1199.013
4973,1198.674
4974,1198.331
4975,1198.059
4976,1197.881
4977,1197.807
4978,1197.867
4979,1198.112
4980,1198.580
4981,1199.205
4982,1199.870
4983,1200.432
4984,1200.808
4985,1200.953
4986,1200.872
4987,1200.610
4988,1200.257
4989,1199.904
4990,1199.615
4991,1199.417
4992,1199.322
4993,1199.312
4994,1199.346
4995,1199.343
4996,1199.235
4997,1198.996
4998,1198.691
4999,1198.455
5000,1198.422
5001,1198.660
5002,1199.168
5003,1199.884
5004,1200.744
5005,1201.695
5006,1202.694
5007,1203.688
5008,1204.670
5009,1205.655
5010,1206.686
5011,1207.809
5012,1208.989
5013,1210.158
5014,1211.267
5015,1212.326
5016,1213.311
5017,1214.181
5018,1214.928
5019,1215.559
5020,1216.107
5021,1216.595
5022,1217.025
5023,1217.401
5024,1217.721
5025,1217.973
5026,1218.178
5027,1218.349
5028,1218.473
5029,1218.510
5030,1218.430
5031,1218.221
5032,1217.902
5033,1217.505
5034,1217.035
5035,1216.494
5036,1215.865
5037,1215.126
5038,1214.249
5039,1213.220
5040,1212.024
5041,1210.716
5042,1209.402
5043,1208.165
5044,1207.043
5045,1206.038
5046,1205.140
5047,1204.371
5048,1203.752
5049,1203.295
5050,1202.972
5051,1202.704
5052,1202.391
5053,1201.957
5054,1201.359
5055,1200.579
5056,1199.638
5057,1198.559
5058,1197.380
5059,1196.150
5060,1194.916
5061,1193.720
5062,1192.577
5063,1191.505
5064,1190.527
5065,1189.670
5066,1188.910
5067,1188.191
5068,1187.475
5069,1186.799
5070,1186.262
5071,1185.946
5072,1185.872
5073,1185.959
5074,1186.073
5075,1186.130
5076,1186.134
5077,1186.157
5078,1186.275
5079,1186.524
5080,1186.927
5081,1187.488
5082,1188.238
5083,1189.216
5084,1190.466
5085,1191.975
5086,1193.662
5087,1195.430
5088,1197.218
5089,1199.003
5090,1200.768
5091,1202.488
5092,1204.159
5093,1205.776
5094,1207.335
5095,1208.824
5096,1210.232
5097,1211.556
5098,1212.783
5099,1213.855
5100,1214.692
5101,1215.270
5102,1215.664
5103,1216.003
5104,1216.343
5105,1216.638
5106,1216.786
5107,1216.719
5108,1216.467
5109,1216.107
5110,1215.727
5111,1215.398
5112,1215.159
5113,1215.001
5114,1214.880
5115,1214.712
5116,1214.407
5117,1213.899
5118,1213.193
5119,1212.353
5120,1211.469
5121,1210.582
5122,1209.661
5123,1208.703
5124,1207.785
5125,1207.029
5126,1206.515
5127,1206.266
5128,1206.229
5129,1206.293
5130,1206.310
5131,1206.165
5132,1205.799
5133,1205.191
5134,1204.391
5135,1203.527
5136,1202.720
5137,1202.041
5138,1201.490
5139,1201.050
5140,1200.697
5141,1200.411
5142,1200.176
5143,1199.981
5144,1199.847
5145,1199.803
5146,1199.894
5147,1200.132
5148,1200.495
5149,1200.916
5150,1201.302
5151,1201.584
5152,1201.759
5153,1201.850
5154,1201.867
5155,1201.840
5156,1201.810
5157,1201.793
5158,1201.796
5159,1201.799
5160,1201.783
5161,1201.715
5162,1201.598
5163,1201.463
5164,1201.342
5165,1201.255
5166,1201.228
5167,1201.265
5168,1201.356
5169,1201.447
5170,1201.490
5171,1201.480
5172,1201.447
5173,1201.450
5174,1201.557
5175,1201.847
5176,1202.364
5177,1203.134
5178,1204.108
5179,1205.147
5180,1206.061
5181,1206.717
5182,1207.039
5183,1207.029
5184,1206.740
5185,1206.276
5186,1205.769
5187,1205.322
5188,1204.986
5189,1204.754
5190,1204.592
5191,1204.465
5192,1204.354
5193,1204.256
5194,1204.193
5195,1204.216
5196,1204.394
5197,1204.811
5198,1205.540
5199,1206.602
5200,1207.933
5201,1209.405
5202,1210.847
5203,1212.101
5204,1213.062
5205,1213.704
5206,1214.094
5207,1214.339
5208,1214.554
5209,1214.820
5210,1215.143
5211,1215.482
5212,1215.811
5213,1216.117
5214,1216.386
5215,1216.611
5216,1216.796
5217,1216.961
5218,1217.132
5219,1217.344
5220,1217.610
5221,1217.922
5222,1218.258
5223,1218.571
5224,1218.762
5225,1218.766
5226,1218.584
5227,1218.262
5228,1217.862
5229,1217.438
5230,1217.035
5231,1216.675
5232,1216.349
5233,1216.050
5234,1215.771
5235,1215.543
5236,1215.428
5237,1215.459
5238,1215.576
5239,1215.637
5240,1215.509
5241,1215.143
5242,1214.575
5243,1213.913
5244,1213.284
5245,1212.834
5246,1212.652
5247,1212.770
5248,1213.133
5249,1213.617
5250,1214.070
5251,1214.376
5252,1214.450
5253,1214.242
5254,1213.761
5255,1213.103
5256,1212.450
5257,1211.987
5258,1211.809
5259,1211.919
5260,1212.229
5261,1212.635
5262,1213.079
5263,1213.523
5264,1213.946
5265,1214.360
5266,1214.773
5267,1215.133
5268,1215.338
5269,1215.338
5270,1215.176
5271,1214.931
5272,1214.645
5273,1214.356
5274,1214.128
5275,1214.034
5276,1214.104
5277,1214.323
5278,1214.622
5279,1214.931
5280,1215.196
5281,1215.375
5282,1215.459
5283,1215.465
5284,1215.425
5285,1215.398
5286,1215.452
5287,1215.643
5288,1215.966
5289,1216.403
5290,1216.917
5291,1217.458
5292,1217.963
5293,1218.356
5294,1218.537
5295,1218.447
5296,1218.110
5297,1217.610
5298,1217.045
5299,1216.494
5300,1215.976
5301,1215.485
5302,1215.012
5303,1214.565
5304,1214.181
5305,1213.896
5306,1213.701
5307,1213.573
5308,1213.509
5309,1213.509
5310,1213.526
5311,1213.466
5312,1213.314
5313,1213.156
5314,1213.119
5315,1213.291
5316,1213.637
5317,1214.047
5318,1214.417
5319,1214.712
5320,1214.961
5321,1215.223
5322,1215.533
5323,1215.838
5324,1216.047
5325,1216.070
5326,1215.889
5327,1215.522
5328,1215.045
5329,1214.507
5330,1213.889
5331,1213.123
5332,1212.151
5333,1210.978
5334,1209.654
5335,1208.236
5336,1206.791
5337,1205.402
5338,1204.176
5339,1203.184
5340,1202.448
5341,1201.984
5342,1201.813
5343,1201.934
5344,1202.287
5345,1202.771
5346,1203.288
5347,1203.816
5348,1204.408
5349,1205.120
5350,1205.977
5351,1206.949
5352,1207.947
5353,1208.814
5354,1209.426
5355,1209.792
5356,1210.051
5357,1210.404
5358,1210.975
5359,1211.748
5360,1212.595
5361,1213.331
5362,1213.818
5363,1213.986
5364,1213.835
5365,1213.425
5366,1212.840
5367,1212.145
5368,1211.405
5369,1210.699
5370,1210.071
5371,1209.483
5372,1208.837
5373,1208.054
5374,1207.083
5375,1205.934
5376,1204.609
5377,1203.141
5378,1201.618
5379,1200.206
5380,1199.064
5381,1198.274
5382,1197.864
5383,1197.850
5384,1198.254
5385,1199.070
5386,1200.247
5387,1201.665
5388,1203.181
5389,1204.616
5390,1205.779
5391,1206.542
5392,1206.895
5393,1206.905
5394,1206.636
5395,1206.122
5396,1205.429
5397,1204.693
5398,1204.112
5399,1203.830
5400,1203.910
5401,1204.310
5402,1204.915
5403,1205.564
5404,1206.159
5405,1206.700
5406,1207.268
5407,1207.890
5408,1208.488
5409,1208.915
5410,1209.022
5411,1208.767
5412,1208.226
5413,1207.574
5414,1207.019
5415,1206.740
5416,1206.851
5417,1207.365
5418,1208.175
5419,1209.059
5420,1209.782
5421,1210.195
5422,1210.313
5423,1210.262
5424,1210.189
5425,1210.172
5426,1210.178
5427,1210.131
5428,1209.967
5429,1209.671
5430,1209.264
5431,1208.794
5432,1208.330
5433,1207.933
5434,1207.641
5435,1207.463
5436,1207.389
5437,1207.433
5438,1207.644
5439,1208.048
5440,1208.592
5441,1209.133
5442,1209.476
5443,1209.459
5444,1209.049
5445,1208.340
5446,1207.506
5447,1206.750
5448,1206.219
5449,1206.001
5450,1206.075
5451,1206.330
5452,1206.616
5453,1206.811
5454,1206.875
5455,1206.797
5456,1206.619
5457,1206.424
5458,1206.290
5459,1206.246
5460,1206.286
5461,1206.327
5462,1206.293
5463,1206.179
5464,1206.048
5465,1205.910
5466,1205.715
5467,1205.406
5468,1204.989
5469,1204.515
5470,1204.004
5471,1203.426
5472,1202.778
5473,1202.115
5474,1201.521
5475,1201.047
5476,1200.737
5477,1200.657
5478,1200.889
5479,1201.484
5480,1202.425
5481,1203.611
5482,1204.892
5483,1206.095
5484,1207.103
5485,1207.856
5486,1208.350
5487,1208.565
5488,1208.478
5489,1208.095
5490,1207.510
5491,1206.858
5492,1206.270
5493,1205.796
5494,1205.483
5495,1205.389
5496,1205.547
5497,1205.890
5498,1206.280
5499,1206.555
5500,1206.609
5501,1206.441
5502,1206.165
5503,1205.923
5504,1205.806
5505,1205.813
5506,1205.920
5507,1206.115
5508,1206.367
5509,1206.653
5510,1207.002
5511,1207.466
5512,1208.034
5513,1208.609
5514,1209.073
5515,1209.389
5516,1209.621
5517,1209.863
5518,1210.158
5519,1210.484
5520,1210.777
5521,1211.022
5522,1211.224
5523,1211.375
5524,1211.516
5525,1211.694
5526,1211.933
5527,1212.205
5528,1212.491
5529,1212.777
5530,1213.079
5531,1213.408
5532,1213.761
5533,1214.124
5534,1214.477
5535,1214.810
5536,1215.136
5537,1215.472
5538,1215.795
5539,1216.077
5540,1216.299
5541,1216.464
5542,1216.611
5543,1216.773
5544,1216.927
5545,1216.974
5546,1216.800
5547,1216.366
5548,1215.680
5549,1214.763
5550,1213.650
5551,1212.397
5552,1211.069
5553,1209.792
5554,1208.710
5555,1207.910
5556,1207.412
5557,1207.157
5558,1207.063
5559,1207.073
5560,1207.164
5561,1207.288
5562,1207.409
5563,1207.540
5564,1207.748
5565,1208.064
5566,1208.478
5567,1208.938
5568,1209.405
5569,1209.859
5570,1210.343
5571,1210.968
5572,1211.798
5573,1212.770
5574,1213.734
5575,1214.528
5576,1215.025
5577,1215.207
5578,1215.126
5579,1214.860
5580,1214.464
5581,1213.939
5582,1213.331
5583,1212.689
5584,1212.061
5585,1211.503
5586,1211.089
5587,1210.830
5588,1210.683
5589,1210.588
5590,1210.521
5591,1210.481
5592,1210.484
5593,1210.555
5594,1210.720
5595,1211.005
5596,1211.422
5597,1211.936
5598,1212.487
5599,1213.022
5600,1213.496
5601,1213.892
5602,1214.245
5603,1214.638
5604,1215.143
5605,1215.768
5606,1216.440
5607,1217.045
5608,1217.519
5609,1217.895
5610,1218.245
5611,1218.584
5612,1218.873
5613,1219.045
5614,1219.082
5615,1219.045
5616,1219.062
5617,1219.270
5618,1219.737
5619,1220.456
5620,1221.377
5621,1222.409
5622,1223.384
5623,1224.080
5624,1224.278
5625,1223.854
5626,1222.823
5627,1221.307
5628,1219.509
5629,1217.647
5630,1215.946
5631,1214.598
5632,1213.721
5633,1213.341
5634,1213.398
5635,1213.758
5636,1214.255
5637,1214.763
5638,1215.159
5639,1215.351
5640,1215.291
5641,1215.012
5642,1214.561
5643,1213.980
5644,1213.308
5645,1212.595
5646,1211.889
5647,1211.170
5648,1210.353
5649,1209.392
5650,1208.337
5651,1207.278
5652,1206.293
5653,1205.386
5654,1204.529
5655,1203.729
5656,1203.067
5657,1202.657
5658,1202.519
5659,1202.549
5660,1202.556
5661,1202.371
5662,1201.954
5663,1201.369
5664,1200.771
5665,1200.321
5666,1200.116
5667,1200.193
5668,1200.542
5669,1201.151
5670,1201.978
5671,1202.915
5672,1203.796
5673,1204.468
5674,1204.875
5675,1205.036
5676,1205.033
5677,1204.952
5678,1204.878
5679,1204.875
5680,1204.979
5681,1205.214
5682,1205.577
5683,1206.041
5684,1206.579
5685,1207.177
5686,1207.856
5687,1208.612
5688,1209.372
5689,1210.020
5690,1210.484
5691,1210.757
5692,1210.854
5693,1210.787
5694,1210.558
5695,1210.158
5696,1209.604
5697,1208.938
5698,1208.226
5699,1207.523
5700,1206.888
5701,1206.370
5702,1206.021
5703,1205.873
5704,1205.927
5705,1206.172
5706,1206.565
5707,1207.056
5708,1207.587
5709,1208.085
5710,1208.441
5711,1208.552
5712,1208.367
5713,1207.920
5714,1207.251
5715,1206.424
5716,1205.550
5717,1204.781
5718,1204.250
5719,1204.031
5720,1204.135
5721,1204.515
5722,1205.090
5723,1205.765
5724,1206.475
5725,1207.194
5726,1207.913
5727,1208.622
5728,1209.298
5729,1209.916
5730,1210.464
5731,1210.921
5732,1211.284
5733,1211.580
5734,1211.849
5735,1212.098
5736,1212.326
5737,1212.498
5738,1212.578
5739,1212.551
5740,1212.427
5741,1212.222
5742,1211.967
5743,1211.681
5744,1211.412
5745,1211.227
5746,1211.190
5747,1211.318
5748,1211.533
5749,1211.684
5750,1211.664
5751,1211.483
5752,1211.220
5753,1210.945
5754,1210.703
5755,1210.535
5756,1210.478
5757,1210.518
5758,1210.555
5759,1210.461
5760,1210.175
5761,1209.752
5762,1209.321
5763,1208.965
5764,1208.653
5765,1208.313
5766,1207.923
5767,1207.550
5768,1207.258
5769,1207.039
5770,1206.834
5771,1206.633
5772,1206.468
5773,1206.384
5774,1206.424
5775,1206.626
5776,1207.009
5777,1207.567
5778,1208.253
5779,1209.002
5780,1209.782
5781,1210.565
5782,1211.308
5783,1211.987
5784,1212.582
5785,1213.103
5786,1213.600
5787,1214.155
5788,1214.830
5789,1215.633
5790,1216.511
5791,1217.462
5792,1218.537
5793,1219.811
5794,1221.350
5795,1223.142
5796,1225.041
5797,1226.825
5798,1228.288
5799,1229.289
5800,1229.766
5801,1229.733
5802,1229.272
5803,1228.519
5804,1227.672
5805,1226.926
5806,1226.422
5807,1226.190
5808,1226.153
5809,1226.163
5810,1226.100
5811,1225.928
5812,1225.713
5813,1225.609
5814,1225.784
5815,1226.318
5816,1227.155
5817,1228.140
5818,1229.061
5819,1229.753
5820,1230.116
5821,1230.133
5822,1229.823
5823,1229.266
5824,1228.593
5825,1227.941
5826,1227.390
5827,1226.920
5828,1226.489
5829,1226.079
5830,1225.703
5831,1225.350
5832,1225.007
5833,1224.664
5834,1224.325
5835,1223.979
5836,1223.612
5837,1223.206
5838,1222.796
5839,1222.460
5840,1222.305
5841,1222.376
5842,1222.654
5843,1223.075
5844,1223.501
5845,1223.754
5846,1223.659
5847,1223.135
5848,1222.214
5849,1221.018
5850,1219.693
5851,1218.373
5852,1217.156
5853,1216.101
5854,1215.166
5855,1214.306
5856,1213.516
5857,1212.871
5858,1212.414
5859,1212.145
5860,1212.027
5861,1211.980
5862,1211.923
5863,1211.812
5864,1211.698
5865,1211.640
5866,1211.681
5867,1211.822
5868,1212.057
5869,1212.350
5870,1212.666
5871,1212.971
5872,1213.244
5873,1213.502
5874,1213.812
5875,1214.188
5876,1214.622
5877,1215.072
5878,1215.529
5879,1215.990
5880,1216.477
5881,1217.025
5882,1217.633
5883,1218.215
5884,1218.618
5885,1218.705
5886,1218.420
5887,1217.764
5888,1216.827
5889,1215.738
5890,1214.602
5891,1213.459
5892,1212.326
5893,1211.247
5894,1210.249
5895,1209.321
5896,1208.474
5897,1207.755
5898,1207.180
5899,1206.740
5900,1206.414
5901,1206.179
5902,1205.977
5903,1205.789
5904,1205.644
5905,1205.567
5906,1205.540
5907,1205.527
5908,1205.490
5909,1205.409
5910,1205.285
5911,1205.164
5912,1205.144
5913,1205.308
5914,1205.685
5915,1206.216
5916,1206.797
5917,1207.375
5918,1207.977
5919,1208.656
5920,1209.389
5921,1210.047
5922,1210.464
5923,1210.545
5924,1210.306
5925,1209.873
5926,1209.426
5927,1209.116
5928,1208.985
5929,1208.999
5930,1209.093
5931,1209.227
5932,1209.368
5933,1209.483
5934,1209.513
5935,1209.362
5936,1208.945
5937,1208.269
5938,1207.436
5939,1206.606
5940,1205.917
5941,1205.483
5942,1205.335
5943,1205.413
5944,1205.577
5945,1205.665
5946,1205.591
5947,1205.359
5948,1205.056
5949,1204.804
5950,1204.713
5951,1204.808
5952,1205.036
5953,1205.278
5954,1205.409
5955,1205.329
5956,1205.019
5957,1204.549
5958,1204.048
5959,1203.702
5960,1203.645
5961,1203.957
5962,1204.606
5963,1205.456
5964,1206.350
5965,1207.191
5966,1207.974
5967,1208.720
5968,1209.416
5969,1210.054
5970,1210.636
5971,1211.167
5972,1211.657
5973,1212.114
5974,1212.541
5975,1212.951
5976,1213.355
5977,1213.734
5978,1214.064
5979,1214.306
5980,1214.450
5981,1214.524
5982,1214.554
5983,1214.571
5984,1214.578
5985,1214.554
5986,1214.457
5987,1214.265
5988,1214.007
5989,1213.765
5990,1213.640
5991,1213.677
5992,1213.855
5993,1214.111
5994,1214.400
5995,1214.696
5996,1214.961
5997,1215.139
5998,1215.213
5999,1215.210
6000,1215.186
6001,1215.176
6002,1215.200
6003,1215.277
6004,1215.422
6005,1215.623
6006,1215.838
6007,1215.996
6008,1216.060
6009,1216.040
6010,1215.949
6011,1215.764
6012,1215.432
6013,1214.954
6014,1214.413
6015,1213.886
6016,1213.418
6017,1213.069
6018,1212.901
6019,1212.924
6020,1213.123
6021,1213.462
6022,1213.882
6023,1214.302
6024,1214.662
6025,1214.931
6026,1215.062
6027,1215.028
6028,1214.844
6029,1214.561
6030,1214.205
6031,1213.805
6032,1213.429
6033,1213.123
6034,1212.918
6035,1212.810
6036,1212.760
6037,1212.726
6038,1212.713
6039,1212.716
6040,1212.676
6041,1212.474
6042,1212.051
6043,1211.462
6044,1210.847
6045,1210.373
6046,1210.168
6047,1210.330
6048,1210.935
6049,1212.014
6050,1213.543
6051,1215.412
6052,1217.438
6053,1219.357
6054,1220.903
6055,1221.858
6056,1222.110
6057,1221.639
6058,1220.527
6059,1218.964
6060,1217.230
6061,1215.623
6062,1214.386
6063,1213.681
6064,1213.590
6065,1214.114
6066,1215.173
6067,1216.588
6068,1218.124
6069,1219.596
6070,1220.917
6071,1222.100
6072,1223.145
6073,1223.982
6074,1224.503
6075,1224.648
6076,1224.429
6077,1223.898
6078,1223.162
6079,1222.382
6080,1221.717
6081,1221.253
6082,1221.004
6083,1220.981
6084,1221.189
6085,1221.579
6086,1222.039
6087,1222.416
6088,1222.540
6089,1222.268
6090,1221.539
6091,1220.413
6092,1219.031
6093,1217.616
6094,1216.400
6095,1215.590
6096,1215.304
6097,1215.539
6098,1216.185
6099,1217.045
6100,1217.892
6101,1218.574
6102,1219.038
6103,1219.304
6104,1219.401
6105,1219.357
6106,1219.203
6107,1218.887
6108,1218.339
6109,1217.556
6110,1216.595
6111,1215.522
6112,1214.376
6113,1213.193
6114,1212.034
6115,1210.982
6116,1210.152
6117,1209.657
6118,1209.553
6119,1209.772
6120,1210.141
6121,1210.427
6122,1210.434
6123,1210.047
6124,1209.234
6125,1208.064
6126,1206.686
6127,1205.268
6128,1203.934
6129,1202.754
6130,1201.773
6131,1200.963
6132,1200.267
6133,1199.659
6134,1199.161
6135,1198.771
6136,1198.465
6137,1198.217
6138,1197.971
6139,1197.676
6140,1197.346
6141,1197.077
6142,1196.943
6143,1196.983
6144,1197.202
6145,1197.575
6146,1198.096
6147,1198.768
6148,1199.548
6149,1200.344
6150,1201.094
6151,1201.823
6152,1202.596
6153,1203.436
6154,1204.293
6155,1205.063
6156,1205.661
6157,1206.098
6158,1206.451
6159,1206.814
6160,1207.224
6161,1207.691
6162,1208.226
6163,1208.814
6164,1209.389
6165,1209.893
6166,1210.310
6167,1210.662
6168,1211.002
6169,1211.385
6170,1211.846
6171,1212.380
6172,1212.934
6173,1213.455
6174,1213.906
6175,1214.279
6176,1214.561
6177,1214.743
6178,1214.860
6179,1214.965
6180,1215.102
6181,1215.280
6182,1215.418
6183,1215.432
6184,1215.254
6185,1214.870
6186,1214.282
6187,1213.526
6188,1212.639
6189,1211.661
6190,1210.636
6191,1209.607
6192,1208.646
6193,1207.880
6194,1207.446
6195,1207.439
6196,1207.839
6197,1208.515
6198,1209.244
6199,1209.785
6200,1209.960
6201,1209.701
6202,1209.046
6203,1208.125
6204,1207.147
6205,1206.296
6206,1205.668
6207,1205.248
6208,1204.979
6209,1204.794
6210,1204.640
6211,1204.465
6212,1204.240
6213,1203.977
6214,1203.745
6215,1203.621
6216,1203.651
6217,1203.830
6218,1204.129
6219,1204.502
6220,1204.915
6221,1205.386
6222,1205.937
6223,1206.569
6224,1207.261
6225,1207.997
6226,1208.710
6227,1209.281
6228,1209.604
6229,1209.647
6230,1209.489
6231,1209.268
6232,1209.069
6233,1208.891
6234,1208.686
6235,1208.471
6236,1208.320
6237,1208.256
6238,1208.192
6239,1207.984
6240,1207.523
6241,1206.817
6242,1205.917
6243,1204.878
6244,1203.715
6245,1202.441
6246,1201.127
6247,1199.877
6248,1198.768
6249,1197.840
6250,1197.108
6251,1196.620
6252,1196.442
6253,1196.644
6254,1197.242
6255,1198.203
6256,1199.443
6257,1200.815
6258,1202.149
6259,1203.302
6260,1204.226
6261,1204.955
6262,1205.547
6263,1206.091
6264,1206.653
6265,1207.207
6266,1207.668
6267,1207.937
6268,1207.970
6269,1207.792
6270,1207.436
6271,1206.969
6272,1206.522
6273,1206.266
6274,1206.303
6275,1206.633
6276,1207.177
6277,1207.853
6278,1208.602
6279,1209.335
6280,1209.913
6281,1210.256
6282,1210.397
6283,1210.467
6284,1210.555
6285,1210.656
6286,1210.713
6287,1210.696
6288,1210.619
6289,1210.504
6290,1210.330
6291,1210.034
6292,1209.590
6293,1209.049
6294,1208.515
6295,1208.078
6296,1207.779
6297,1207.644
6298,1207.711
6299,1208.027
6300,1208.646
6301,1209.594
6302,1210.861
6303,1212.437
6304,1214.286
6305,1216.299
6306,1218.289
6307,1220.070
6308,1221.505
6309,1222.523
6310,1223.091
6311,1223.233
6312,1223.007
6313,1222.544
6314,1222.016
6315,1221.592
6316,1221.334
6317,1221.142
6318,1220.850
6319,1220.335
6320,1219.606
6321,1218.779
6322,1218.020
6323,1217.475
6324,1217.230
6325,1217.324
6326,1217.781
6327,1218.547
6328,1219.495
6329,1220.443
6330,1221.240
6331,1221.865
6332,1222.392
6333,1222.886
6334,1223.343
6335,1223.743
6336,1224.140
6337,1224.688
6338,1225.555
6339,1226.805
6340,1228.328
6341,1229.884
6342,1231.198
6343,1232.062
6344,1232.361
6345,1232.069
6346,1231.242
6347,1230.008
6348,1228.540
6349,1227.027
6350,1225.629
6351,1224.402
6352,1223.327
6353,1222.328
6354,1221.371
6355,1220.493
6356,1219.730
6357,1219.065
6358,1218.447
6359,1217.862
6360,1217.321
6361,1216.833
6362,1216.406
6363,1216.060
6364,1215.788
6365,1215.563
6366,1215.344
6367,1215.099
6368,1214.827
6369,1214.554
6370,1214.302
6371,1214.111
6372,1214.064
6373,1214.232
6374,1214.598
6375,1215.035
6376,1215.331
6377,1215.254
6378,1214.675
6379,1213.620
6380,1212.239
6381,1210.730
6382,1209.278
6383,1207.980
6384,1206.875
6385,1205.960
6386,1205.218
6387,1204.616
6388,1204.169
6389,1203.967
6390,1204.119
6391,1204.656
6392,1205.530
6393,1206.623
6394,1207.789
6395,1208.851
6396,1209.634
6397,1210.034
6398,1210.031
6399,1209.735
6400,1209.325
6401,1208.958
6402,1208.710
6403,1208.569
6404,1208.525
6405,1208.589
6406,1208.757
6407,1209.012
6408,1209.365
6409,1209.826
6410,1210.383
6411,1211.015
6412,1211.681
6413,1212.343
6414,1212.961
6415,1213.509
6416,1213.990
6417,1214.427
6418,1214.857
6419,1215.250
6420,1215.519
6421,1215.603
6422,1215.499
6423,1215.257
6424,1214.951
6425,1214.675
6426,1214.501
6427,1214.477
6428,1214.625
6429,1214.928
6430,1215.307
6431,1215.680
6432,1216.003
6433,1216.332
6434,1216.769
6435,1217.337
6436,1217.949
6437,1218.426
6438,1218.628
6439,1218.497
6440,1218.073
6441,1217.408
6442,1216.531
6443,1215.482
6444,1214.323
6445,1213.113
6446,1211.899
6447,1210.716
6448,1209.604
6449,1208.602
6450,1207.711
6451,1206.922
6452,1206.229
6453,1205.668
6454,1205.261
6455,1205.009
6456,1204.871
6457,1204.811
6458,1204.814
6459,1204.892
6460,1205.056
6461,1205.345
6462,1205.752
6463,1206.192
6464,1206.522
6465,1206.649
6466,1206.572
6467,1206.364
6468,1206.118
6469,1205.910
6470,1205.779
6471,1205.715
6472,1205.661
6473,1205.597
6474,1205.547
6475,1205.527
6476,1205.547
6477,1205.601
6478,1205.688
6479,1205.806
6480,1205.964
6481,1206.192
6482,1206.515
6483,1206.935
6484,1207.449
6485,1208.068
6486,1208.790
6487,1209.587
6488,1210.397
6489,1211.167
6490,1211.862
6491,1212.487
6492,1213.039
6493,1213.536
6494,1214.013
6495,1214.487
6496,1214.948
6497,1215.358
6498,1215.674
6499,1215.875
6500,1215.986
6501,1216.027
6502,1215.983
6503,1215.798
6504,1215.449
6505,1214.958
6506,1214.363
6507,1213.748
6508,1213.244
6509,1213.008
6510,1213.146
6511,1213.701
6512,1214.665
6513,1215.986
6514,1217.563
6515,1219.257
6516,1220.961
6517,1222.624
6518,1224.221
6519,1225.679
6520,1226.923
6521,1227.904
6522,1228.577
6523,1228.913
6524,1228.980
6525,1228.913
6526,1228.879
6527,1228.987
6528,1229.235
6529,1229.518
6530,1229.696
6531,1229.726
6532,1229.682
6533,1229.672
6534,1229.706
6535,1229.669
6536,1229.403
6537,1228.825
6538,1227.995
6539,1227.104
6540,1226.368
6541,1225.935
6542,1225.881
6543,1226.194
6544,1226.772
6545,1227.464
6546,1228.093
6547,1228.499
6548,1228.603
6549,1228.442
6550,1228.113
6551,1227.693
6552,1227.182
6553,1226.577
6554,1225.915
6555,1225.263
6556,1224.674
6557,1224.177
6558,1223.824
6559,1223.663
6560,1223.656
6561,1223.743
6562,1223.851
6563,1223.911
6564,1223.841
6565,1223.585
6566,1223.142
6567,1222.520
6568,1221.777
6569,1221.024
6570,1220.399
6571,1220.023
6572,1219.939
6573,1220.100
6574,1220.463
6575,1221.061
6576,1221.942
6577,1223.091
6578,1224.402
6579,1225.730
6580,1226.916
6581,1227.810
6582,1228.314
6583,1228.422
6584,1228.234
6585,1227.867
6586,1227.380
6587,1226.799
6588,1226.177
6589,1225.629
6590,1225.253
6591,1225.064
6592,1224.990
6593,1224.957
6594,1224.933
6595,1224.974
6596,1225.125
6597,1225.357
6598,1225.568
6599,1225.689
6600,1225.703
6601,1225.636
6602,1225.508
6603,1225.347
6604,1225.192
6605,1225.031
6606,1224.799
6607,1224.426
6608,1223.878
6609,1223.172
6610,1222.345
6611,1221.455
6612,1220.554
6613,1219.693
6614,1218.934
6615,1218.322
6616,1217.852
6617,1217.475
6618,1217.159
6619,1216.924
6620,1216.793
6621,1216.759
6622,1216.776
6623,1216.763
6624,1216.665
6625,1216.474
6626,1216.201
6627,1215.892
6628,1215.573
6629,1215.240
6630,1214.897
6631,1214.571
6632,1214.306
6633,1214.118
6634,1214.027
6635,1214.060
6636,1214.202
6637,1214.366
6638,1214.464
6639,1214.427
6640,1214.228
6641,1213.859
6642,1213.301
6643,1212.545
6644,1211.624
6645,1210.636
6646,1209.705
6647,1208.928
6648,1208.367
6649,1208.058
6650,1207.997
6651,1208.155
6652,1208.511
6653,1209.019
6654,1209.597
6655,1210.141
6656,1210.548
6657,1210.736
6658,1210.703
6659,1210.521
6660,1210.289
6661,1210.078
6662,1209.920
6663,1209.819
6664,1209.762
6665,1209.762
6666,1209.873
6667,1210.182
6668,1210.757
6669,1211.617
6670,1212.746
6671,1214.084
6672,1215.539
6673,1217.042
6674,1218.551
6675,1220.036
6676,1221.434
6677,1222.688
6678,1223.767
6679,1224.634
6680,1225.219
6681,1225.454
6682,1225.363
6683,1225.084
6684,1224.772
6685,1224.520
6686,1224.332
6687,1224.197
6688,1224.110
6689,1224.100
6690,1224.201
6691,1224.432
6692,1224.812
6693,1225.343
6694,1225.948
6695,1226.439
6696,1226.631
6697,1226.405
6698,1225.760
6699,1224.772
6700,1223.606
6701,1222.443
6702,1221.414
6703,1220.571
6704,1219.919
6705,1219.448
6706,1219.092
6707,1218.729
6708,1218.241
6709,1217.566
6710,1216.716
6711,1215.724
6712,1214.659
6713,1213.620
6714,1212.753
6715,1212.161
6716,1211.882
6717,1211.872
6718,1211.993
6719,1212.054
6720,1211.882
6721,1211.402
6722,1210.642
6723,1209.758
6724,1208.948
6725,1208.357
6726,1208.021
6727,1207.900
6728,1207.913
6729,1207.940
6730,1207.822
6731,1207.402
6732,1206.599
6733,1205.429
6734,1204.008
6735,1202.549
6736,1201.275
6737,1200.348
6738,1199.823
6739,1199.665
6740,1199.766
6741,1200.048
6742,1200.489
6743,1201.107
6744,1201.890
6745,1202.815
6746,1203.826
6747,1204.855
6748,1205.806
6749,1206.579
6750,1207.110
6751,1207.436
6752,1207.688
6753,1207.997
6754,1208.448
6755,1209.032
6756,1209.654
6757,1210.182
6758,1210.548
6759,1210.787
6760,1210.958
6761,1211.106
6762,1211.254
6763,1211.398
6764,1211.519
6765,1211.630
6766,1211.745
6767,1211.842
6768,1211.872
6769,1211.819
6770,1211.698
6771,1211.519
6772,1211.298
6773,1211.049
6774,1210.780
6775,1210.515
6776,1210.296
6777,1210.199
6778,1210.266
6779,1210.461
6780,1210.699
6781,1210.901
6782,1211.032
6783,1211.076
6784,1211.052
6785,1210.992
6786,1210.938
6787,1210.908
6788,1210.904
6789,1210.911
6790,1210.925
6791,1210.911
6792,1210.817
6793,1210.595
6794,1210.252
6795,1209.795
6796,1209.217
6797,1208.508
6798,1207.678
6799,1206.744
6800,1205.755
6801,1204.811
6802,1204.035
6803,1203.514
6804,1203.262
6805,1203.225
6806,1203.298
6807,1203.413
6808,1203.564
6809,1203.819
6810,1204.250
6811,1204.858
6812,1205.564
6813,1206.246
6814,1206.817
6815,1207.285
6816,1207.685
6817,1208.044
6818,1208.357
6819,1208.622
6820,1208.858
6821,1209.063
6822,1209.217
6823,1209.362
6824,1209.580
6825,1209.936
6826,1210.447
6827,1211.056
6828,1211.674
6829,1212.225
6830,1212.689
6831,1213.092
6832,1213.499
6833,1213.980
6834,1214.628
6835,1215.536
6836,1216.732
6837,1218.191
6838,1219.885
6839,1221.754
6840,1223.670
6841,1225.471
6842,1227.010
6843,1228.173
6844,1228.916
6845,1229.289
6846,1229.434
6847,1229.534
6848,1229.726
6849,1230.106
6850,1230.728
6851,1231.628
6852,1232.835
6853,1234.384
6854,1236.260
6855,1238.327
6856,1240.380
6857,1242.182
6858,1243.557
6859,1244.440
6860,1244.911
6861,1245.150
6862,1245.324
6863,1245.492
6864,1245.627
6865,1245.681
6866,1245.657
6867,1245.590
6868,1245.452
6869,1245.190
6870,1244.777
6871,1244.239
6872,1243.587
6873,1242.814
6874,1241.940
6875,1241.026
6876,1240.165
6877,1239.453
6878,1238.925
6879,1238.565
6880,1238.310
6881,1238.018
6882,1237.527
6883,1236.717
6884,1235.557
6885,1234.095
6886,1232.448
6887,1230.805
6888,1229.366
6889,1228.277
6890,1227.605
6891,1227.323
6892,1227.330
6893,1227.498
6894,1227.773
6895,1228.153
6896,1228.624
6897,1229.067
6898,1229.316
6899,1229.225
6900,1228.721
6901,1227.790
6902,1226.459
6903,1224.832
6904,1223.088
6905,1221.455
6906,1220.114
6907,1219.136
6908,1218.473
6909,1218.023
6910,1217.704
6911,1217.472
6912,1217.290
6913,1217.075
6914,1216.716
6915,1216.104
6916,1215.203
6917,1214.077
6918,1212.850
6919,1211.640
6920,1210.518
6921,1209.550
6922,1208.817
6923,1208.421
6924,1208.421
6925,1208.767
6926,1209.328
6927,1209.953
6928,1210.545
6929,1211.072
6930,1211.543
6931,1211.973
6932,1212.377
6933,1212.726
6934,1212.985
6935,1213.123
6936,1213.146
6937,1213.055
6938,1212.854
6939,1212.518
6940,1212.071
6941,1211.560
6942,1211.039
6943,1210.525
6944,1210.034
6945,1209.577
6946,1209.123
6947,1208.622
6948,1208.068
6949,1207.554
6950,1207.211
6951,1207.137
6952,1207.355
6953,1207.802
6954,1208.360
6955,1208.884
6956,1209.264
6957,1209.412
6958,1209.271
6959,1208.847
6960,1208.185
6961,1207.382
6962,1206.491
6963,1205.500
6964,1204.381
6965,1203.171
6966,1202.018
6967,1201.084
6968,1200.482
6969,1200.247
6970,1200.337
6971,1200.647
6972,1201.023
6973,1201.262
6974,1201.151
6975,1200.576
6976,1199.581
6977,1198.338
6978,1197.047
6979,1195.887
6980,1194.963
6981,1194.328
6982,1193.982
6983,1193.898
6984,1194.076
6985,1194.530
6986,1195.289
6987,1196.361
6988,1197.696
6989,1199.151
6990,1200.522
6991,1201.591
6992,1202.210
6993,1202.361
6994,1202.146
6995,1201.759
6996,1201.403
6997,1201.268
6998,1201.473
6999,1202.045
7000,1202.909
7001,1203.917
7002,1204.935
7003,1205.883
7004,1206.720
7005,1207.436
7006,1208.034
7007,1208.511
7008,1208.888
7009,1209.197
7010,1209.493
7011,1209.869
7012,1210.420
7013,1211.190
7014,1212.168
7015,1213.378
7016,1214.860
7017,1216.605
7018,1218.477
7019,1220.288
7020,1221.878
7021,1223.169
7022,1224.164
7023,1224.957
7024,1225.669
7025,1226.395
7026,1227.155
7027,1227.938
7028,1228.755
7029,1229.602
7030,1230.502
7031,1231.497
7032,1232.620
7033,1233.880
7034,1235.255
7035,1236.670
7036,1238.014
7037,1239.207
7038,1240.216
7039,1240.985
7040,1241.453
7041,1241.634
7042,1241.614
7043,1241.469
7044,1241.211
7045,1240.797
7046,1240.222
7047,1239.577
7048,1238.972
7049,1238.458
7050,1238.011
7051,1237.621
7052,1237.325
7053,1237.120
7054,1236.922
7055,1236.623
7056,1236.159
7057,1235.510
7058,1234.720
7059,1233.907
7060,1233.195
7061,1232.677
7062,1232.361
7063,1232.193
7064,1232.146
7065,1232.264
7066,1232.586
7067,1233.077
7068,1233.611
7069,1234.011
7070,1234.126
7071,1233.863
7072,1233.201
7073,1232.196
7074,1230.986
7075,1229.760
7076,1228.674
7077,1227.790
7078,1227.111
7079,1226.627
7080,1226.355
7081,1226.294
7082,1226.415
7083,1226.641
7084,1226.923
7085,1227.269
7086,1227.679
7087,1228.062
7088,1228.284
7089,1228.244
7090,1227.918
7091,1227.343
7092,1226.563
7093,1225.686
7094,1224.863
7095,1224.241
7096,1223.915
7097,1223.928
7098,1224.295
7099,1224.943
7100,1225.683
7101,1226.244
7102,1226.368
7103,1225.928
7104,1224.967
7105,1223.670
7106,1222.231
7107,1220.816
7108,1219.569
7109,1218.638
7110,1218.117
7111,1217.996
7112,1218.164
7113,1218.494
7114,1218.857
7115,1219.183
7116,1219.458
7117,1219.687
7118,1219.902
7119,1220.124
7120,1220.359
7121,1220.621
7122,1220.937
7123,1221.310
7124,1221.717
7125,1222.187
7126,1222.732
7127,1223.290
7128,1223.740
7129,1223.999
7130,1224.076
7131,1224.059
7132,1224.103
7133,1224.345
7134,1224.853
7135,1225.565
7136,1226.338
7137,1227.017
7138,1227.484
7139,1227.652
7140,1227.484
7141,1226.963
7142,1226.100
7143,1224.943
7144,1223.599
7145,1222.231
7146,1220.984
7147,1219.932
7148,1219.112
7149,1218.564
7150,1218.346
7151,1218.504
7152,1219.062
7153,1219.949
7154,1221.028
7155,1222.154
7156,1223.206
7157,1224.049
7158,1224.550
7159,1224.644
7160,1224.352
7161,1223.764
7162,1223.021
7163,1222.268
7164,1221.589
7165,1221.004
7166,1220.483
7167,1219.946
7168,1219.310
7169,1218.524
7170,1217.579
7171,1216.514
7172,1215.408
7173,1214.356
7174,1213.432
7175,1212.692
7176,1212.182
7177,1211.882
7178,1211.768
7179,1211.809
7180,1211.930
7181,1211.990
7182,1211.869
7183,1211.533
7184,1211.059
7185,1210.578
7186,1210.192
7187,1209.916
7188,1209.748
7189,1209.705
7190,1209.812
7191,1210.044
7192,1210.323
7193,1210.592
7194,1210.837
7195,1211.042
7196,1211.214
7197,1211.382
7198,1211.593
7199,1211.893
7200,1212.306
7201,1212.877
7202,1213.630
7203,1214.575
7204,1215.694
7205,1216.934
7206,1218.211
7207,1219.465
7208,1220.675
7209,1221.828
7210,1222.812
7211,1223.468
7212,1223.703
7213,1223.596
7214,1223.370
7215,1223.290
7216,1223.532
7217,1224.157
7218,1225.125
7219,1226.321
7220,1227.609
7221,1228.862
7222,1229.948
7223,1230.714
7224,1231.023
7225,1230.849
7226,1230.281
7227,1229.467
7228,1228.516
7229,1227.488
7230,1226.476
7231,1225.562
7232,1224.772
7233,1224.056
7234,1223.367
7235,1222.675
7236,1221.962
7237,1221.189
7238,1220.298
7239,1219.287
7240,1218.245
7241,1217.327
7242,1216.618
7243,1216.064
7244,1215.502
7245,1214.810
7246,1213.939
7247,1212.908
7248,1211.755
7249,1210.545
7250,1209.328
7251,1208.155
7252,1207.056
7253,1206.034
7254,1205.029
7255,1203.987
7256,1202.902
7257,1201.806
7258,1200.741
7259,1199.726
7260,1198.775
7261,1197.901
7262,1197.124
7263,1196.479
7264,1196.015
7265,1195.780
7266,1195.814
7267,1196.109
7268,1196.661
7269,1197.460
7270,1198.489
7271,1199.699
7272,1201.003
7273,1202.283
7274,1203.409
7275,1204.236
7276,1204.673
7277,1204.740
7278,1204.555
7279,1204.287
7280,1204.095
7281,1204.078
7282,1204.266
7283,1204.633
7284,1205.130
7285,1205.718
7286,1206.330
7287,1206.881
7288,1207.318
7289,1207.638
7290,1207.849
7291,1208.011
7292,1208.192
7293,1208.424
7294,1208.666
7295,1208.861
7296,1208.942
7297,1208.891
7298,1208.730
7299,1208.505
7300,1208.269
7301,1208.088
7302,1208.024
7303,1208.122
7304,1208.411
7305,1208.925
7306,1209.654
7307,1210.528
7308,1211.459
7309,1212.340
7310,1213.022
7311,1213.368
7312,1213.328
7313,1212.985
7314,1212.528
7315,1212.182
7316,1212.074
7317,1212.195
7318,1212.440
7319,1212.699
7320,1212.887
7321,1212.965
7322,1212.945
7323,1212.884
7324,1212.850
7325,1212.908
7326,1213.086
7327,1213.371
7328,1213.738
7329,1214.141
7330,1214.538
7331,1214.884
7332,1215.166
7333,1215.368
7334,1215.472
7335,1215.435
7336,1215.237
7337,1214.864
7338,1214.309
7339,1213.570
7340,1212.662
7341,1211.627
7342,1210.518
7343,1209.436
7344,1208.461
7345,1207.638
7346,1206.965
7347,1206.434
7348,1206.048
7349,1205.782
7350,1205.618
7351,1205.567
7352,1205.661
7353,1205.954
7354,1206.431
7355,1207.019
7356,1207.594
7357,1208.064
7358,1208.364
7359,1208.451
7360,1208.327
7361,1208.041
7362,1207.661
7363,1207.251
7364,1206.898
7365,1206.696
7366,1206.720
7367,1207.009
7368,1207.604
7369,1208.518
7370,1209.725
7371,1211.173
7372,1212.787
7373,1214.467
7374,1216.101
7375,1217.576
7376,1218.846
7377,1219.952
7378,1220.984
7379,1221.986
7380,1222.917
7381,1223.723
7382,1224.402
7383,1225.004
7384,1225.592
7385,1226.237
7386,1226.960
7387,1227.740
7388,1228.556
7389,1229.400
7390,1230.274
7391,1231.165
7392,1232.008
7393,1232.697
7394,1233.151
7395,1233.366
7396,1233.403
7397,1233.295
7398,1233.037
7399,1232.630
7400,1232.089
7401,1231.410
7402,1230.583
7403,1229.629
7404,1228.573
7405,1227.427
7406,1226.217
7407,1224.967
7408,1223.680
7409,1222.359
7410,1221.068
7411,1219.939
7412,1219.099
7413,1218.588
7414,1218.342
7415,1218.238
7416,1218.157
7417,1218.040
7418,1217.858
7419,1217.583
7420,1217.196
7421,1216.706
7422,1216.131
7423,1215.479
7424,1214.749
7425,1213.946
7426,1213.062
7427,1212.101
7428,1211.079
7429,1210.014
7430,1208.928
7431,1207.863
7432,1206.891
7433,1206.048
7434,1205.345
7435,1204.787
7436,1204.357
7437,1204.045
7438,1203.830
7439,1203.722
7440,1203.732
7441,1203.880
7442,1204.169
7443,1204.555
7444,1204.949
7445,1205.258
7446,1205.453
7447,1205.537
7448,1205.480
7449,1205.238
7450,1204.814
7451,1204.240
7452,1203.540
7453,1202.767
7454,1202.001
7455,1201.292
7456,1200.650
7457,1200.082
7458,1199.625
7459,1199.326
7460,1199.215
7461,1199.289
7462,1199.541
7463,1199.914
7464,1200.317
7465,1200.697
7466,1201.067
7467,1201.497
7468,1202.068
7469,1202.825
7470,1203.739
7471,1204.710
7472,1205.611
7473,1206.357
7474,1206.915
7475,1207.288
7476,1207.503
7477,1207.560
7478,1207.456
7479,1207.204
7480,1206.811
7481,1206.266
7482,1205.584
7483,1204.808
7484,1203.987
7485,1203.161
7486,1202.371
7487,1201.682
7488,1201.151
7489,1200.788
7490,1200.529
7491,1200.327
7492,1200.193
7493,1200.216
7494,1200.472
7495,1200.942
7496,1201.504
7497,1201.988
7498,1202.283
7499,1202.415
7500,1202.452
7501,1202.445
7502,1202.398
7503,1202.334
7504,1202.310
7505,1202.371
7506,1202.505
7507,1202.697
7508,1202.932
7509,1203.171
7510,1203.376
7511,1203.537
7512,1203.665
7513,1203.769
7514,1203.856
7515,1203.971
7516,1204.135
7517,1204.361
7518,1204.596
7519,1204.744
7520,1204.693
7521,1204.384
7522,1203.870
7523,1203.305
7524,1202.848
7525,1202.613
7526,1202.613
7527,1202.828
7528,1203.235
7529,1203.779
7530,1204.377
7531,1204.945
7532,1205.436
7533,1205.833
7534,1206.132
7535,1206.323
7536,1206.394
7537,1206.327
7538,1206.162
7539,1205.967
7540,1205.809
7541,1205.718
7542,1205.715
7543,1205.796
7544,1205.964
7545,1206.196
7546,1206.461
7547,1206.730
7548,1206.952
7549,1207.076
7550,1207.120
7551,1207.177
7552,1207.335
7553,1207.607
7554,1207.937
7555,1208.229
7556,1208.424
7557,1208.528
7558,1208.599
7559,1208.666
7560,1208.747
7561,1208.858
7562,1209.009
7563,1209.194
7564,1209.463
7565,1209.886
7566,1210.481
7567,1211.214
7568,1212.020
7569,1212.834
7570,1213.570
7571,1214.175
7572,1214.628
7573,1214.975
7574,1215.277
7575,1215.583
7576,1215.929
7577,1216.326
7578,1216.816
7579,1217.458
7580,1218.309
7581,1219.391
7582,1220.698
7583,1222.157
7584,1223.676
7585,1225.165
7586,1226.520
7587,1227.609
7588,1228.348
7589,1228.768
7590,1228.990
7591,1229.138
7592,1229.252
7593,1229.306
7594,1229.269
7595,1229.141
7596,1228.940
7597,1228.701
7598,1228.476
7599,1228.294
7600,1228.170
7601,1228.113
7602,1228.106
7603,1228.106
7604,1228.082
7605,1228.049
7606,1228.042
7607,1228.096
7608,1228.217
7609,1228.398
7610,1228.607
7611,1228.795
7612,1228.923
7613,1228.966
7614,1228.903
7615,1228.724
7616,1228.452
7617,1228.082
7618,1227.592
7619,1226.940
7620,1226.120
7621,1225.185
7622,1224.224
7623,1223.300
7624,1222.449
7625,1221.707
7626,1221.085
7627,1220.581
7628,1220.134
7629,1219.680
7630,1219.199
7631,1218.709
7632,1218.245
7633,1217.818
7634,1217.395
7635,1216.944
7636,1216.453
7637,1215.943
7638,1215.425
7639,1214.891
7640,1214.333
7641,1213.808
7642,1213.405
7643,1213.146
7644,1212.965
7645,1212.773
7646,1212.508
7647,1212.165
7648,1211.849
7649,1211.714
7650,1211.862
7651,1212.259
7652,1212.790
7653,1213.311
7654,1213.671
7655,1213.738
7656,1213.432
7657,1212.733
7658,1211.657
7659,1210.262
7660,1208.649
7661,1206.942
7662,1205.224
7663,1203.500
7664,1201.759
7665,1200.042
7666,1198.435
7667,1197.000
7668,1195.746
7669,1194.647
7670,1193.706
7671,1192.940
7672,1192.355
7673,1191.932
7674,1191.619
7675,1191.374
7676,1191.159
7677,1190.950
7678,1190.742
7679,1190.527
7680,1190.315
7681,1190.117
7682,1189.928
7683,1189.757
7684,1189.643
7685,1189.646
7686,1189.828
7687,1190.265
7688,1191.011
7689,1192.046
7690,1193.283
7691,1194.604
7692,1195.894
7693,1197.034
7694,1197.911
7695,1198.499
7696,1198.852
7697,1199.027
7698,1199.064
7699,1199.003
7700,1198.885
7701,1198.731
7702,1198.533
7703,1198.294
7704,1198.035
7705,1197.810
7706,1197.625
7707,1197.420
7708,1197.131
7709,1196.738
7710,1196.247
7711,1195.679
7712,1195.104
7713,1194.684
7714,1194.634
7715,1195.104
7716,1196.133
7717,1197.612
7718,1199.329
7719,1201.003
7720,1202.391
7721,1203.346
7722,1203.809
7723,1203.772
7724,1203.235
7725,1202.223
7726,1200.832
7727,1199.232
7728,1197.676
7729,1196.429
7730,1195.682
7731,1195.508
7732,1195.851
7733,1196.563
7734,1197.427
7735,1198.220
7736,1198.788
7737,1199.047
7738,1199.003
7739,1198.741
7740,1198.317
7741,1197.736
7742,1196.990
7743,1196.146
7744,1195.306
7745,1194.533
7746,1193.841
7747,1193.256
7748,1192.809
7749,1192.510
7750,1192.348
7751,1192.311
7752,1192.362
7753,1192.429
7754,1192.503
7755,1192.674
7756,1193.084
7757,1193.831
7758,1194.943
7759,1196.338
7760,1197.857
7761,1199.333
7762,1200.653
7763,1201.769
7764,1202.660
7765,1203.315
7766,1203.756
7767,1204.021
7768,1204.166
7769,1204.236
7770,1204.263
7771,1204.277
7772,1204.297
7773,1204.374
7774,1204.542
7775,1204.794
7776,1205.070
7777,1205.339
7778,1205.638
7779,1206.007
7780,1206.434
7781,1206.868
7782,1207.288
7783,1207.675
7784,1208.048
7785,1208.407
7786,1208.747
7787,1209.019
7788,1209.210
7789,1209.335
7790,1209.422
7791,1209.479
7792,1209.506
7793,1209.503
7794,1209.493
7795,1209.510
7796,1209.560
7797,1209.621
7798,1209.661
7799,1209.688
7800,1209.731
7801,1209.815
7802,1209.926
7803,1210.044
7804,1210.168
7805,1210.323
7806,1210.562
7807,1210.891
7808,1211.264
7809,1211.644
7810,1212.000
7811,1212.309
7812,1212.558
7813,1212.763
7814,1212.931
7815,1213.049
7816,1213.126
7817,1213.227
7818,1213.375
7819,1213.576
7820,1213.822
7821,1214.091
7822,1214.349
7823,1214.521
7824,1214.521
7825,1214.329
7826,1214.000
7827,1213.590
7828,1213.143
7829,1212.706
7830,1212.313
7831,1211.997
7832,1211.768
7833,1211.644
7834,1211.620
7835,1211.688
7836,1211.809
7837,1211.950
7838,1212.067
7839,1212.118
7840,1212.067
7841,1211.913
7842,1211.698
7843,1211.519
7844,1211.449
7845,1211.503
7846,1211.620
7847,1211.731
7848,1211.788
7849,1211.788
7850,1211.758
7851,1211.751
7852,1211.839
7853,1212.081
7854,1212.494
7855,1213.005
7856,1213.492
7857,1213.876
7858,1214.161
7859,1214.373
7860,1214.541
7861,1214.686
7862,1214.830
7863,1214.971
7864,1215.042
7865,1214.978
7866,1214.770
7867,1214.447
7868,1214.050
7869,1213.597
7870,1213.113
7871,1212.615
7872,1212.141
7873,1211.704
7874,1211.304
7875,1210.938
7876,1210.599
7877,1210.286
7878,1210.027
7879,1209.886
7880,1209.916
7881,1210.064
7882,1210.189
7883,1210.152
7884,1209.896
7885,1209.432
7886,1208.794
7887,1208.011
7888,1207.110
7889,1206.125
7890,1205.134
7891,1204.213
7892,1203.399
7893,1202.677
7894,1202.015
7895,1201.386
7896,1200.781
7897,1200.193
7898,1199.635
7899,1199.117
7900,1198.647
7901,1198.254
7902,1197.965
7903,1197.793
7904,1197.706
7905,1197.635
7906,1197.481
7907,1197.165
7908,1196.634
7909,1195.904
7910,1195.034
7911,1194.133
7912,1193.357
7913,1192.846
7914,1192.721
7915,1193.061
7916,1193.911
7917,1195.289
7918,1197.155
7919,1199.403
7920,1201.853
7921,1204.290
7922,1206.512
7923,1208.390
7924,1209.869
7925,1210.911
7926,1211.513
7927,1211.681
7928,1211.435
7929,1210.814
7930,1209.876
7931,1208.716
7932,1207.433
7933,1206.088
7934,1204.740
7935,1203.446
7936,1202.270
7937,1201.275
7938,1200.529
7939,1200.075
7940,1199.894
7941,1199.880
7942,1199.901
7943,1199.847
7944,1199.699
7945,1199.561
7946,1199.585
7947,1199.870
7948,1200.405
7949,1201.087
7950,1201.816
7951,1202.512
7952,1203.077
7953,1203.386
7954,1203.335
7955,1202.912
7956,1202.176
7957,1201.208
7958,1200.075
7959,1198.872
7960,1197.736
7961,1196.839
7962,1196.304
7963,1196.217
7964,1196.587
7965,1197.386
7966,1198.536
7967,1199.921
7968,1201.426
7969,1202.996
7970,1204.569
7971,1206.061
7972,1207.348
7973,1208.337
7974,1208.972
7975,1209.254
7976,1209.234
7977,1209.002
7978,1208.659
7979,1208.249
7980,1207.735
7981,1207.083
7982,1206.303
7983,1205.460
7984,1204.603
7985,1203.756
7986,1202.942
7987,1202.213
7988,1201.598
7989,1201.110
7990,1200.724
7991,1200.418
7992,1200.220
7993,1200.156
7994,1200.223
7995,1200.395
7996,1200.657
7997,1201.003
7998,1201.416
7999,1201.873
8000,1202.404
8001,1203.013
8002,1203.608
8003,1204.031
8004,1204.125
8005,1203.843
8006,1203.225
8007,1202.418
8008,1201.625
8009,1201.000
8010,1200.569
8011,1200.247
8012,1199.914
8013,1199.524
8014,1199.151
8015,1198.943
8016,1198.990
8017,1199.272
8018,1199.679
8019,1200.085
8020,1200.354
8021,1200.391
8022,1200.206
8023,1199.887
8024,1199.527
8025,1199.191
8026,1198.916
8027,1198.701
8028,1198.536
8029,1198.385
8030,1198.223
8031,1198.049
8032,1197.874
8033,1197.706
8034,1197.588
8035,1197.575
8036,1197.689
8037,1197.907
8038,1198.200
8039,1198.529
8040,1198.855
8041,1199.164
8042,1199.447
8043,1199.645
8044,1199.672
8045,1199.460
8046,1199.043
8047,1198.539
8048,1198.069
8049,1197.679
8050,1197.370
8051,1197.134
8052,1196.980
8053,1196.872
8054,1196.778
8055,1196.711
8056,1196.701
8057,1196.758
8058,1196.886
8059,1197.057
8060,1197.229
8061,1197.370
8062,1197.487
8063,1197.578
8064,1197.632
8065,1197.706
8066,1197.874
8067,1198.196
8068,1198.687
8069,1199.329
8070,1200.072
8071,1200.842
8072,1201.557
8073,1202.119
8074,1202.458
8075,1202.525
8076,1202.331
8077,1201.961
8078,1201.544
8079,1201.248
8080,1201.228
8081,1201.591
8082,1202.354
8083,1203.463
8084,1204.808
8085,1206.243
8086,1207.597
8087,1208.720
8088,1209.523
8089,1209.957
8090,1210.031
8091,1209.785
8092,1209.298
8093,1208.656
8094,1207.987
8095,1207.466
8096,1207.244
8097,1207.375
8098,1207.792
8099,1208.357
8100,1208.918
8101,1209.355
8102,1209.584
8103,1209.557
8104,1209.224
8105,1208.542
8106,1207.476
8107,1206.028
8108,1204.243
8109,1202.236
8110,1200.223
8111,1198.459
8112,1197.188
8113,1196.587
8114,1196.738
8115,1197.632
8116,1199.158
8117,1201.110
8118,1203.198
8119,1205.140
8120,1206.713
8121,1207.779
8122,1208.266
8123,1208.155
8124,1207.483
8125,1206.323
8126,1204.794
8127,1203.053
8128,1201.275
8129,1199.635
8130,1198.281
8131,1197.289
8132,1196.671
8133,1196.361
8134,1196.237
8135,1196.193
8136,1196.244
8137,1196.455
8138,1196.869
8139,1197.464
8140,1198.166
8141,1198.899
8142,1199.578
8143,1200.153
8144,1200.626
8145,1201.026
8146,1201.366
8147,1201.628
8148,1201.769
8149,1201.705
8150,1201.366
8151,1200.754
8152,1199.995
8153,1199.326
8154,1199.006
8155,1199.191
8156,1199.901
8157,1201.080
8158,1202.586
8159,1204.203
8160,1205.681
8161,1206.831
8162,1207.547
8163,1207.822
8164,1207.742
8165,1207.436
8166,1207.046
8167,1206.683
8168,1206.384
8169,1206.102
8170,1205.755
8171,1205.312
8172,1204.794
8173,1204.266
8174,1203.796
8175,1203.426
8176,1203.157
8177,1202.986
8178,1202.942
8179,1203.087
8180,1203.450
8181,1203.984
8182,1204.566
8183,1205.029
8184,1205.234
8185,1205.103
8186,1204.660
8187,1204.065
8188,1203.561
8189,1203.376
8190,1203.614
8191,1204.243
8192,1205.120
8193,1206.041
8194,1206.824
8195,1207.348
8196,1207.607
8197,1207.675
8198,1207.614
8199,1207.412
8200,1206.992
8201,1206.300
8202,1205.318
8203,1204.085
8204,1202.694
8205,1201.275
8206,1199.954
8207,1198.801
8208,1197.830
8209,1197.034
8210,1196.378
8211,1195.824
8212,1195.340
8213,1194.916
8214,1194.536
8215,1194.194
8216,1193.884
8217,1193.575
8218,1193.226
8219,1192.826
8220,1192.429
8221,1192.076
8222,1191.797
8223,1191.609
8224,1191.538
8225,1191.622
8226,1191.918
8227,1192.436
8228,1193.084
8229,1193.686
8230,1194.066
8231,1194.103
8232,1193.757
8233,1193.054
8234,1192.090
8235,1191.048
8236,1190.140
8237,1189.528
8238,1189.283
8239,1189.347
8240,1189.589
8241,1189.848
8242,1190.029
8243,1190.110
8244,1190.107
8245,1190.029
8246,1189.891
8247,1189.713
8248,1189.505
8249,1189.246
8250,1188.920
8251,1188.507
8252,1188.023
8253,1187.505
8254,1187.014
8255,1186.614
8256,1186.349
8257,1186.238
8258,1186.268
8259,1186.423
8260,1186.688
8261,1187.041
8262,1187.455
8263,1187.912
8264,1188.429
8265,1189.001
8266,1189.606
8267,1190.234
8268,1190.890
8269,1191.545
8270,1192.143
8271,1192.647
8272,1193.068
8273,1193.434
8274,1193.800
8275,1194.210
8276,1194.644
8277,1195.020
8278,1195.272
8279,1195.363
8280,1195.306
8281,1195.138
8282,1194.926
8283,1194.741
8284,1194.617
8285,1194.563
8286,1194.573
8287,1194.661
8288,1194.862
8289,1195.202
8290,1195.659
8291,1196.177
8292,1196.687
8293,1197.141
8294,1197.487
8295,1197.692
8296,1197.743
8297,1197.645
8298,1197.423
8299,1197.104
8300,1196.691
8301,1196.220
8302,1195.743
8303,1195.316
8304,1194.973
8305,1194.704
8306,1194.462
8307,1194.210
8308,1193.941
8309,1193.683
8310,1193.451
8311,1193.246
8312,1193.111
8313,1193.131
8314,1193.390
8315,1193.918
8316,1194.678
8317,1195.561
8318,1196.452
8319,1197.229
8320,1197.833
8321,1198.277
8322,1198.593
8323,1198.822
8324,1198.966
8325,1199.013
8326,1198.946
8327,1198.748
8328,1198.412
8329,1197.954
8330,1197.440
8331,1196.950
8332,1196.526
8333,1196.153
8334,1195.810
8335,1195.504
8336,1195.289
8337,1195.276
8338,1195.578
8339,1196.277
8340,1197.326
8341,1198.549
8342,1199.732
8343,1200.721
8344,1201.490
8345,1202.089
8346,1202.606
8347,1203.134
8348,1203.722
8349,1204.361
8350,1204.982
8351,1205.490
8352,1205.802
8353,1205.903
8354,1205.849
8355,1205.708
8356,1205.517
8357,1205.292
8358,1205.016
8359,1204.653
8360,1204.193
8361,1203.648
8362,1203.043
8363,1202.391
8364,1201.678
8365,1200.855
8366,1199.897
8367,1198.832
8368,1197.739
8369,1196.697
8370,1195.726
8371,1194.768
8372,1193.720
8373,1192.537
8374,1191.253
8375,1189.928
8376,1188.618
8377,1187.374
8378,1186.241
8379,1185.243
8380,1184.373
8381,1183.620
8382,1182.958
8383,1182.366
8384,1181.822
8385,1181.311
8386,1180.837
8387,1180.427
8388,1180.114
8389,1179.929
8390,1179.913
8391,1180.111
8392,1180.541
8393,1181.186
8394,1182.000
8395,1182.951
8396,1184.000
8397,1185.102
8398,1186.211
8399,1187.233
8400,1188.063
8401,1188.651
8402,1189.061
8403,1189.431
8404,1189.905
8405,1190.550
8406,1191.350
8407,1192.237
8408,1193.168
8409,1194.116
8410,1195.057
8411,1195.978
8412,1196.886
8413,1197.776
8414,1198.627
8415,1199.433
8416,1200.193
8417,1200.902
8418,1201.554
8419,1202.142
8420,1202.673
8421,1203.177
8422,1203.688
8423,1204.213
8424,1204.707
8425,1205.144
8426,1205.527
8427,1205.849
8428,1206.095
8429,1206.209
8430,1206.179
8431,1206.048
8432,1205.903
8433,1205.796
8434,1205.742
8435,1205.742
8436,1205.779
8437,1205.792
8438,1205.695
8439,1205.433
8440,1205.023
8441,1204.502
8442,1203.880
8443,1203.171
8444,1202.381
8445,1201.521
8446,1200.600
8447,1199.675
8448,1198.832
8449,1198.173
8450,1197.749
8451,1197.578
8452,1197.622
8453,1197.800
8454,1198.025
8455,1198.274
8456,1198.553
8457,1198.825
8458,1198.966
8459,1198.855
8460,1198.418
8461,1197.645
8462,1196.607
8463,1195.451
8464,1194.352
8465,1193.424
8466,1192.674
8467,1192.032
8468,1191.427
8469,1190.859
8470,1190.338
8471,1189.881
8472,1189.498
8473,1189.186
8474,1188.934
8475,1188.725
8476,1188.584
8477,1188.544
8478,1188.614
8479,1188.786
8480,1189.024
8481,1189.293
8482,1189.606
8483,1190.033
8484,1190.631
8485,1191.401
8486,1192.301
8487,1193.310
8488,1194.375
8489,1195.397
8490,1196.261
8491,1196.906
8492,1197.356
8493,1197.682
8494,1197.907
8495,1198.002
8496,1197.904
8497,1197.575
8498,1197.071
8499,1196.533
8500,1196.113
8501,1195.904
8502,1195.935
8503,1196.180
8504,1196.546
8505,1196.879
8506,1197.034
8507,1196.923
8508,1196.560
8509,1196.039
8510,1195.481
8511,1194.977
8512,1194.557
8513,1194.210
8514,1193.972
8515,1193.935
8516,1194.237
8517,1194.953
8518,1196.069
8519,1197.454
8520,1198.906
8521,1200.230
8522,1201.309
8523,1202.119
8524,1202.714
8525,1203.164
8526,1203.537
8527,1203.910
8528,1204.357
8529,1204.892
8530,1205.480
8531,1206.088
8532,1206.720
8533,1207.379
8534,1208.041
8535,1208.679
8536,1209.271
8537,1209.826
8538,1210.370
8539,1210.891
8540,1211.368
8541,1211.792
8542,1212.198
8543,1212.612
8544,1213.039
8545,1213.469
8546,1213.882
8547,1214.262
8548,1214.598
8549,1214.867
8550,1215.035
8551,1215.049
8552,1214.891
8553,1214.581
8554,1214.195
8555,1213.785
8556,1213.358
8557,1212.871
8558,1212.296
8559,1211.644
8560,1210.945
8561,1210.192
8562,1209.375
8563,1208.474
8564,1207.466
8565,1206.394
8566,1205.382
8567,1204.589
8568,1204.142
8569,1204.072
8570,1204.310
8571,1204.717
8572,1205.154
8573,1205.584
8574,1206.038
8575,1206.549
8576,1207.113
8577,1207.735
8578,1208.407
8579,1209.093
8580,1209.711
8581,1210.232
8582,1210.656
8583,1211.009
8584,1211.331
8585,1211.674
8586,1212.037
8587,1212.380
8588,1212.682
8589,1212.941
8590,1213.160
8591,1213.368
8592,1213.590
8593,1213.845
8594,1214.124
8595,1214.400
8596,1214.659
8597,1214.907
8598,1215.159
8599,1215.412
8600,1215.674
8601,1215.916
8602,1216.111
8603,1216.232
8604,1216.306
8605,1216.339
8606,1216.349
8607,1216.339
8608,1216.329
8609,1216.339
8610,1216.376
8611,1216.437
8612,1216.484
8613,1216.480
8614,1216.373
8615,1216.124
8616,1215.748
8617,1215.270
8618,1214.736
8619,1214.185
8620,1213.671
8621,1213.260
8622,1212.992
8623,1212.844
8624,1212.770
8625,1212.726
8626,1212.672
8627,1212.575
8628,1212.366
8629,1211.987
8630,1211.409
8631,1210.649
8632,1209.755
8633,1208.763
8634,1207.718
8635,1206.703
8636,1205.802
8637,1205.087
8638,1204.619
8639,1204.424
8640,1204.471
8641,1204.724
8642,1205.177
8643,1205.843
8644,1206.649
8645,1207.483
8646,1208.249
