'Elapsed time','wrist_ppg'
'hh:mm:ss.mmm','mV'
'0:00.000',1388.412
'0:00.004',1388.178
'0:00.008',1387.805
'0:00.012',1387.440
'0:00.016',1387.149
'0:00.020',1386.940
'0:00.023',1386.797
'0:00.027',1386.702
'0:00.031',1386.715
'0:00.035',1386.924
'0:00.039',1387.346
'0:00.043',1387.912
'0:00.047',1388.576
'0:00.051',1389.297
'0:00.055',1390.043
'0:00.059',1390.773
'0:00.063',1391.412
'0:00.066',1391.859
'0:00.070',1391.945
'0:00.074',1391.527
'0:00.078',1390.568
'0:00.082',1389.063
'0:00.086',1387.034
'0:00.090',1384.591
'0:00.094',1382.000
'0:00.098',1379.557
'0:00.102',1377.503
'0:00.105',1375.966
'0:00.109',1374.950
'0:00.113',1374.433
'0:00.117',1374.421
'0:00.121',1374.929
'0:00.125',1375.913
'0:00.129',1377.241
'0:00.133',1378.688
'0:00.137',1380.020
'0:00.141',1381.127
'0:00.145',1382.009
'0:00.148',1382.689
'0:00.152',1383.103
'0:00.156',1383.136
'0:00.160',1382.681
'0:00.164',1381.804
'0:00.168',1380.734
'0:00.172',1379.758
'0:00.176',1379.041
'0:00.180',1378.569
'0:00.184',1378.159
'0:00.188',1377.598
'0:00.191',1376.790
'0:00.195',1375.851
'0:00.199',1374.978
'0:00.203',1374.249
'0:00.207',1373.613
'0:00.211',1372.941
'0:00.215',1372.170
'0:00.219',1371.330
'0:00.223',1370.481
'0:00.227',1369.686
'0:00.230',1369.010
'0:00.234',1368.522
'0:00.238',1368.255
'0:00.242',1368.177
'0:00.246',1368.186
'0:00.250',1368.182
'0:00.254',1368.100
'0:00.258',1367.997
'0:00.262',1367.973
'0:00.266',1368.067
'0:00.270',1368.251
'0:00.273',1368.522
'0:00.277',1368.895
'0:00.281',1369.387
'0:00.285',1369.948
'0:00.289',1370.477
'0:00.293',1370.854
'0:00.297',1371.039
'0:00.301',1371.067
'0:00.305',1370.981
'0:00.309',1370.817
'0:00.313',1370.658
'0:00.316',1370.530
'0:00.320',1370.428
'0:00.324',1370.326
'0:00.328',1370.170
'0:00.332',1369.903
'0:00.336',1369.567
'0:00.340',1369.268
'0:00.344',1369.071
'0:00.348',1368.956
'0:00.352',1368.870
'0:00.355',1368.731
'0:00.359',1368.456
'0:00.363',1367.993
'0:00.367',1367.345
'0:00.371',1366.542
'0:00.375',1365.640
'0:00.379',1364.714
'0:00.383',1363.799
'0:00.387',1362.861
'0:00.391',1361.889
'0:00.395',1360.922
'0:00.398',1360.090
'0:00.402',1359.635
'0:00.406',1359.794
'0:00.410',1360.655
'0:00.414',1362.102
'0:00.418',1363.910
'0:00.422',1365.816
'0:00.426',1367.599
'0:00.430',1369.088
'0:00.434',1370.182
'0:00.438',1370.879
'0:00.441',1371.268
'0:00.445',1371.445
'0:00.449',1371.506
'0:00.453',1371.527
'0:00.457',1371.563
'0:00.461',1371.600
'0:00.465',1371.555
'0:00.469',1371.338
'0:00.473',1370.961
'0:00.477',1370.535
'0:00.480',1370.166
'0:00.484',1369.899
'0:00.488',1369.707
'0:00.492',1369.510
'0:00.496',1369.194
'0:00.500',1368.760
'0:00.504',1368.305
'0:00.508',1367.891
'0:00.512',1367.517
'0:00.516',1367.194
'0:00.520',1366.993
'0:00.523',1367.017
'0:00.527',1367.304
'0:00.531',1367.821
'0:00.535',1368.469
'0:00.539',1369.092
'0:00.543',1369.514
'0:00.547',1369.620
'0:00.551',1369.424
'0:00.555',1369.042
'0:00.559',1368.596
'0:00.563',1368.194
'0:00.566',1367.899
'0:00.570',1367.731
'0:00.574',1367.599
'0:00.578',1367.362
'0:00.582',1366.898
'0:00.586',1366.124
'0:00.590',1364.992
'0:00.594',1363.656
'0:00.598',1362.463
'0:00.602',1361.713
'0:00.605',1361.442
'0:00.609',1361.442
'0:00.613',1361.455
'0:00.617',1361.393
'0:00.621',1361.336
'0:00.625',1361.291
'0:00.629',1361.147
'0:00.633',1360.827
'0:00.637',1360.389
'0:00.641',1359.979
'0:00.645',1359.741
'0:00.648',1359.721
'0:00.652',1359.786
'0:00.656',1359.655
'0:00.660',1359.061
'0:00.664',1357.913
'0:00.668',1356.306
'0:00.672',1354.490
'0:00.676',1352.768
'0:00.680',1351.350
'0:00.684',1350.247
'0:00.688',1349.399
'0:00.691',1348.821
'0:00.695',1348.636
'0:00.699',1348.919
'0:00.703',1349.644
'0:00.707',1350.796
'0:00.711',1352.420
'0:00.715',1354.482
'0:00.719',1356.732
'0:00.723',1358.753
'0:00.727',1360.147
'0:00.730',1360.676
'0:00.734',1360.344
'0:00.738',1359.356
'0:00.742',1358.060
'0:00.746',1356.810
'0:00.750',1355.806
'0:00.754',1355.043
'0:00.758',1354.465
'0:00.762',1354.125
'0:00.766',1354.088
'0:00.770',1354.342
'0:00.773',1354.842
'0:00.777',1355.617
'0:00.781',1356.630
'0:00.785',1357.712
'0:00.789',1358.667
'0:00.793',1359.421
'0:00.797',1359.987
'0:00.801',1360.340
'0:00.805',1360.450
'0:00.809',1360.356
'0:00.813',1360.069
'0:00.816',1359.544
'0:00.820',1358.749
'0:00.824',1357.757
'0:00.828',1356.663
'0:00.832',1355.494
'0:00.836',1354.240
'0:00.840',1352.998
'0:00.844',1352.014
'0:00.848',1351.551
'0:00.852',1351.764
'0:00.855',1352.604
'0:00.859',1353.834
'0:00.863',1355.060
'0:00.867',1355.916
'0:00.871',1356.175
'0:00.875',1355.789
'0:00.879',1354.888
'0:00.883',1353.756
'0:00.887',1352.772
'0:00.891',1352.231
'0:00.895',1352.284
'0:00.898',1352.916
'0:00.902',1354.018
'0:00.906',1355.408
'0:00.910',1356.863
'0:00.914',1358.196
'0:00.918',1359.389
'0:00.922',1360.586
'0:00.926',1361.922
'0:00.930',1363.373
'0:00.934',1364.742
'0:00.938',1365.857
'0:00.941',1366.730
'0:00.945',1367.526
'0:00.949',1368.370
'0:00.953',1369.239
'0:00.957',1369.993
'0:00.961',1370.547
'0:00.965',1370.916
'0:00.969',1371.178
'0:00.973',1371.395
'0:00.977',1371.588
'0:00.980',1371.768
'0:00.984',1371.994
'0:00.988',1372.375
'0:00.992',1372.978
'0:00.996',1373.798
'0:01.000',1374.794
'0:01.004',1375.901
'0:01.008',1377.011
'0:01.012',1377.999
'0:01.016',1378.782
'0:01.020',1379.348
'0:01.023',1379.746
'0:01.027',1380.061
'0:01.031',1380.410
'0:01.035',1380.840
'0:01.039',1381.299
'0:01.043',1381.705
'0:01.047',1381.980
'0:01.051',1382.140
'0:01.055',1382.275
'0:01.059',1382.443
'0:01.063',1382.685
'0:01.066',1383.091
'0:01.070',1383.726
'0:01.074',1384.530
'0:01.078',1385.362
'0:01.082',1386.137
'0:01.086',1386.788
'0:01.090',1387.293
'0:01.094',1387.645
'0:01.098',1387.871
'0:01.102',1388.018
'0:01.105',1388.207
'0:01.109',1388.539
'0:01.113',1389.002
'0:01.117',1389.461
'0:01.121',1389.695
'0:01.125',1389.568
'0:01.129',1389.141
'0:01.133',1388.604
'0:01.137',1388.076
'0:01.141',1387.641
'0:01.145',1387.366
'0:01.148',1387.264
'0:01.152',1387.206
'0:01.156',1387.088
'0:01.160',1386.928
'0:01.164',1386.809
'0:01.168',1386.801
'0:01.172',1386.915
'0:01.176',1387.137
'0:01.180',1387.457
'0:01.184',1387.875
'0:01.188',1388.354
'0:01.191',1388.822
'0:01.195',1389.219
'0:01.199',1389.531
'0:01.203',1389.719
'0:01.207',1389.777
'0:01.211',1389.760
'0:01.215',1389.764
'0:01.219',1389.793
'0:01.223',1389.769
'0:01.227',1389.617
'0:01.230',1389.338
'0:01.234',1389.031
'0:01.238',1388.793
'0:01.242',1388.641
'0:01.246',1388.559
'0:01.250',1388.559
'0:01.254',1388.662
'0:01.258',1388.830
'0:01.262',1388.957
'0:01.266',1388.977
'0:01.270',1388.867
'0:01.273',1388.670
'0:01.277',1388.432
'0:01.281',1388.174
'0:01.285',1387.879
'0:01.289',1387.481
'0:01.293',1386.891
'0:01.297',1386.124
'0:01.301',1385.226
'0:01.305',1384.157
'0:01.309',1382.861
'0:01.313',1381.390
'0:01.316',1379.942
'0:01.320',1378.733
'0:01.324',1377.905
'0:01.328',1377.553
'0:01.332',1377.704
'0:01.336',1378.307
'0:01.340',1379.254
'0:01.344',1380.455
'0:01.348',1381.808
'0:01.352',1383.087
'0:01.355',1383.976
'0:01.359',1384.189
'0:01.363',1383.550
'0:01.367',1382.054
'0:01.371',1379.873
'0:01.375',1377.323
'0:01.379',1374.790
'0:01.383',1372.605
'0:01.387',1371.026
'0:01.391',1370.268
'0:01.395',1370.416
'0:01.398',1371.285
'0:01.402',1372.416
'0:01.406',1373.261
'0:01.410',1373.425
'0:01.414',1372.818
'0:01.418',1371.625
'0:01.422',1370.227
'0:01.426',1369.001
'0:01.430',1368.161
'0:01.434',1367.665
'0:01.438',1367.333
'0:01.441',1366.935
'0:01.445',1366.279
'0:01.449',1365.279
'0:01.453',1364.054
'0:01.457',1362.910
'0:01.461',1362.176
'0:01.465',1362.000
'0:01.469',1362.328
'0:01.473',1362.959
'0:01.477',1363.664
'0:01.480',1364.308
'0:01.484',1364.943
'0:01.488',1365.742
'0:01.492',1366.796
'0:01.496',1368.022
'0:01.500',1369.342
'0:01.504',1370.789
'0:01.508',1372.424
'0:01.512',1374.175
'0:01.516',1375.843
'0:01.520',1377.270
'0:01.523',1378.368
'0:01.527',1379.106
'0:01.531',1379.467
'0:01.535',1379.545
'0:01.539',1379.537
'0:01.543',1379.635
'0:01.547',1379.873
'0:01.551',1380.061
'0:01.555',1379.983
'0:01.559',1379.606
'0:01.563',1379.098
'0:01.566',1378.725
'0:01.570',1378.627
'0:01.574',1378.696
'0:01.578',1378.725
'0:01.582',1378.586
'0:01.586',1378.295
'0:01.590',1377.979
'0:01.594',1377.704
'0:01.598',1377.442
'0:01.602',1377.139
'0:01.605',1376.798
'0:01.609',1376.392
'0:01.613',1375.855
'0:01.617',1375.208
'0:01.621',1374.544
'0:01.625',1373.933
'0:01.629',1373.355
'0:01.633',1372.760
'0:01.637',1372.150
'0:01.641',1371.576
'0:01.645',1371.108
'0:01.648',1370.813
'0:01.652',1370.756
'0:01.656',1371.072
'0:01.660',1371.850
'0:01.664',1373.056
'0:01.668',1374.470
'0:01.672',1375.687
'0:01.676',1376.261
'0:01.680',1375.864
'0:01.684',1374.372
'0:01.688',1371.863
'0:01.691',1368.538
'0:01.695',1364.742
'0:01.699',1360.840
'0:01.703',1357.097
'0:01.707',1353.584
'0:01.711',1350.333
'0:01.715',1347.439
'0:01.719',1345.025
'0:01.723',1343.151
'0:01.727',1341.794
'0:01.730',1340.880
'0:01.734',1340.306
'0:01.738',1339.974
'0:01.742',1339.663
'0:01.746',1339.101
'0:01.750',1338.138
'0:01.754',1336.789
'0:01.758',1335.133
'0:01.762',1333.231
'0:01.766',1331.210
'0:01.770',1329.324
'0:01.773',1327.894
'0:01.777',1327.143
'0:01.781',1327.016
'0:01.785',1327.229
'0:01.789',1327.516
'0:01.793',1327.783
'0:01.797',1328.144
'0:01.801',1328.701
'0:01.805',1329.386
'0:01.809',1329.992
'0:01.813',1330.341
'0:01.816',1330.374
'0:01.820',1330.099
'0:01.824',1329.521
'0:01.828',1328.672
'0:01.832',1327.684
'0:01.836',1326.750
'0:01.840',1326.098
'0:01.844',1325.930
'0:01.848',1326.393
'0:01.852',1327.557
'0:01.855',1329.443
'0:01.859',1331.940
'0:01.863',1334.805
'0:01.867',1337.646
'0:01.871',1340.060
'0:01.875',1341.815
'0:01.879',1342.967
'0:01.883',1343.815
'0:01.887',1344.680
'0:01.891',1345.750
'0:01.895',1347.074
'0:01.898',1348.640
'0:01.902',1350.456
'0:01.906',1352.551
'0:01.910',1354.949
'0:01.914',1357.597
'0:01.918',1360.413
'0:01.922',1363.328
'0:01.926',1366.255
'0:01.930',1369.030
'0:01.934',1371.436
'0:01.938',1373.326
'0:01.941',1374.609
'0:01.945',1375.208
'0:01.949',1375.118
'0:01.953',1374.466
'0:01.957',1373.453
'0:01.961',1372.248
'0:01.965',1371.026
'0:01.969',1369.940
'0:01.973',1369.075
'0:01.977',1368.464
'0:01.980',1368.079
'0:01.984',1367.858
'0:01.988',1367.763
'0:01.992',1367.755
'0:01.996',1367.776
'0:02.000',1367.763
'0:02.004',1367.645
'0:02.008',1367.349
'0:02.012',1366.866
'0:02.016',1366.263
'0:02.020',1365.570
'0:02.023',1364.722
'0:02.027',1363.709
'0:02.031',1362.643
'0:02.035',1361.668
'0:02.039',1360.840
'0:02.043',1360.155
'0:02.047',1359.548
'0:02.051',1358.884
'0:02.055',1358.056
'0:02.059',1357.085
'0:02.063',1356.117
'0:02.066',1355.310
'0:02.070',1354.822
'0:02.074',1354.719
'0:02.078',1354.900
'0:02.082',1355.158
'0:02.086',1355.289
'0:02.090',1355.146
'0:02.094',1354.687
'0:02.098',1354.023
'0:02.102',1353.399
'0:02.105',1353.022
'0:02.109',1352.973
'0:02.113',1353.194
'0:02.117',1353.613
'0:02.121',1354.166
'0:02.125',1354.793
'0:02.129',1355.338
'0:02.133',1355.670
'0:02.137',1355.834
'0:02.141',1356.031
'0:02.145',1356.449
'0:02.148',1357.146
'0:02.152',1358.097
'0:02.156',1359.290
'0:02.160',1360.635
'0:02.164',1361.992
'0:02.168',1363.262
'0:02.172',1364.427
'0:02.176',1365.550
'0:02.180',1366.722
'0:02.184',1367.989
'0:02.188',1369.354
'0:02.191',1370.789
'0:02.195',1372.260
'0:02.199',1373.699
'0:02.203',1374.995
'0:02.207',1375.942
'0:02.211',1376.331
'0:02.215',1376.052
'0:02.219',1375.130
'0:02.223',1373.765
'0:02.227',1372.305
'0:02.230',1371.113
'0:02.234',1370.379
'0:02.238',1370.026
'0:02.242',1369.842
'0:02.246',1369.702
'0:02.250',1369.633
'0:02.254',1369.690
'0:02.258',1369.883
'0:02.262',1370.203
'0:02.266',1370.592
'0:02.270',1370.990
'0:02.273',1371.346
'0:02.277',1371.645
'0:02.281',1371.834
'0:02.285',1371.793
'0:02.289',1371.408
'0:02.293',1370.612
'0:02.297',1369.403
'0:02.301',1367.891
'0:02.305',1366.271
'0:02.309',1364.714
'0:02.313',1363.369
'0:02.316',1362.393
'0:02.320',1361.881
'0:02.324',1361.721
'0:02.328',1361.541
'0:02.332',1360.860
'0:02.336',1359.376
'0:02.340',1357.154
'0:02.344',1354.596
'0:02.348',1352.243
'0:02.352',1350.546
'0:02.355',1349.714
'0:02.359',1349.722
'0:02.363',1350.350
'0:02.367',1351.272
'0:02.371',1352.174
'0:02.375',1352.949
'0:02.379',1353.674
'0:02.383',1354.531
'0:02.387',1355.728
'0:02.391',1357.458
'0:02.395',1359.839
'0:02.398',1362.824
'0:02.402',1366.120
'0:02.406',1369.243
'0:02.410',1371.744
'0:02.414',1373.306
'0:02.418',1373.781
'0:02.422',1373.150
'0:02.426',1371.563
'0:02.430',1369.346
'0:02.434',1366.956
'0:02.438',1364.832
'0:02.441',1363.242
'0:02.445',1362.238
'0:02.449',1361.770
'0:02.453',1361.758
'0:02.457',1362.110
'0:02.461',1362.783
'0:02.465',1363.775
'0:02.469',1365.087
'0:02.473',1366.718
'0:02.477',1368.612
'0:02.480',1370.707
'0:02.484',1372.957
'0:02.488',1375.306
'0:02.492',1377.557
'0:02.496',1379.418
'0:02.500',1380.709
'0:02.504',1381.455
'0:02.508',1381.799
'0:02.512',1381.886
'0:02.516',1381.775
'0:02.520',1381.484
'0:02.523',1380.992
'0:02.527',1380.246
'0:02.531',1379.246
'0:02.535',1378.110
'0:02.539',1377.036
'0:02.543',1376.204
'0:02.547',1375.773
'0:02.551',1375.847
'0:02.555',1376.310
'0:02.559',1376.872
'0:02.563',1377.175
'0:02.566',1376.909
'0:02.570',1375.962
'0:02.574',1374.511
'0:02.578',1372.945
'0:02.582',1371.637
'0:02.586',1370.822
'0:02.590',1370.592
'0:02.594',1370.895
'0:02.598',1371.563
'0:02.602',1372.396
'0:02.605',1373.326
'0:02.609',1374.507
'0:02.613',1376.085
'0:02.617',1378.045
'0:02.621',1380.131
'0:02.625',1381.939
'0:02.629',1383.115
'0:02.633',1383.538
'0:02.637',1383.370
'0:02.641',1382.960
'0:02.645',1382.566
'0:02.648',1382.205
'0:02.652',1381.726
'0:02.656',1380.992
'0:02.660',1380.045
'0:02.664',1379.065
'0:02.668',1378.208
'0:02.672',1377.430
'0:02.676',1376.503
'0:02.680',1375.249
'0:02.684',1373.679
'0:02.688',1371.941
'0:02.691',1370.223
'0:02.695',1368.632
'0:02.699',1367.185
'0:02.703',1365.861
'0:02.707',1364.701
'0:02.711',1363.771
'0:02.715',1363.086
'0:02.719',1362.549
'0:02.723',1362.057
'0:02.727',1361.664
'0:02.730',1361.487
'0:02.734',1361.512
'0:02.738',1361.491
'0:02.742',1361.102
'0:02.746',1360.102
'0:02.750',1358.384
'0:02.754',1355.884
'0:02.758',1352.608
'0:02.762',1348.652
'0:02.766',1344.221
'0:02.770',1339.622
'0:02.773',1335.223
'0:02.777',1331.386
'0:02.781',1328.340
'0:02.785',1326.172
'0:02.789',1324.917
'0:02.793',1324.503
'0:02.797',1324.700
'0:02.801',1325.209
'0:02.805',1325.864
'0:02.809',1326.660
'0:02.813',1327.639
'0:02.816',1328.763
'0:02.820',1329.845
'0:02.824',1330.669
'0:02.828',1331.066
'0:02.832',1330.939
'0:02.836',1330.304
'0:02.840',1329.435
'0:02.844',1328.783
'0:02.848',1328.767
'0:02.852',1329.640
'0:02.855',1331.501
'0:02.859',1334.280
'0:02.863',1337.728
'0:02.867',1341.458
'0:02.871',1345.102
'0:02.875',1348.488
'0:02.879',1351.612
'0:02.883',1354.543
'0:02.887',1357.388
'0:02.891',1360.262
'0:02.895',1363.209
'0:02.898',1366.144
'0:02.902',1368.899
'0:02.906',1371.375
'0:02.910',1373.568
'0:02.914',1375.495
'0:02.918',1377.081
'0:02.922',1378.229
'0:02.926',1378.914
'0:02.930',1379.201
'0:02.934',1379.233
'0:02.938',1379.188
'0:02.941',1379.176
'0:02.945',1379.127
'0:02.949',1378.832
'0:02.953',1378.176
'0:02.957',1377.229
'0:02.961',1376.171
'0:02.965',1375.204
'0:02.969',1374.552
'0:02.973',1374.408
'0:02.977',1374.872
'0:02.980',1375.892
'0:02.984',1377.270
'0:02.988',1378.745
'0:02.992',1380.127
'0:02.996',1381.320
'0:03.000',1382.357
'0:03.004',1383.390
'0:03.008',1384.526
'0:03.012',1385.731
'0:03.016',1386.952
'0:03.020',1388.272
'0:03.023',1389.830
'0:03.027',1391.691
'0:03.031',1393.802
'0:03.035',1396.057
'0:03.039',1398.287
'0:03.043',1400.263
'0:03.047',1401.849
'0:03.051',1403.046
'0:03.055',1403.874
'0:03.059',1404.296
'0:03.063',1404.333
'0:03.066',1404.157
'0:03.070',1403.973
'0:03.074',1403.846
'0:03.078',1403.690
'0:03.082',1403.321
'0:03.086',1402.583
'0:03.090',1401.476
'0:03.094',1400.156
'0:03.098',1398.787
'0:03.102',1397.442
'0:03.105',1396.122
'0:03.109',1394.860
'0:03.113',1393.733
'0:03.117',1392.753
'0:03.121',1391.884
'0:03.125',1391.150
'0:03.129',1390.613
'0:03.133',1390.314
'0:03.137',1390.183
'0:03.141',1390.084
'0:03.145',1389.826
'0:03.148',1389.256
'0:03.152',1388.375
'0:03.156',1387.317
'0:03.160',1386.223
'0:03.164',1385.198
'0:03.168',1384.300
'0:03.172',1383.599
'0:03.176',1383.160
'0:03.180',1383.091
'0:03.184',1383.501
'0:03.188',1384.439
'0:03.191',1385.841
'0:03.195',1387.571
'0:03.199',1389.436
'0:03.203',1391.224
'0:03.207',1392.675
'0:03.211',1393.511
'0:03.215',1393.544
'0:03.219',1392.757
'0:03.223',1391.269
'0:03.227',1389.248
'0:03.230',1386.920
'0:03.234',1384.599
'0:03.238',1382.599
'0:03.242',1381.062
'0:03.246',1379.885
'0:03.250',1378.819
'0:03.254',1377.663
'0:03.258',1376.323
'0:03.262',1374.802
'0:03.266',1373.150
'0:03.270',1371.449
'0:03.273',1369.793
'0:03.277',1368.268
'0:03.281',1366.968
'0:03.285',1365.980
'0:03.289',1365.378
'0:03.293',1365.148
'0:03.297',1365.111
'0:03.301',1365.009
'0:03.305',1364.648
'0:03.309',1363.980
'0:03.313',1363.086
'0:03.316',1362.086
'0:03.320',1361.057
'0:03.324',1360.069
'0:03.328',1359.274
'0:03.332',1358.798
'0:03.336',1358.622
'0:03.340',1358.663
'0:03.344',1358.929
'0:03.348',1359.520
'0:03.352',1360.422
'0:03.355',1361.479
'0:03.359',1362.520
'0:03.363',1363.500
'0:03.367',1364.406
'0:03.371',1365.140
'0:03.375',1365.542
'0:03.379',1365.607
'0:03.383',1365.525
'0:03.387',1365.476
'0:03.391',1365.517
'0:03.395',1365.660
'0:03.398',1365.943
'0:03.402',1366.357
'0:03.406',1366.833
'0:03.410',1367.272
'0:03.414',1367.575
'0:03.418',1367.669
'0:03.422',1367.509
'0:03.426',1367.103
'0:03.430',1366.505
'0:03.434',1365.796
'0:03.438',1365.058
'0:03.441',1364.324
'0:03.445',1363.594
'0:03.449',1362.889
'0:03.453',1362.201
'0:03.457',1361.491
'0:03.461',1360.770
'0:03.465',1360.090
'0:03.469',1359.557
'0:03.473',1359.245
'0:03.477',1359.171
'0:03.480',1359.270
'0:03.484',1359.495
'0:03.488',1359.860
'0:03.492',1360.356
'0:03.496',1360.807
'0:03.500',1360.967
'0:03.504',1360.725
'0:03.508',1360.180
'0:03.512',1359.516
'0:03.516',1358.852
'0:03.520',1358.216
'0:03.523',1357.626
'0:03.527',1357.072
'0:03.531',1356.552
'0:03.535',1356.052
'0:03.539',1355.617
'0:03.543',1355.338
'0:03.547',1355.289
'0:03.551',1355.461
'0:03.555',1355.732
'0:03.559',1355.937
'0:03.563',1356.011
'0:03.566',1356.023
'0:03.570',1356.080
'0:03.574',1356.306
'0:03.578',1356.769
'0:03.582',1357.441
'0:03.586',1358.249
'0:03.590',1359.110
'0:03.594',1359.926
'0:03.598',1360.590
'0:03.602',1361.094
'0:03.605',1361.459
'0:03.609',1361.680
'0:03.613',1361.770
'0:03.617',1361.836
'0:03.621',1362.012
'0:03.625',1362.369
'0:03.629',1362.873
'0:03.633',1363.410
'0:03.637',1363.816
'0:03.641',1363.972
'0:03.645',1363.828
'0:03.648',1363.426
'0:03.652',1362.832
'0:03.656',1362.069
'0:03.660',1361.200
'0:03.664',1360.319
'0:03.668',1359.544
'0:03.672',1358.979
'0:03.676',1358.642
'0:03.680',1358.519
'0:03.684',1358.511
'0:03.688',1358.446
'0:03.691',1358.146
'0:03.695',1357.601
'0:03.699',1356.933
'0:03.703',1356.216
'0:03.707',1355.396
'0:03.711',1354.404
'0:03.715',1353.293
'0:03.719',1352.219
'0:03.723',1351.321
'0:03.727',1350.612
'0:03.730',1350.030
'0:03.734',1349.583
'0:03.738',1349.353
'0:03.742',1349.370
'0:03.746',1349.476
'0:03.750',1349.378
'0:03.754',1348.821
'0:03.758',1347.767
'0:03.762',1346.324
'0:03.766',1344.590
'0:03.770',1342.700
'0:03.773',1340.897
'0:03.777',1339.478
'0:03.781',1338.609
'0:03.785',1338.330
'0:03.789',1338.617
'0:03.793',1339.380
'0:03.797',1340.454
'0:03.801',1341.667
'0:03.805',1342.868
'0:03.809',1343.930
'0:03.813',1344.799
'0:03.816',1345.615
'0:03.820',1346.660
'0:03.824',1348.152
'0:03.828',1350.177
'0:03.832',1352.645
'0:03.836',1355.273
'0:03.840',1357.634
'0:03.844',1359.327
'0:03.848',1360.126
'0:03.852',1359.967
'0:03.855',1358.946
'0:03.859',1357.232
'0:03.863',1355.060
'0:03.867',1352.756
'0:03.871',1350.723
'0:03.875',1349.239
'0:03.879',1348.361
'0:03.883',1347.984
'0:03.887',1347.988
'0:03.891',1348.300
'0:03.895',1348.825
'0:03.898',1349.423
'0:03.902',1349.997
'0:03.906',1350.563
'0:03.910',1351.161
'0:03.914',1351.838
'0:03.918',1352.616
'0:03.922',1353.486
'0:03.926',1354.281
'0:03.930',1354.810
'0:03.934',1355.019
'0:03.938',1355.031
'0:03.941',1354.945
'0:03.945',1354.662
'0:03.949',1353.936
'0:03.953',1352.649
'0:03.957',1350.928
'0:03.961',1349.116
'0:03.965',1347.546
'0:03.969',1346.345
'0:03.973',1345.443
'0:03.977',1344.738
'0:03.980',1344.319
'0:03.984',1344.377
'0:03.988',1345.008
'0:03.992',1346.127
'0:03.996',1347.521
'0:04.000',1349.025
'0:04.004',1350.632
'0:04.008',1352.358
'0:04.012',1354.113
'0:04.016',1355.707
'0:04.020',1357.052
'0:04.023',1358.142
'0:04.027',1359.036
'0:04.031',1359.790
'0:04.035',1360.438
'0:04.039',1360.946
'0:04.043',1361.237
'0:04.047',1361.266
'0:04.051',1361.086
'0:04.055',1360.786
'0:04.059',1360.430
'0:04.063',1360.114
'0:04.066',1360.053
'0:04.070',1360.475
'0:04.074',1361.541
'0:04.078',1363.283
'0:04.082',1365.574
'0:04.086',1368.243
'0:04.090',1371.121
'0:04.094',1373.998
'0:04.098',1376.663
'0:04.102',1379.000
'0:04.105',1380.926
'0:04.109',1382.308
'0:04.113',1383.025
'0:04.117',1383.136
'0:04.121',1382.873
'0:04.125',1382.619
'0:04.129',1382.751
'0:04.133',1383.460
'0:04.137',1384.665
'0:04.141',1386.112
'0:04.145',1387.596
'0:04.148',1389.104
'0:04.152',1390.699
'0:04.156',1392.400
'0:04.160',1394.134
'0:04.164',1395.758
'0:04.168',1397.164
'0:04.172',1398.303
'0:04.176',1399.160
'0:04.180',1399.742
'0:04.184',1400.062
'0:04.188',1400.160
'0:04.191',1400.136
'0:04.195',1400.115
'0:04.199',1400.197
'0:04.203',1400.468
'0:04.207',1401.025
'0:04.211',1401.993
'0:04.215',1403.432
'0:04.219',1405.276
'0:04.223',1407.301
'0:04.227',1409.228
'0:04.230',1410.941
'0:04.234',1412.532
'0:04.238',1414.123
'0:04.242',1415.709
'0:04.246',1417.213
'0:04.250',1418.562
'0:04.254',1419.661
'0:04.258',1420.435
'0:04.262',1420.862
'0:04.266',1420.968
'0:04.270',1420.817
'0:04.273',1420.460
'0:04.277',1419.894
'0:04.281',1419.148
'0:04.285',1418.316
'0:04.289',1417.582
'0:04.293',1417.070
'0:04.297',1416.799
'0:04.301',1416.717
'0:04.305',1416.762
'0:04.309',1416.894
'0:04.313',1417.090
'0:04.316',1417.299
'0:04.320',1417.480
'0:04.324',1417.619
'0:04.328',1417.668
'0:04.332',1417.582
'0:04.336',1417.349
'0:04.340',1416.959
'0:04.344',1416.430
'0:04.348',1415.799
'0:04.352',1415.106
'0:04.355',1414.348
'0:04.359',1413.598
'0:04.363',1412.987
'0:04.367',1412.516
'0:04.371',1412.093
'0:04.375',1411.634
'0:04.379',1411.085
'0:04.383',1410.404
'0:04.387',1409.593
'0:04.391',1408.629
'0:04.395',1407.424
'0:04.398',1405.928
'0:04.402',1404.198
'0:04.406',1402.296
'0:04.410',1400.222
'0:04.414',1397.951
'0:04.418',1395.524
'0:04.422',1393.052
'0:04.426',1390.679
'0:04.430',1388.457
'0:04.434',1386.370
'0:04.438',1384.423
'0:04.441',1382.726
'0:04.445',1381.426
'0:04.449',1380.586
'0:04.453',1380.061
'0:04.457',1379.610
'0:04.461',1378.955
'0:04.465',1377.876
'0:04.469',1376.339
'0:04.473',1374.458
'0:04.477',1372.392
'0:04.480',1370.280
'0:04.484',1368.292
'0:04.488',1366.616
'0:04.492',1365.419
'0:04.496',1364.849
'0:04.500',1365.046
'0:04.504',1366.050
'0:04.508',1367.722
'0:04.512',1369.813
'0:04.516',1372.076
'0:04.520',1374.306
'0:04.523',1376.274
'0:04.527',1377.680
'0:04.531',1378.254
'0:04.535',1377.897
'0:04.539',1376.729
'0:04.543',1375.064
'0:04.547',1373.314
'0:04.551',1371.789
'0:04.555',1370.563
'0:04.559',1369.506
'0:04.563',1368.542
'0:04.566',1367.768
'0:04.570',1367.304
'0:04.574',1367.185
'0:04.578',1367.325
'0:04.582',1367.571
'0:04.586',1367.780
'0:04.590',1367.903
'0:04.594',1367.960
'0:04.598',1367.907
'0:04.602',1367.706
'0:04.605',1367.358
'0:04.609',1366.882
'0:04.613',1366.329
'0:04.617',1365.849
'0:04.621',1365.587
'0:04.625',1365.579
'0:04.629',1365.841
'0:04.633',1366.415
'0:04.637',1367.333
'0:04.641',1368.493
'0:04.645',1369.678
'0:04.648',1370.621
'0:04.652',1371.207
'0:04.656',1371.555
'0:04.660',1371.904
'0:04.664',1372.416
'0:04.668',1373.150
'0:04.672',1374.146
'0:04.676',1375.441
'0:04.680',1377.077
'0:04.684',1379.028
'0:04.688',1381.172
'0:04.691',1383.283
'0:04.695',1385.169
'0:04.699',1386.760
'0:04.703',1388.026
'0:04.707',1388.965
'0:04.711',1389.674
'0:04.715',1390.355
'0:04.719',1391.109
'0:04.723',1391.904
'0:04.727',1392.720
'0:04.730',1393.589
'0:04.734',1394.470
'0:04.738',1395.139
'0:04.742',1395.241
'0:04.746',1394.503
'0:04.750',1392.884
'0:04.754',1390.576
'0:04.758',1387.932
'0:04.762',1385.333
'0:04.766',1383.115
'0:04.770',1381.500
'0:04.773',1380.570
'0:04.777',1380.266
'0:04.781',1380.426
'0:04.785',1380.783
'0:04.789',1381.037
'0:04.793',1380.947
'0:04.797',1380.500
'0:04.801',1379.877
'0:04.805',1379.307
'0:04.809',1378.946
'0:04.813',1378.852
'0:04.816',1378.987
'0:04.820',1379.225
'0:04.824',1379.434
'0:04.828',1379.516
'0:04.832',1379.410
'0:04.836',1379.049
'0:04.840',1378.401
'0:04.844',1377.520
'0:04.848',1376.556
'0:04.852',1375.646
'0:04.855',1374.839
'0:04.859',1374.097
'0:04.863',1373.400
'0:04.867',1372.715
'0:04.871',1372.019
'0:04.875',1371.330
'0:04.879',1370.707
'0:04.883',1370.141
'0:04.887',1369.600
'0:04.891',1369.026
'0:04.895',1368.423
'0:04.898',1367.804
'0:04.902',1367.226
'0:04.906',1366.771
'0:04.910',1366.489
'0:04.914',1366.357
'0:04.918',1366.419
'0:04.922',1366.874
'0:04.926',1367.907
'0:04.930',1369.456
'0:04.934',1371.178
'0:04.938',1372.597
'0:04.941',1373.343
'0:04.945',1373.265
'0:04.949',1372.416
'0:04.953',1371.039
'0:04.957',1369.440
'0:04.961',1367.915
'0:04.965',1366.620
'0:04.969',1365.529
'0:04.973',1364.541
'0:04.977',1363.709
'0:04.980',1363.246
'0:04.984',1363.357
'0:04.988',1364.062
'0:04.992',1365.152
'0:04.996',1366.271
'0:05.000',1367.194
'0:05.004',1367.886
'0:05.008',1368.411
'0:05.012',1368.809
'0:05.016',1369.149
'0:05.020',1369.506
'0:05.023',1369.903
'0:05.027',1370.346
'0:05.031',1370.838
'0:05.035',1371.400
'0:05.039',1372.055
'0:05.043',1372.773
'0:05.047',1373.416
'0:05.051',1373.863
'0:05.055',1374.072
'0:05.059',1374.105
'0:05.063',1374.068
'0:05.066',1374.113
'0:05.070',1374.417
'0:05.074',1375.159
'0:05.078',1376.438
'0:05.082',1378.192
'0:05.086',1380.164
'0:05.090',1382.000
'0:05.094',1383.472
'0:05.098',1384.579
'0:05.102',1385.513
'0:05.105',1386.436
'0:05.109',1387.411
'0:05.113',1388.543
'0:05.117',1389.982
'0:05.121',1391.798
'0:05.125',1393.839
'0:05.129',1395.889
'0:05.133',1397.852
'0:05.137',1399.738
'0:05.141',1401.447
'0:05.145',1402.735
'0:05.148',1403.370
'0:05.152',1403.304
'0:05.156',1402.726
'0:05.160',1402.001
'0:05.164',1401.488
'0:05.168',1401.349
'0:05.172',1401.501
'0:05.176',1401.775
'0:05.180',1402.099
'0:05.184',1402.493
'0:05.188',1403.042
'0:05.191',1403.874
'0:05.195',1405.071
'0:05.199',1406.580
'0:05.203',1408.121
'0:05.207',1409.298
'0:05.211',1409.785
'0:05.215',1409.507
'0:05.219',1408.642
'0:05.223',1407.572
'0:05.227',1406.654
'0:05.230',1406.137
'0:05.234',1406.182
'0:05.238',1406.854
'0:05.242',1408.125
'0:05.246',1409.872
'0:05.250',1411.901
'0:05.254',1413.971
'0:05.258',1415.799
'0:05.262',1417.136
'0:05.266',1417.910
'0:05.270',1418.320
'0:05.273',1418.656
'0:05.277',1419.136
'0:05.281',1419.833
'0:05.285',1420.710
'0:05.289',1421.624
'0:05.293',1422.395
'0:05.297',1422.879
'0:05.301',1423.039
'0:05.305',1423.014
'0:05.309',1423.030
'0:05.313',1423.305
'0:05.316',1423.953
'0:05.320',1424.953
'0:05.324',1426.150
'0:05.328',1427.269
'0:05.332',1427.941
'0:05.336',1427.831
'0:05.340',1426.798
'0:05.344',1424.924
'0:05.348',1422.465
'0:05.352',1419.739
'0:05.355',1417.095
'0:05.359',1414.856
'0:05.363',1413.278
'0:05.367',1412.507
'0:05.371',1412.573
'0:05.375',1413.385
'0:05.379',1414.713
'0:05.383',1416.254
'0:05.387',1417.701
'0:05.391',1418.730
'0:05.395',1419.054
'0:05.398',1418.492
'0:05.402',1417.082
'0:05.406',1415.098
'0:05.410',1412.889
'0:05.414',1410.741
'0:05.418',1408.863
'0:05.422',1407.453
'0:05.426',1406.662
'0:05.430',1406.527
'0:05.434',1406.912
'0:05.438',1407.510
'0:05.441',1407.920
'0:05.445',1407.842
'0:05.449',1407.223
'0:05.453',1406.170
'0:05.457',1404.813
'0:05.461',1403.194
'0:05.465',1401.263
'0:05.469',1398.959
'0:05.473',1396.315
'0:05.477',1393.507
'0:05.480',1390.752
'0:05.484',1388.145
'0:05.488',1385.698
'0:05.492',1383.451
'0:05.496',1381.513
'0:05.500',1379.967
'0:05.504',1378.795
'0:05.508',1377.913
'0:05.512',1377.253
'0:05.516',1376.802
'0:05.520',1376.581
'0:05.523',1376.577
'0:05.527',1376.725
'0:05.531',1376.979
'0:05.535',1377.298
'0:05.539',1377.643
'0:05.543',1377.950
'0:05.547',1378.196
'0:05.551',1378.438
'0:05.555',1378.778
'0:05.559',1379.258
'0:05.563',1379.865
'0:05.566',1380.594
'0:05.570',1381.349
'0:05.574',1381.931
'0:05.578',1382.214
'0:05.582',1382.214
'0:05.586',1382.041
'0:05.590',1381.795
'0:05.594',1381.480
'0:05.598',1381.066
'0:05.602',1380.557
'0:05.605',1379.992
'0:05.609',1379.348
'0:05.613',1378.557
'0:05.617',1377.598
'0:05.621',1376.565
'0:05.625',1375.618
'0:05.629',1374.917
'0:05.633',1374.490
'0:05.637',1374.208
'0:05.641',1373.929
'0:05.645',1373.617
'0:05.648',1373.322
'0:05.652',1373.064
'0:05.656',1372.818
'0:05.660',1372.527
'0:05.664',1372.158
'0:05.668',1371.715
'0:05.672',1371.256
'0:05.676',1370.817
'0:05.680',1370.395
'0:05.684',1369.932
'0:05.688',1369.399
'0:05.691',1368.846
'0:05.695',1368.300
'0:05.699',1367.825
'0:05.703',1367.522
'0:05.707',1367.419
'0:05.711',1367.403
'0:05.715',1367.358
'0:05.719',1367.272
'0:05.723',1367.185
'0:05.727',1367.140
'0:05.730',1367.181
'0:05.734',1367.317
'0:05.738',1367.526
'0:05.742',1367.817
'0:05.746',1368.141
'0:05.750',1368.362
'0:05.754',1368.411
'0:05.758',1368.276
'0:05.762',1367.940
'0:05.766',1367.366
'0:05.770',1366.653
'0:05.773',1366.001
'0:05.777',1365.538
'0:05.781',1365.234
'0:05.785',1364.988
'0:05.789',1364.763
'0:05.793',1364.541
'0:05.797',1364.312
'0:05.801',1364.119
'0:05.805',1364.033
'0:05.809',1364.049
'0:05.813',1364.107
'0:05.816',1364.131
'0:05.820',1364.078
'0:05.824',1363.910
'0:05.828',1363.640
'0:05.832',1363.279
'0:05.836',1362.824
'0:05.840',1362.184
'0:05.844',1361.086
'0:05.848',1359.151
'0:05.852',1356.142
'0:05.855',1352.174
'0:05.859',1347.677
'0:05.863',1343.221
'0:05.867',1339.306
'0:05.871',1336.277
'0:05.875',1334.329
'0:05.879',1333.538
'0:05.883',1333.854
'0:05.887',1335.108
'0:05.891',1336.974
'0:05.895',1338.982
'0:05.898',1340.597
'0:05.902',1341.421
'0:05.906',1341.368
'0:05.910',1340.671
'0:05.914',1339.757
'0:05.918',1338.958
'0:05.922',1338.343
'0:05.926',1337.752
'0:05.930',1336.974
'0:05.934',1335.879
'0:05.938',1334.555
'0:05.941',1333.214
'0:05.945',1331.985
'0:05.949',1330.825
'0:05.953',1329.681
'0:05.957',1328.672
'0:05.961',1328.033
'0:05.965',1327.869
'0:05.969',1328.066
'0:05.973',1328.484
'0:05.977',1329.111
'0:05.980',1329.980
'0:05.984',1331.034
'0:05.988',1332.083
'0:05.992',1332.903
'0:05.996',1333.403
'0:06.000',1333.715
'0:06.004',1334.133
'0:06.008',1334.916
'0:06.012',1336.145
'0:06.016',1337.765
'0:06.020',1339.741
'0:06.023',1342.073
'0:06.027',1344.709
'0:06.031',1347.537
'0:06.035',1350.423
'0:06.039',1353.305
'0:06.043',1356.224
'0:06.047',1359.348
'0:06.051',1362.865
'0:06.055',1366.825
'0:06.059',1371.072
'0:06.063',1375.302
'0:06.066',1379.254
'0:06.070',1382.792
'0:06.074',1385.919
'0:06.078',1388.711
'0:06.082',1391.216
'0:06.086',1393.409
'0:06.090',1395.319
'0:06.094',1396.987
'0:06.098',1398.406
'0:06.102',1399.513
'0:06.105',1400.287
'0:06.109',1400.726
'0:06.113',1400.775
'0:06.117',1400.332
'0:06.121',1399.332
'0:06.125',1397.799
'0:06.129',1395.938
'0:06.133',1394.081
'0:06.137',1392.499
'0:06.141',1391.265
'0:06.145',1390.371
'0:06.148',1389.842
'0:06.152',1389.785
'0:06.156',1390.215
'0:06.160',1391.015
'0:06.164',1391.949
'0:06.168',1392.847
'0:06.172',1393.675
'0:06.176',1394.421
'0:06.180',1394.913
'0:06.184',1394.876
'0:06.188',1394.163
'0:06.191',1392.864
'0:06.195',1391.220
'0:06.199',1389.506
'0:06.203',1387.973
'0:06.207',1386.805
'0:06.211',1386.079
'0:06.215',1385.792
'0:06.219',1385.895
'0:06.223',1386.247
'0:06.227',1386.686
'0:06.230',1387.120
'0:06.234',1387.514
'0:06.238',1387.858
'0:06.242',1388.141
'0:06.246',1388.330
'0:06.250',1388.383
'0:06.254',1388.231
'0:06.258',1387.830
'0:06.262',1387.170
'0:06.266',1386.251
'0:06.270',1385.067
'0:06.273',1383.702
'0:06.277',1382.308
'0:06.281',1380.976
'0:06.285',1379.770
'0:06.289',1378.823
'0:06.293',1378.262
'0:06.297',1378.036
'0:06.301',1377.881
'0:06.305',1377.458
'0:06.309',1376.491
'0:06.313',1374.900
'0:06.316',1372.867
'0:06.320',1370.727
'0:06.324',1368.755
'0:06.328',1367.054
'0:06.332',1365.599
'0:06.336',1364.328
'0:06.340',1363.098
'0:06.344',1361.733
'0:06.348',1360.221
'0:06.352',1358.724
'0:06.355',1357.388
'0:06.359',1356.261
'0:06.363',1355.388
'0:06.367',1354.904
'0:06.371',1354.855
'0:06.375',1355.174
'0:06.379',1355.822
'0:06.383',1356.794
'0:06.387',1358.122
'0:06.391',1359.889
'0:06.395',1362.160
'0:06.398',1364.882
'0:06.402',1367.870
'0:06.406',1370.826
'0:06.410',1373.404
'0:06.414',1375.380
'0:06.418',1376.749
'0:06.422',1377.762
'0:06.426',1378.914
'0:06.430',1380.758
'0:06.434',1383.673
'0:06.438',1387.756
'0:06.441',1392.851
'0:06.445',1398.648
'0:06.449',1404.776
'0:06.453',1410.827
'0:06.457',1416.430
'0:06.461',1421.337
'0:06.465',1425.498
'0:06.469',1429.077
'0:06.473',1432.241
'0:06.477',1435.009
'0:06.480',1437.230
'0:06.484',1438.747
'0:06.488',1439.542
'0:06.492',1439.731
'0:06.496',1439.448
'0:06.500',1438.788
'0:06.504',1437.743
'0:06.508',1436.201
'0:06.512',1434.057
'0:06.516',1431.290
'0:06.520',1428.031
'0:06.523',1424.469
'0:06.527',1420.784
'0:06.531',1417.119
'0:06.535',1413.577
'0:06.539',1410.294
'0:06.543',1407.514
'0:06.547',1405.489
'0:06.551',1404.411
'0:06.555',1404.383
'0:06.559',1405.411
'0:06.563',1407.391
'0:06.566',1410.150
'0:06.570',1413.520
'0:06.574',1417.336
'0:06.578',1421.452
'0:06.582',1425.732
'0:06.586',1430.024
'0:06.590',1434.234
'0:06.594',1438.427
'0:06.598',1442.801
'0:06.602',1447.524
'0:06.605',1452.566
'0:06.609',1457.719
'0:06.613',1462.687
'0:06.617',1467.225
'0:06.621',1471.185
'0:06.625',1474.501
'0:06.629',1477.219
'0:06.633',1479.539
'0:06.637',1481.704
'0:06.641',1483.844
'0:06.645',1485.901
'0:06.648',1487.738
'0:06.652',1489.349
'0:06.656',1490.825
'0:06.660',1492.194
'0:06.664',1493.338
'0:06.668',1494.104
'0:06.672',1494.362
'0:06.676',1494.030
'0:06.680',1493.149
'0:06.684',1491.903
'0:06.688',1490.497
'0:06.691',1489.029
'0:06.695',1487.480
'0:06.699',1485.852
'0:06.703',1484.200
'0:06.707',1482.585
'0:06.711',1480.925
'0:06.715',1479.002
'0:06.719',1476.608
'0:06.723',1473.677
'0:06.727',1470.320
'0:06.730',1466.770
'0:06.734',1463.339
'0:06.738',1460.338
'0:06.742',1458.002
'0:06.746',1456.440
'0:06.750',1455.608
'0:06.754',1455.308
'0:06.758',1455.226
'0:06.762',1455.009
'0:06.766',1454.464
'0:06.770',1453.615
'0:06.773',1452.615
'0:06.777',1451.582
'0:06.781',1450.569
'0:06.785',1449.668
'0:06.789',1449.008
'0:06.793',1448.667
'0:06.797',1448.577
'0:06.801',1448.610
'0:06.805',1448.622
'0:06.809',1448.536
'0:06.813',1448.331
'0:06.816',1448.020
'0:06.820',1447.585
'0:06.824',1447.019
'0:06.828',1446.380
'0:06.832',1445.761
'0:06.836',1445.249
'0:06.840',1444.876
'0:06.844',1444.625
'0:06.848',1444.441
'0:06.852',1444.261
'0:06.855',1444.052
'0:06.859',1443.822
'0:06.863',1443.621
'0:06.867',1443.449
'0:06.871',1443.187
'0:06.875',1442.646
'0:06.879',1441.678
'0:06.883',1440.264
'0:06.887',1438.460
'0:06.891',1436.357
'0:06.895',1434.057
'0:06.898',1431.766
'0:06.902',1429.815
'0:06.906',1428.515
'0:06.910',1428.060
'0:06.914',1428.552
'0:06.918',1429.970
'0:06.922',1432.119
'0:06.926',1434.558
'0:06.930',1436.714
'0:06.934',1438.079
'0:06.938',1438.354
'0:06.941',1437.423
'0:06.945',1435.316
'0:06.949',1432.180
'0:06.953',1428.314
'0:06.957',1424.145
'0:06.961',1420.132
'0:06.965',1416.685
'0:06.969',1414.082
'0:06.973',1412.483
'0:06.977',1411.913
'0:06.980',1412.290
'0:06.984',1413.401
'0:06.988',1414.946
'0:06.992',1416.545
'0:06.996',1417.796
'0:07.000',1418.394
'0:07.004',1418.259
'0:07.008',1417.484
'0:07.012',1416.143
'0:07.016',1414.262
'0:07.020',1411.872
'0:07.023',1409.023
'0:07.027',1405.694
'0:07.031',1401.800
'0:07.035',1397.307
'0:07.039',1392.400
'0:07.043',1387.485
'0:07.047',1383.013
'0:07.051',1379.291
'0:07.055',1376.417
'0:07.059',1374.298
'0:07.063',1372.703
'0:07.066',1371.395
'0:07.070',1370.248
'0:07.074',1369.231
'0:07.078',1368.333
'0:07.082',1367.497
'0:07.086',1366.636
'0:07.090',1365.726
'0:07.094',1364.750
'0:07.098',1363.705
'0:07.102',1362.590
'0:07.105',1361.385
'0:07.109',1360.053
'0:07.113',1358.573
'0:07.117',1357.040
'0:07.121',1355.601
'0:07.125',1354.322
'0:07.129',1353.133
'0:07.133',1352.034
'0:07.137',1351.141
'0:07.141',1350.505
'0:07.145',1350.067
'0:07.148',1349.735
'0:07.152',1349.444
'0:07.156',1349.157
'0:07.160',1348.923
'0:07.164',1348.792
'0:07.168',1348.726
'0:07.172',1348.673
'0:07.176',1348.607
'0:07.180',1348.521
'0:07.184',1348.329
'0:07.188',1347.943
'0:07.191',1347.312
'0:07.195',1346.459
'0:07.199',1345.508
'0:07.203',1344.729
'0:07.207',1344.414
'0:07.211',1344.791
'0:07.215',1346.000
'0:07.219',1348.087
'0:07.223',1350.969
'0:07.227',1354.449
'0:07.230',1358.163
'0:07.234',1361.684
'0:07.238',1364.701
'0:07.242',1367.173
'0:07.246',1369.260
'0:07.250',1371.133
'0:07.254',1372.847
'0:07.258',1374.310
'0:07.262',1375.384
'0:07.266',1376.056
'0:07.270',1376.462
'0:07.273',1376.761
'0:07.277',1377.077
'0:07.281',1377.475
'0:07.285',1377.967
'0:07.289',1378.532
'0:07.293',1379.168
'0:07.297',1379.901
'0:07.301',1380.783
'0:07.305',1381.836
'0:07.309',1383.078
'0:07.313',1384.501
'0:07.316',1386.055
'0:07.320',1387.629
'0:07.324',1389.211
'0:07.328',1390.884
'0:07.332',1392.654
'0:07.336',1394.376
'0:07.340',1395.868
'0:07.344',1397.041
'0:07.348',1397.979
'0:07.352',1398.832
'0:07.355',1399.636
'0:07.359',1400.230
'0:07.363',1400.373
'0:07.367',1399.931
'0:07.371',1399.062
'0:07.375',1398.172
'0:07.379',1397.729
'0:07.383',1398.061
'0:07.387',1399.291
'0:07.391',1401.312
'0:07.395',1403.846
'0:07.398',1406.522
'0:07.402',1409.048
'0:07.406',1411.355
'0:07.410',1413.606
'0:07.414',1416.037
'0:07.418',1418.783
'0:07.422',1421.866
'0:07.426',1425.158
'0:07.430',1428.409
'0:07.434',1431.352
'0:07.438',1433.861
'0:07.441',1435.935
'0:07.445',1437.616
'0:07.449',1438.948
'0:07.453',1440.034
'0:07.457',1440.977
'0:07.461',1441.813
'0:07.465',1442.572
'0:07.469',1443.285
'0:07.473',1444.002
'0:07.477',1444.720
'0:07.480',1445.454
'0:07.484',1446.298
'0:07.488',1447.315
'0:07.492',1448.479
'0:07.496',1449.729
'0:07.500',1451.016
'0:07.504',1452.332
'0:07.508',1453.722
'0:07.512',1455.214
'0:07.516',1456.714
'0:07.520',1458.059
'0:07.523',1459.100
'0:07.527',1459.719
'0:07.531',1459.904
'0:07.535',1459.760
'0:07.539',1459.391
'0:07.543',1458.866
'0:07.547',1458.235
'0:07.551',1457.501
'0:07.555',1456.698
'0:07.559',1455.903
'0:07.563',1455.169
'0:07.566',1454.484
'0:07.570',1453.853
'0:07.574',1453.255
'0:07.578',1452.533
'0:07.582',1451.459
'0:07.586',1449.893
'0:07.590',1447.884
'0:07.594',1445.507
'0:07.598',1442.789
'0:07.602',1439.743
'0:07.605',1436.439
'0:07.609',1433.029
'0:07.613',1429.704
'0:07.617',1426.695
'0:07.621',1424.145
'0:07.625',1422.026
'0:07.629',1420.149
'0:07.633',1418.275
'0:07.637',1416.209
'0:07.641',1413.860
'0:07.645',1411.294
'0:07.648',1408.609
'0:07.652',1405.830
'0:07.656',1402.985
'0:07.660',1400.181
'0:07.664',1397.582
'0:07.668',1395.372
'0:07.672',1393.774
'0:07.676',1392.978
'0:07.680',1393.073
'0:07.684',1394.024
'0:07.688',1395.631
'0:07.691',1397.586
'0:07.695',1399.549
'0:07.699',1401.308
'0:07.703',1402.792
'0:07.707',1404.005
'0:07.711',1404.924
'0:07.715',1405.493
'0:07.719',1405.703
'0:07.723',1405.604
'0:07.727',1405.280
'0:07.730',1404.764
'0:07.734',1404.034
'0:07.738',1403.099
'0:07.742',1401.997
'0:07.746',1400.816
'0:07.750',1399.648
'0:07.754',1398.566
'0:07.758',1397.537
'0:07.762',1396.446
'0:07.766',1395.180
'0:07.770',1393.675
'0:07.773',1391.933
'0:07.777',1390.023
'0:07.781',1388.133
'0:07.785',1386.526
'0:07.789',1385.431
'0:07.793',1384.915
'0:07.797',1384.874
'0:07.801',1385.140
'0:07.805',1385.567
'0:07.809',1386.055
'0:07.813',1386.583
'0:07.816',1387.252
'0:07.820',1388.071
'0:07.824',1388.940
'0:07.828',1389.760
'0:07.832',1390.560
'0:07.836',1391.375
'0:07.840',1392.183
'0:07.844',1392.978
'0:07.848',1393.847
'0:07.852',1394.815
'0:07.855',1395.799
'0:07.859',1396.791
'0:07.863',1397.967
'0:07.867',1399.525
'0:07.871',1401.529
'0:07.875',1403.878
'0:07.879',1406.469
'0:07.883',1409.232
'0:07.887',1412.069
'0:07.891',1414.860
'0:07.895',1417.545
'0:07.898',1420.136
'0:07.902',1422.612
'0:07.906',1424.924
'0:07.910',1427.039
'0:07.914',1428.974
'0:07.918',1430.753
'0:07.922',1432.393
'0:07.926',1433.881
'0:07.930',1435.177
'0:07.934',1436.238
'0:07.938',1437.042
'0:07.941',1437.583
'0:07.945',1437.874
'0:07.949',1437.948
'0:07.953',1437.878
'0:07.957',1437.747
'0:07.961',1437.587
'0:07.965',1437.407
'0:07.969',1437.173
'0:07.973',1436.825
'0:07.977',1436.283
'0:07.980',1435.505
'0:07.984',1434.492
'0:07.988',1433.295
'0:07.992',1431.991
'0:07.996',1430.643
'0:08.000',1429.261
'0:08.004',1427.859
'0:08.008',1426.396
'0:08.012',1424.740
'0:08.016',1422.719
'0:08.020',1420.292
'0:08.023',1417.558
'0:08.027',1414.733
'0:08.031',1411.966
'0:08.035',1409.265
'0:08.039',1406.576
'0:08.043',1403.948
'0:08.047',1401.513
'0:08.051',1399.291
'0:08.055',1397.196
'0:08.059',1395.180
'0:08.063',1393.302
'0:08.066',1391.646
'0:08.070',1390.178
'0:08.074',1388.723
'0:08.078',1386.985
'0:08.082',1384.669
'0:08.086',1381.648
'0:08.090',1377.979
'0:08.094',1373.859
'0:08.098',1369.522
'0:08.102',1365.164
'0:08.105',1360.987
'0:08.109',1357.228
'0:08.113',1354.055
'0:08.117',1351.538
'0:08.121',1349.702
'0:08.125',1348.480
'0:08.129',1347.706
'0:08.133',1347.222
'0:08.137',1346.943
'0:08.141',1346.746
'0:08.145',1346.529
'0:08.148',1346.258
'0:08.152',1345.984
'0:08.156',1345.791
'0:08.160',1345.762
'0:08.164',1345.976
'0:08.168',1346.431
'0:08.172',1347.054
'0:08.176',1347.685
'0:08.180',1348.218
'0:08.184',1348.661
'0:08.188',1349.030
'0:08.191',1349.300
'0:08.195',1349.452
'0:08.199',1349.538
'0:08.203',1349.587
'0:08.207',1349.595
'0:08.211',1349.653
'0:08.215',1349.948
'0:08.219',1350.600
'0:08.223',1351.559
'0:08.227',1352.670
'0:08.230',1353.809
'0:08.234',1354.961
'0:08.238',1356.207
'0:08.242',1357.622
'0:08.246',1359.204
'0:08.250',1360.872
'0:08.254',1362.508
'0:08.258',1363.988
'0:08.262',1365.226
'0:08.266',1366.234
'0:08.270',1367.042
'0:08.273',1367.620
'0:08.277',1367.927
'0:08.281',1368.005
'0:08.285',1368.038
'0:08.289',1368.247
'0:08.293',1368.731
'0:08.297',1369.428
'0:08.301',1370.211
'0:08.305',1370.969
'0:08.309',1371.654
'0:08.313',1372.281
'0:08.316',1372.879
'0:08.320',1373.498
'0:08.324',1374.179
'0:08.328',1374.921
'0:08.332',1375.655
'0:08.336',1376.323
'0:08.340',1376.970
'0:08.344',1377.762
'0:08.348',1378.873
'0:08.352',1380.447
'0:08.355',1382.554
'0:08.359',1385.140
'0:08.363',1388.071
'0:08.367',1391.146
'0:08.371',1394.044
'0:08.375',1396.364
'0:08.379',1397.828
'0:08.383',1398.373
'0:08.387',1398.201
'0:08.391',1397.721
'0:08.395',1397.401
'0:08.398',1397.541
'0:08.402',1398.148
'0:08.406',1399.021
'0:08.410',1399.914
'0:08.414',1400.628
'0:08.418',1401.054
'0:08.422',1401.210
'0:08.426',1401.243
'0:08.430',1401.378
'0:08.434',1401.775
'0:08.438',1402.517
'0:08.441',1403.620
'0:08.445',1405.022
'0:08.449',1406.686
'0:08.453',1408.666
'0:08.457',1411.036
'0:08.461',1413.749
'0:08.465',1416.668
'0:08.469',1419.673
'0:08.473',1422.706
'0:08.477',1425.650
'0:08.480',1428.241
'0:08.484',1430.208
'0:08.488',1431.430
'0:08.492',1432.016
'0:08.496',1432.311
'0:08.500',1432.754
'0:08.504',1433.672
'0:08.508',1435.189
'0:08.512',1437.316
'0:08.516',1439.997
'0:08.520',1443.019
'0:08.523',1446.064
'0:08.527',1448.827
'0:08.531',1451.135
'0:08.535',1452.968
'0:08.539',1454.353
'0:08.543',1455.304
'0:08.547',1455.915
'0:08.551',1456.440
'0:08.555',1457.214
'0:08.559',1458.489
'0:08.563',1460.318
'0:08.566',1462.560
'0:08.570',1464.995
'0:08.574',1467.405
'0:08.578',1469.644
'0:08.582',1471.628
'0:08.586',1473.341
'0:08.590',1474.825
'0:08.594',1476.088
'0:08.598',1477.084
'0:08.602',1477.760
'0:08.605',1478.068
'0:08.609',1477.977
'0:08.613',1477.481
'0:08.617',1476.559
'0:08.621',1475.157
'0:08.625',1473.251
'0:08.629',1470.918
'0:08.633',1468.287
'0:08.637',1465.516
'0:08.641',1462.810
'0:08.645',1460.371
'0:08.648',1458.288
'0:08.652',1456.587
'0:08.656',1455.263
'0:08.660',1454.300
'0:08.664',1453.644
'0:08.668',1453.140
'0:08.672',1452.545
'0:08.676',1451.668
'0:08.680',1450.414
'0:08.684',1448.762
'0:08.688',1446.704
'0:08.691',1444.252
'0:08.695',1441.461
'0:08.699',1438.477
'0:08.703',1435.455
'0:08.707',1432.496
'0:08.711',1429.610
'0:08.715',1426.753
'0:08.719',1423.916
'0:08.723',1421.190
'0:08.727',1418.669
'0:08.730',1416.463
'0:08.734',1414.733
'0:08.738',1413.581
'0:08.742',1412.930
'0:08.746',1412.540
'0:08.750',1412.200
'0:08.754',1411.876
'0:08.758',1411.638
'0:08.762',1411.487
'0:08.766',1411.233
'0:08.770',1410.507
'0:08.773',1408.978
'0:08.777',1406.481
'0:08.781',1403.099
'0:08.785',1399.152
'0:08.789',1395.126
'0:08.793',1391.531
'0:08.797',1388.723
'0:08.801',1386.891
'0:08.805',1386.075
'0:08.809',1386.190
'0:08.813',1387.055
'0:08.816',1388.428
'0:08.820',1390.113
'0:08.824',1392.019
'0:08.828',1394.147
'0:08.832',1396.455
'0:08.836',1398.885
'0:08.840',1401.378
'0:08.844',1403.903
'0:08.848',1406.481
'0:08.852',1409.187
'0:08.855',1411.995
'0:08.859',1414.668
'0:08.863',1416.890
'0:08.867',1418.492
'0:08.871',1419.509
'0:08.875',1420.169
'0:08.879',1420.804
'0:08.883',1421.706
'0:08.887',1423.051
'0:08.891',1424.875
'0:08.895',1427.027
'0:08.898',1429.233
'0:08.902',1431.180
'0:08.906',1432.737
'0:08.910',1433.951
'0:08.914',1434.902
'0:08.918',1435.607
'0:08.922',1436.083
'0:08.926',1436.341
'0:08.930',1436.353
'0:08.934',1436.128
'0:08.938',1435.701
'0:08.941',1435.054
'0:08.945',1434.070
'0:08.949',1432.746
'0:08.953',1431.282
'0:08.957',1429.975
'0:08.961',1429.077
'0:08.965',1428.700
'0:08.969',1428.806
'0:08.973',1429.200
'0:08.977',1429.577
'0:08.980',1429.610
'0:08.984',1429.056
'0:08.988',1427.851
'0:08.992',1425.957
'0:08.996',1423.301
'0:09.000',1419.825
'0:09.004',1415.602
'0:09.008',1410.802
'0:09.012',1405.629
'0:09.016',1400.382
'0:09.020',1395.417
'0:09.023',1391.084
'0:09.027',1387.616
'0:09.031',1385.124
'0:09.035',1383.583
'0:09.039',1382.849
'0:09.043',1382.681
'0:09.047',1382.800
'0:09.051',1382.910
'0:09.055',1382.738
'0:09.059',1382.050
'0:09.063',1380.750
'0:09.066',1378.926
'0:09.070',1376.823
'0:09.074',1374.695
'0:09.078',1372.638
'0:09.082',1370.629
'0:09.086',1368.641
'0:09.090',1366.653
'0:09.094',1364.656
'0:09.098',1362.762
'0:09.102',1361.164
'0:09.105',1360.003
'0:09.109',1359.282
'0:09.113',1358.835
'0:09.117',1358.433
'0:09.121',1357.941
'0:09.125',1357.404
'0:09.129',1356.925
'0:09.133',1356.564
'0:09.137',1356.330
'0:09.141',1356.216
'0:09.145',1356.203
'0:09.148',1356.265
'0:09.152',1356.388
'0:09.156',1356.597
'0:09.160',1356.908
'0:09.164',1357.359
'0:09.168',1358.019
'0:09.172',1358.909
'0:09.176',1359.942
'0:09.180',1361.036
'0:09.184',1362.238
'0:09.188',1363.640
'0:09.191',1365.193
'0:09.195',1366.677
'0:09.199',1367.845
'0:09.203',1368.661
'0:09.207',1369.333
'0:09.211',1370.104
'0:09.215',1371.051
'0:09.219',1372.023
'0:09.223',1372.756
'0:09.227',1373.117
'0:09.230',1373.150
'0:09.234',1372.974
'0:09.238',1372.736
'0:09.242',1372.642
'0:09.246',1372.830
'0:09.250',1373.269
'0:09.254',1373.839
'0:09.258',1374.478
'0:09.262',1375.113
'0:09.266',1375.585
'0:09.270',1375.794
'0:09.273',1375.786
'0:09.277',1375.696
'0:09.281',1375.581
'0:09.285',1375.458
'0:09.289',1375.318
'0:09.293',1375.097
'0:09.297',1374.712
'0:09.301',1374.142
'0:09.305',1373.404
'0:09.309',1372.601
'0:09.313',1371.928
'0:09.316',1371.568
'0:09.320',1371.543
'0:09.324',1371.691
'0:09.328',1371.793
'0:09.332',1371.744
'0:09.336',1371.588
'0:09.340',1371.461
'0:09.344',1371.514
'0:09.348',1371.846
'0:09.352',1372.445
'0:09.355',1373.170
'0:09.359',1373.859
'0:09.363',1374.392
'0:09.367',1374.716
'0:09.371',1374.814
'0:09.375',1374.736
'0:09.379',1374.560
'0:09.383',1374.347
'0:09.387',1374.105
'0:09.391',1373.839
'0:09.395',1373.543
'0:09.398',1373.187
'0:09.402',1372.724
'0:09.406',1372.182
'0:09.410',1371.711
'0:09.414',1371.482
'0:09.418',1371.551
'0:09.422',1371.896
'0:09.426',1372.531
'0:09.430',1373.498
'0:09.434',1374.810
'0:09.438',1376.450
'0:09.441',1378.352
'0:09.445',1380.393
'0:09.449',1382.451
'0:09.453',1384.460
'0:09.457',1386.350
'0:09.461',1388.018
'0:09.465',1389.395
'0:09.469',1390.490
'0:09.473',1391.334
'0:09.477',1391.966
'0:09.480',1392.421
'0:09.484',1392.782
'0:09.488',1393.142
'0:09.492',1393.577
'0:09.496',1394.122
'0:09.500',1394.766
'0:09.504',1395.503
'0:09.508',1396.282
'0:09.512',1397.061
'0:09.516',1397.856
'0:09.520',1398.721
'0:09.523',1399.677
'0:09.527',1400.755
'0:09.531',1401.948
'0:09.535',1403.251
'0:09.539',1404.719
'0:09.543',1406.387
'0:09.547',1408.244
'0:09.551',1410.208
'0:09.555',1412.138
'0:09.559',1413.913
'0:09.563',1415.541
'0:09.566',1417.099
'0:09.570',1418.578
'0:09.574',1419.829
'0:09.578',1420.751
'0:09.582',1421.407
'0:09.586',1421.891
'0:09.590',1422.178
'0:09.594',1422.223
'0:09.598',1422.087
'0:09.602',1421.919
'0:09.605',1421.842
'0:09.609',1421.948
'0:09.613',1422.362
'0:09.617',1423.231
'0:09.621',1424.654
'0:09.625',1426.597
'0:09.629',1428.872
'0:09.633',1431.192
'0:09.637',1433.246
'0:09.641',1434.722
'0:09.645',1435.402
'0:09.648',1435.242
'0:09.652',1434.422
'0:09.656',1433.234
'0:09.660',1431.950
'0:09.664',1430.704
'0:09.668',1429.565
'0:09.672',1428.646
'0:09.676',1428.027
'0:09.680',1427.679
'0:09.684',1427.494
'0:09.688',1427.445
'0:09.691',1427.572
'0:09.695',1427.888
'0:09.699',1428.277
'0:09.703',1428.519
'0:09.707',1428.376
'0:09.711',1427.695
'0:09.715',1426.396
'0:09.719',1424.436
'0:09.723',1421.952
'0:09.727',1419.288
'0:09.730',1416.857
'0:09.734',1414.967
'0:09.738',1413.766
'0:09.742',1413.241
'0:09.746',1413.274
'0:09.750',1413.688
'0:09.754',1414.254
'0:09.758',1414.795
'0:09.762',1415.221
'0:09.766',1415.488
'0:09.770',1415.545
'0:09.773',1415.348
'0:09.777',1414.860
'0:09.781',1414.106
'0:09.785',1413.151
'0:09.789',1412.028
'0:09.793',1410.704
'0:09.797',1409.195
'0:09.801',1407.572
'0:09.805',1405.957
'0:09.809',1404.547
'0:09.813',1403.477
'0:09.816',1402.731
'0:09.820',1402.165
'0:09.824',1401.620
'0:09.828',1400.968
'0:09.832',1400.148
'0:09.836',1399.193
'0:09.840',1398.172
'0:09.844',1397.155
'0:09.848',1396.225
'0:09.852',1395.471
'0:09.855',1394.889
'0:09.859',1394.466
'0:09.863',1394.282
'0:09.867',1394.417
'0:09.871',1394.905
'0:09.875',1395.721
'0:09.879',1396.836
'0:09.883',1398.135
'0:09.887',1399.410
'0:09.891',1400.509
'0:09.895',1401.411
'0:09.898',1402.103
'0:09.902',1402.550
'0:09.906',1402.763
'0:09.910',1402.808
'0:09.914',1402.718
'0:09.918',1402.517
'0:09.922',1402.267
'0:09.926',1402.058
'0:09.930',1401.939
'0:09.934',1401.915
'0:09.938',1401.976
'0:09.941',1402.071
'0:09.945',1402.120
'0:09.949',1402.148
'0:09.953',1402.304
'0:09.957',1402.735
'0:09.961',1403.501
'0:09.965',1404.534
'0:09.969',1405.653
'0:09.973',1406.625
'0:09.977',1407.285
'0:09.980',1407.564
'0:09.984',1407.482
'0:09.988',1407.125
'0:09.992',1406.555
'0:09.996',1405.850
'0:10.000',1405.034
'0:10.004',1404.083
'0:10.008',1403.005
'0:10.012',1401.902
'0:10.016',1400.939
'0:10.020',1400.222
'0:10.023',1399.701
'0:10.027',1399.209
'0:10.031',1398.598
'0:10.035',1397.881
'0:10.039',1397.225
'0:10.043',1396.750
'0:10.047',1396.528
'0:10.051',1396.651
'0:10.055',1397.209
'0:10.059',1398.111
'0:10.063',1399.045
'0:10.066',1399.631
'0:10.070',1399.644
'0:10.074',1399.058
'0:10.078',1398.037
'0:10.082',1396.832
'0:10.086',1395.770
'0:10.090',1395.147
'0:10.094',1395.098
'0:10.098',1395.520
'0:10.102',1396.241
'0:10.105',1397.160
'0:10.109',1398.197
'0:10.113',1399.246
'0:10.117',1400.177
'0:10.121',1400.886
'0:10.125',1401.267
'0:10.129',1401.230
'0:10.133',1400.718
'0:10.137',1399.652
'0:10.141',1397.988
'0:10.145',1395.733
'0:10.148',1392.941
'0:10.152',1389.674
'0:10.156',1386.055
'0:10.160',1382.279
'0:10.164',1378.602
'0:10.168',1375.294
'0:10.172',1372.654
'0:10.176',1370.932
'0:10.180',1370.211
'0:10.184',1370.366
'0:10.188',1371.108
'0:10.191',1372.084
'0:10.195',1372.920
'0:10.199',1373.285
'0:10.203',1372.945
'0:10.207',1371.863
'0:10.211',1370.260
'0:10.215',1368.505
'0:10.219',1366.886
'0:10.223',1365.505
'0:10.227',1364.361
'0:10.230',1363.476
'0:10.234',1362.816
'0:10.238',1362.266
'0:10.242',1361.701
'0:10.246',1361.053
'0:10.250',1360.266
'0:10.254',1359.384
'0:10.258',1358.589
'0:10.262',1358.019
'0:10.266',1357.667
'0:10.270',1357.433
'0:10.273',1357.232
'0:10.277',1356.986
'0:10.281',1356.638
'0:10.285',1356.175
'0:10.289',1355.634
'0:10.293',1355.080
'0:10.297',1354.674
'0:10.301',1354.670
'0:10.305',1355.322
'0:10.309',1356.794
'0:10.313',1359.126
'0:10.316',1362.254
'0:10.320',1365.984
'0:10.324',1370.039
'0:10.328',1374.121
'0:10.332',1378.057
'0:10.336',1381.763
'0:10.340',1385.198
'0:10.344',1388.301
'0:10.348',1391.080
'0:10.352',1393.593
'0:10.355',1395.909
'0:10.359',1398.045
'0:10.363',1399.984
'0:10.367',1401.693
'0:10.371',1403.140
'0:10.375',1404.280
'0:10.379',1405.157
'0:10.383',1405.862
'0:10.387',1406.404
'0:10.391',1406.707
'0:10.395',1406.715
'0:10.398',1406.465
'0:10.402',1405.998
'0:10.406',1405.358
'0:10.410',1404.624
'0:10.414',1403.878
'0:10.418',1403.190
'0:10.422',1402.575
'0:10.426',1402.079
'0:10.430',1401.792
'0:10.434',1401.780
'0:10.438',1402.075
'0:10.441',1402.714
'0:10.445',1403.620
'0:10.449',1404.579
'0:10.453',1405.403
'0:10.457',1405.998
'0:10.461',1406.285
'0:10.465',1406.215
'0:10.469',1405.838
'0:10.473',1405.235
'0:10.477',1404.444
'0:10.480',1403.514
'0:10.484',1402.583
'0:10.488',1401.821
'0:10.492',1401.320
'0:10.496',1401.087
'0:10.500',1401.095
'0:10.504',1401.304
'0:10.508',1401.689
'0:10.512',1402.247
'0:10.516',1402.989
'0:10.520',1403.936
'0:10.523',1405.133
'0:10.527',1406.629
'0:10.531',1408.461
'0:10.535',1410.609
'0:10.539',1412.946
'0:10.543',1415.238
'0:10.547',1417.201
'0:10.551',1418.669
'0:10.555',1419.661
'0:10.559',1420.259
'0:10.563',1420.522
'0:10.566',1420.546
'0:10.570',1420.567
'0:10.574',1420.821
'0:10.578',1421.382
'0:10.582',1422.112
'0:10.586',1422.731
'0:10.590',1423.030
'0:10.594',1423.014
'0:10.598',1422.809
'0:10.602',1422.543
'0:10.605',1422.329
'0:10.609',1422.358
'0:10.613',1422.809
'0:10.617',1423.735
'0:10.621',1425.096
'0:10.625',1426.843
'0:10.629',1428.839
'0:10.633',1430.790
'0:10.637',1432.332
'0:10.641',1433.168
'0:10.645',1433.270
'0:10.648',1432.852
'0:10.652',1432.200
'0:10.656',1431.467
'0:10.660',1430.692
'0:10.664',1429.909
'0:10.668',1429.142
'0:10.672',1428.400
'0:10.676',1427.724
'0:10.680',1427.187
'0:10.684',1426.839
'0:10.688',1426.699
'0:10.691',1426.757
'0:10.695',1426.921
'0:10.699',1427.011
'0:10.703',1426.863
'0:10.707',1426.367
'0:10.711',1425.498
'0:10.715',1424.301
'0:10.719',1422.916
'0:10.723',1421.464
'0:10.727',1419.980
'0:10.730',1418.447
'0:10.734',1416.816
'0:10.738',1415.069
'0:10.742',1413.212
'0:10.746',1411.253
'0:10.750',1409.171
'0:10.754',1406.941
'0:10.758',1404.670
'0:10.762',1402.591
'0:10.766',1400.886
'0:10.770',1399.541
'0:10.773',1398.369
'0:10.777',1397.057
'0:10.781',1395.331
'0:10.785',1393.101
'0:10.789',1390.506
'0:10.793',1387.764
'0:10.797',1385.104
'0:10.801',1382.779
'0:10.805',1381.037
'0:10.809',1379.971
'0:10.813',1379.492
'0:10.816',1379.364
'0:10.820',1379.344
'0:10.824',1379.299
'0:10.828',1379.217
'0:10.832',1379.168
'0:10.836',1379.160
'0:10.840',1379.151
'0:10.844',1379.078
'0:10.848',1378.848
'0:10.852',1378.340
'0:10.855',1377.438
'0:10.859',1376.069
'0:10.863',1374.302
'0:10.867',1372.363
'0:10.871',1370.481
'0:10.875',1368.784
'0:10.879',1367.390
'0:10.883',1366.472
'0:10.887',1366.177
'0:10.891',1366.571
'0:10.895',1367.706
'0:10.898',1369.559
'0:10.902',1371.978
'0:10.906',1374.736
'0:10.910',1377.553
'0:10.914',1380.086
'0:10.918',1382.074
'0:10.922',1383.472
'0:10.926',1384.411
'0:10.930',1385.145
'0:10.934',1385.907
'0:10.938',1386.833
'0:10.941',1388.006
'0:10.945',1389.498
'0:10.949',1391.326
'0:10.953',1393.388
'0:10.957',1395.553
'0:10.961',1397.717
'0:10.965',1399.824
'0:10.969',1401.800
'0:10.973',1403.612
'0:10.977',1405.276
'0:10.980',1406.797
'0:10.984',1408.109
'0:10.988',1409.162
'0:10.992',1409.978
'0:10.996',1410.568
'0:11.000',1410.966
'0:11.004',1411.212
'0:11.008',1411.298
'0:11.012',1411.155
'0:11.016',1410.782
'0:11.020',1410.286
'0:11.023',1409.749
'0:11.027',1409.203
'0:11.031',1408.634
'0:11.035',1408.023
'0:11.039',1407.375
'0:11.043',1406.686
'0:11.047',1405.977
'0:11.051',1405.268
'0:11.055',1404.567
'0:11.059',1403.866
'0:11.063',1403.128
'0:11.066',1402.337
'0:11.070',1401.497
'0:11.074',1400.599
'0:11.078',1399.599
'0:11.082',1398.434
'0:11.086',1397.057
'0:11.090',1395.426
'0:11.094',1393.642
'0:11.098',1391.880
'0:11.102',1390.248
'0:11.105',1388.723
'0:11.109',1387.264
'0:11.113',1385.964
'0:11.117',1385.038
'0:11.121',1384.657
'0:11.125',1384.788
'0:11.129',1385.177
'0:11.133',1385.440
'0:11.137',1385.210
'0:11.141',1384.300
'0:11.145',1382.763
'0:11.148',1380.865
'0:11.152',1378.901
'0:11.156',1377.020
'0:11.160',1375.220
'0:11.164',1373.502
'0:11.168',1371.875
'0:11.172',1370.252
'0:11.176',1368.460
'0:11.180',1366.398
'0:11.184',1364.086
'0:11.188',1361.610
'0:11.191',1359.040
'0:11.195',1356.433
'0:11.199',1353.879
'0:11.203',1351.514
'0:11.207',1349.472
'0:11.211',1347.747
'0:11.215',1346.230
'0:11.219',1344.791
'0:11.223',1343.405
'0:11.227',1342.085
'0:11.230',1340.872
'0:11.234',1339.855
'0:11.238',1339.126
'0:11.242',1338.708
'0:11.246',1338.531
'0:11.250',1338.486
'0:11.254',1338.494
'0:11.258',1338.531
'0:11.262',1338.658
'0:11.266',1339.003
'0:11.270',1339.622
'0:11.273',1340.528
'0:11.277',1341.737
'0:11.281',1343.254
'0:11.285',1345.020
'0:11.289',1346.947
'0:11.293',1348.870
'0:11.297',1350.628
'0:11.301',1352.198
'0:11.305',1353.711
'0:11.309',1355.281
'0:11.313',1356.876
'0:11.316',1358.315
'0:11.320',1359.409
'0:11.324',1360.114
'0:11.328',1360.598
'0:11.332',1361.127
'0:11.336',1361.910
'0:11.340',1363.021
'0:11.344',1364.422
'0:11.348',1366.070
'0:11.352',1367.878
'0:11.355',1369.707
'0:11.359',1371.449
'0:11.363',1373.080
'0:11.367',1374.601
'0:11.371',1376.024
'0:11.375',1377.413
'0:11.379',1378.811
'0:11.383',1380.184
'0:11.387',1381.513
'0:11.391',1382.812
'0:11.395',1384.070
'0:11.398',1385.255
'0:11.402',1386.358
'0:11.406',1387.375
'0:11.410',1388.293
'0:11.414',1389.039
'0:11.418',1389.486
'0:11.422',1389.576
'0:11.426',1389.400
'0:11.430',1389.145
'0:11.434',1388.986
'0:11.438',1389.022
'0:11.441',1389.309
'0:11.445',1389.859
'0:11.449',1390.670
'0:11.453',1391.687
'0:11.457',1392.818
'0:11.461',1393.983
'0:11.465',1395.122
'0:11.469',1396.143
'0:11.473',1396.885
'0:11.477',1397.176
'0:11.480',1396.967
'0:11.484',1396.463
'0:11.488',1396.049
'0:11.492',1396.151
'0:11.496',1397.094
'0:11.500',1399.037
'0:11.504',1401.964
'0:11.508',1405.645
'0:11.512',1409.658
'0:11.516',1413.499
'0:11.520',1416.709
'0:11.523',1418.984
'0:11.527',1420.206
'0:11.531',1420.452
'0:11.535',1419.907
'0:11.539',1418.775
'0:11.543',1417.345
'0:11.547',1416.000
'0:11.551',1415.168
'0:11.555',1415.106
'0:11.559',1415.889
'0:11.563',1417.422
'0:11.566',1419.452
'0:11.570',1421.657
'0:11.574',1423.719
'0:11.578',1425.363
'0:11.582',1426.334
'0:11.586',1426.511
'0:11.590',1425.990
'0:11.594',1425.084
'0:11.598',1424.190
'0:11.602',1423.617
'0:11.605',1423.440
'0:11.609',1423.563
'0:11.613',1423.867
'0:11.617',1424.186
'0:11.621',1424.309
'0:11.625',1424.014
'0:11.629',1423.170
'0:11.633',1421.821
'0:11.637',1420.124
'0:11.641',1418.283
'0:11.645',1416.496
'0:11.648',1414.987
'0:11.652',1413.918
'0:11.656',1413.335
'0:11.660',1413.200
'0:11.664',1413.426
'0:11.668',1413.872
'0:11.672',1414.360
'0:11.676',1414.840
'0:11.680',1415.418
'0:11.684',1416.164
'0:11.688',1416.980
'0:11.691',1417.636
'0:11.695',1417.947
'0:11.699',1417.865
'0:11.703',1417.422
'0:11.707',1416.676
'0:11.711',1415.664
'0:11.715',1414.373
'0:11.719',1412.721
'0:11.723',1410.642
'0:11.727',1408.195
'0:11.730',1405.612
'0:11.734',1403.108
'0:11.738',1400.800
'0:11.742',1398.734
'0:11.746',1396.922
'0:11.750',1395.385
'0:11.754',1394.196
'0:11.758',1393.450
'0:11.762',1393.126
'0:11.766',1392.995
'0:11.770',1392.716
'0:11.773',1392.027
'0:11.777',1390.933
'0:11.781',1389.670
'0:11.785',1388.518
'0:11.789',1387.625
'0:11.793',1387.018
'0:11.797',1386.604
'0:11.801',1386.198
'0:11.805',1385.587
'0:11.809',1384.591
'0:11.813',1383.148
'0:11.816',1381.349
'0:11.820',1379.389
'0:11.824',1377.458
'0:11.828',1375.610
'0:11.832',1373.806
'0:11.836',1372.076
'0:11.840',1370.563
'0:11.844',1369.428
'0:11.848',1368.678
'0:11.852',1368.186
'0:11.855',1367.809
'0:11.859',1367.563
'0:11.863',1367.665
'0:11.867',1368.362
'0:11.871',1369.784
'0:11.875',1371.937
'0:11.879',1374.728
'0:11.883',1377.893
'0:11.887',1381.008
'0:11.891',1383.644
'0:11.895',1385.546
'0:11.898',1386.633
'0:11.902',1387.001
'0:11.906',1386.899
'0:11.910',1386.579
'0:11.914',1386.247
'0:11.918',1386.059
'0:11.922',1386.091
'0:11.926',1386.292
'0:11.930',1386.587
'0:11.934',1386.965
'0:11.938',1387.481
'0:11.941',1388.215
'0:11.945',1389.170
'0:11.949',1390.277
'0:11.953',1391.388
'0:11.957',1392.437
'0:11.961',1393.454
'0:11.965',1394.438
'0:11.969',1395.299
'0:11.973',1396.004
'0:11.977',1396.598
'0:11.980',1397.168
'0:11.984',1397.795
'0:11.988',1398.500
'0:11.992',1399.226
'0:11.996',1399.882
'0:12.000',1400.447
'0:12.004',1400.902
'0:12.008',1401.243
'0:12.012',1401.521
'0:12.016',1401.816
'0:12.020',1402.116
'0:12.023',1402.374
'0:12.027',1402.599
'0:12.031',1402.825
'0:12.035',1403.079
'0:12.039',1403.362
'0:12.043',1403.628
'0:12.047',1403.764
'0:12.051',1403.665
'0:12.055',1403.292
'0:12.059',1402.657
'0:12.063',1401.816
'0:12.066',1400.833
'0:12.070',1399.701
'0:12.074',1398.385
'0:12.078',1396.832
'0:12.082',1395.032
'0:12.086',1393.036
'0:12.090',1390.978
'0:12.094',1389.117
'0:12.098',1387.686
'0:12.102',1386.792
'0:12.105',1386.407
'0:12.109',1386.436
'0:12.113',1386.645
'0:12.117',1386.706
'0:12.121',1386.337
'0:12.125',1385.395
'0:12.129',1383.886
'0:12.133',1381.972
'0:12.137',1379.873
'0:12.141',1377.700
'0:12.145',1375.380
'0:12.148',1372.744
'0:12.152',1369.715
'0:12.156',1366.370
'0:12.160',1362.877
'0:12.164',1359.417
'0:12.168',1356.142
'0:12.172',1353.174
'0:12.176',1350.649
'0:12.180',1348.739
'0:12.184',1347.521
'0:12.188',1346.890
'0:12.191',1346.615
'0:12.195',1346.468
'0:12.199',1346.271
'0:12.203',1345.873
'0:12.207',1345.164
'0:12.211',1344.205
'0:12.215',1343.217
'0:12.219',1342.405
'0:12.223',1341.823
'0:12.227',1341.483
'0:12.230',1341.388
'0:12.234',1341.507
'0:12.238',1341.766
'0:12.242',1342.126
'0:12.246',1342.585
'0:12.250',1343.073
'0:12.254',1343.508
'0:12.258',1343.873
'0:12.262',1344.209
'0:12.266',1344.611
'0:12.270',1345.164
'0:12.273',1345.881
'0:12.277',1346.734
'0:12.281',1347.710
'0:12.285',1348.829
'0:12.289',1350.136
'0:12.293',1351.694
'0:12.297',1353.555
'0:12.301',1355.732
'0:12.305',1358.151
'0:12.309',1360.688
'0:12.313',1363.172
'0:12.316',1365.398
'0:12.320',1367.181
'0:12.324',1368.485
'0:12.328',1369.420
'0:12.332',1370.129
'0:12.336',1370.740
'0:12.340',1371.375
'0:12.344',1372.113
'0:12.348',1372.933
'0:12.352',1373.773
'0:12.355',1374.622
'0:12.359',1375.523
'0:12.363',1376.507
'0:12.367',1377.553
'0:12.371',1378.627
'0:12.375',1379.717
'0:12.379',1380.803
'0:12.383',1381.881
'0:12.387',1382.931
'0:12.391',1383.894
'0:12.395',1384.730
'0:12.398',1385.440
'0:12.402',1386.071
'0:12.406',1386.751
'0:12.410',1387.592
'0:12.414',1388.592
'0:12.418',1389.609
'0:12.422',1390.490
'0:12.426',1391.154
'0:12.430',1391.613
'0:12.434',1391.876
'0:12.438',1391.945
'0:12.441',1391.847
'0:12.445',1391.654
'0:12.449',1391.494
'0:12.453',1391.462
'0:12.457',1391.580
'0:12.461',1391.835
'0:12.465',1392.232
'0:12.469',1392.876
'0:12.473',1393.921
'0:12.477',1395.512
'0:12.480',1397.791
'0:12.484',1400.800
'0:12.488',1404.383
'0:12.492',1408.154
'0:12.496',1411.626
'0:12.500',1414.389
'0:12.504',1416.221
'0:12.508',1417.111
'0:12.512',1417.218
'0:12.516',1416.808
'0:12.520',1416.205
'0:12.523',1415.709
'0:12.527',1415.463
'0:12.531',1415.430
'0:12.535',1415.537
'0:12.539',1415.807
'0:12.543',1416.332
'0:12.547',1417.082
'0:12.551',1418.005
'0:12.555',1419.107
'0:12.559',1420.382
'0:12.563',1421.665
'0:12.566',1422.653
'0:12.570',1423.178
'0:12.574',1423.362
'0:12.578',1423.543
'0:12.582',1424.039
'0:12.586',1424.932
'0:12.590',1426.093
'0:12.594',1427.281
'0:12.598',1428.405
'0:12.602',1429.577
'0:12.605',1431.040
'0:12.609',1432.975
'0:12.613',1435.390
'0:12.617',1438.124
'0:12.621',1440.907
'0:12.625',1443.457
'0:12.629',1445.552
'0:12.633',1447.085
'0:12.637',1448.114
'0:12.641',1448.786
'0:12.645',1449.254
'0:12.648',1449.610
'0:12.652',1449.979
'0:12.656',1450.434
'0:12.660',1450.951
'0:12.664',1451.484
'0:12.668',1452.029
'0:12.672',1452.582
'0:12.676',1453.144
'0:12.680',1453.701
'0:12.684',1454.185
'0:12.688',1454.529
'0:12.691',1454.698
'0:12.695',1454.673
'0:12.699',1454.423
'0:12.703',1453.931
'0:12.707',1453.209
'0:12.711',1452.308
'0:12.715',1451.291
'0:12.719',1450.196
'0:12.723',1448.926
'0:12.727',1447.339
'0:12.730',1445.392
'0:12.734',1443.154
'0:12.738',1440.641
'0:12.742',1437.825
'0:12.746',1434.734
'0:12.750',1431.528
'0:12.754',1428.359
'0:12.758',1425.264
'0:12.762',1422.149
'0:12.766',1418.956
'0:12.770',1415.697
'0:12.773',1412.413
'0:12.777',1409.125
'0:12.781',1405.875
'0:12.785',1402.722
'0:12.789',1399.734
'0:12.793',1397.024
'0:12.797',1394.733
'0:12.801',1392.970
'0:12.805',1391.740
'0:12.809',1390.908
'0:12.813',1390.219
'0:12.816',1389.412
'0:12.820',1388.395
'0:12.824',1387.288
'0:12.828',1386.227
'0:12.832',1385.186
'0:12.836',1383.989
'0:12.840',1382.464
'0:12.844',1380.611
'0:12.848',1378.610
'0:12.852',1376.720
'0:12.855',1375.183
'0:12.859',1374.199
'0:12.863',1373.912
'0:12.867',1374.404
'0:12.871',1375.687
'0:12.875',1377.704
'0:12.879',1380.328
'0:12.883',1383.353
'0:12.887',1386.469
'0:12.891',1389.268
'0:12.895',1391.384
'0:12.898',1392.671
'0:12.902',1393.314
'0:12.906',1393.634
'0:12.910',1393.880
'0:12.914',1394.175
'0:12.918',1394.602
'0:12.922',1395.258
'0:12.926',1396.151
'0:12.930',1397.184
'0:12.934',1398.209
'0:12.938',1399.131
'0:12.941',1399.931
'0:12.945',1400.652
'0:12.949',1401.296
'0:12.953',1401.808
'0:12.957',1402.140
'0:12.961',1402.329
'0:12.965',1402.444
'0:12.969',1402.505
'0:12.973',1402.439
'0:12.977',1402.214
'0:12.980',1401.931
'0:12.984',1401.833
'0:12.988',1402.185
'0:12.992',1403.210
'0:12.996',1405.026
'0:13.000',1407.601
'0:13.004',1410.790
'0:13.008',1414.332
'0:13.012',1417.861
'0:13.016',1421.054
'0:13.020',1423.776
'0:13.023',1426.080
'0:13.027',1428.023
'0:13.031',1429.593
'0:13.035',1430.700
'0:13.039',1431.254
'0:13.043',1431.233
'0:13.047',1430.794
'0:13.051',1430.216
'0:13.055',1429.798
'0:13.059',1429.737
'0:13.063',1430.122
'0:13.066',1430.897
'0:13.070',1431.840
'0:13.074',1432.619
'0:13.078',1432.918
'0:13.082',1432.578
'0:13.086',1431.647
'0:13.090',1430.290
'0:13.094',1428.671
'0:13.098',1426.884
'0:13.102',1425.051
'0:13.105',1423.334
'0:13.109',1421.829
'0:13.113',1420.505
'0:13.117',1419.243
'0:13.121',1417.808
'0:13.125',1415.885
'0:13.129',1413.155
'0:13.133',1409.490
'0:13.137',1404.969
'0:13.141',1399.886
'0:13.145',1394.671
'0:13.148',1389.781
'0:13.152',1385.571
'0:13.156',1382.201
'0:13.160',1379.668
'0:13.164',1377.901
'0:13.168',1376.843
'0:13.172',1376.380
'0:13.176',1376.294
'0:13.180',1376.302
'0:13.184',1376.212
'0:13.188',1375.942
'0:13.191',1375.400
'0:13.195',1374.486
'0:13.199',1373.183
'0:13.203',1371.596
'0:13.207',1369.879
'0:13.211',1368.198
'0:13.215',1366.644
'0:13.219',1365.218
'0:13.223',1363.865
'0:13.227',1362.512
'0:13.230',1361.110
'0:13.234',1359.680
'0:13.238',1358.253
'0:13.242',1356.851
'0:13.246',1355.478
'0:13.250',1354.096
'0:13.254',1352.670
'0:13.258',1351.235
'0:13.262',1349.866
'0:13.266',1348.611
'0:13.270',1347.521
'0:13.273',1346.677
'0:13.277',1346.164
'0:13.281',1345.988
'0:13.285',1346.004
'0:13.289',1345.972
'0:13.293',1345.803
'0:13.297',1345.553
'0:13.301',1345.303
'0:13.305',1345.094
'0:13.309',1344.951
'0:13.313',1344.918
'0:13.316',1345.061
'0:13.320',1345.422
'0:13.324',1346.025
'0:13.328',1346.906
'0:13.332',1348.054
'0:13.336',1349.382
'0:13.340',1350.698
'0:13.344',1351.813
'0:13.348',1352.575
'0:13.352',1352.920
'0:13.355',1352.883
'0:13.359',1352.506
'0:13.363',1351.805
'0:13.367',1350.800
'0:13.371',1349.579
'0:13.375',1348.300
'0:13.379',1347.222
'0:13.383',1346.693
'0:13.387',1347.033
'0:13.391',1348.411
'0:13.395',1350.821
'0:13.398',1354.109
'0:13.402',1358.040
'0:13.406',1362.320
'0:13.410',1366.599
'0:13.414',1370.526
'0:13.418',1373.777
'0:13.422',1376.130
'0:13.426',1377.467
'0:13.430',1377.831
'0:13.434',1377.446
'0:13.438',1376.696
'0:13.441',1376.040
'0:13.445',1375.765
'0:13.449',1375.892
'0:13.453',1376.319
'0:13.457',1376.991
'0:13.461',1377.922
'0:13.465',1379.098
'0:13.469',1380.463
'0:13.473',1381.931
'0:13.477',1383.402
'0:13.480',1384.808
'0:13.484',1386.124
'0:13.488',1387.346
'0:13.492',1388.473
'0:13.496',1389.465
'0:13.500',1390.269
'0:13.504',1390.859
'0:13.508',1391.269
'0:13.512',1391.568
'0:13.516',1391.867
'0:13.520',1392.318
'0:13.523',1393.023
'0:13.527',1394.024
'0:13.531',1395.368
'0:13.535',1397.061
'0:13.539',1399.012
'0:13.543',1401.111
'0:13.547',1403.345
'0:13.551',1405.735
'0:13.555',1408.207
'0:13.559',1410.536
'0:13.563',1412.495
'0:13.566',1414.012
'0:13.570',1415.180
'0:13.574',1416.127
'0:13.578',1416.906
'0:13.582',1417.541
'0:13.586',1418.087
'0:13.590',1418.628
'0:13.594',1419.234
'0:13.598',1419.894
'0:13.602',1420.604
'0:13.605',1421.378
'0:13.609',1422.227
'0:13.613',1423.170
'0:13.617',1424.272
'0:13.621',1425.535
'0:13.625',1426.880
'0:13.629',1428.212
'0:13.633',1429.483
'0:13.637',1430.712
'0:13.641',1431.959
'0:13.645',1433.266
'0:13.648',1434.631
'0:13.652',1435.984
'0:13.656',1437.214
'0:13.660',1438.239
'0:13.664',1438.977
'0:13.668',1439.391
'0:13.672',1439.530
'0:13.676',1439.526
'0:13.680',1439.530
'0:13.684',1439.628
'0:13.688',1439.829
'0:13.691',1440.112
'0:13.695',1440.440
'0:13.699',1440.723
'0:13.703',1440.842
'0:13.707',1440.723
'0:13.711',1440.358
'0:13.715',1439.760
'0:13.719',1438.907
'0:13.723',1437.780
'0:13.727',1436.390
'0:13.730',1434.808
'0:13.734',1433.098
'0:13.738',1431.282
'0:13.742',1429.302
'0:13.746',1427.113
'0:13.750',1424.768
'0:13.754',1422.383
'0:13.758',1420.108
'0:13.762',1418.115
'0:13.766',1416.492
'0:13.770',1415.139
'0:13.773',1413.758
'0:13.777',1411.983
'0:13.781',1409.576
'0:13.785',1406.469
'0:13.789',1402.772
'0:13.793',1398.717
'0:13.797',1394.618
'0:13.801',1390.715
'0:13.805',1387.083
'0:13.809',1383.636
'0:13.813',1380.254
'0:13.816',1376.880
'0:13.820',1373.515
'0:13.824',1370.215
'0:13.828',1367.132
'0:13.832',1364.414
'0:13.836',1362.156
'0:13.840',1360.294
'0:13.844',1358.704
'0:13.848',1357.335
'0:13.852',1356.179
'0:13.855',1355.224
'0:13.859',1354.420
'0:13.863',1353.719
'0:13.867',1353.113
'0:13.871',1352.604
'0:13.875',1352.092
'0:13.879',1351.460
'0:13.883',1350.690
'0:13.887',1349.837
'0:13.891',1348.984
'0:13.895',1348.267
'0:13.898',1347.808
'0:13.902',1347.640
'0:13.906',1347.706
'0:13.910',1347.874
'0:13.914',1347.984
'0:13.918',1347.828
'0:13.922',1347.164
'0:13.926',1345.808
'0:13.930',1343.725
'0:13.934',1341.093
'0:13.938',1338.236
'0:13.941',1335.502
'0:13.945',1333.120
'0:13.949',1331.124
'0:13.953',1329.468
'0:13.957',1328.201
'0:13.961',1327.525
'0:13.965',1327.602
'0:13.969',1328.406
'0:13.973',1329.714
'0:13.977',1331.263
'0:13.980',1332.882
'0:13.984',1334.510
'0:13.988',1336.170
'0:13.992',1337.892
'0:13.996',1339.646
'0:14.000',1341.356
'0:14.004',1342.987
'0:14.008',1344.635
'0:14.012',1346.373
'0:14.016',1348.206
'0:14.020',1350.190
'0:14.023',1352.436
'0:14.027',1354.974
'0:14.031',1357.753
'0:14.035',1360.717
'0:14.039',1363.779
'0:14.043',1366.739
'0:14.047',1369.313
'0:14.051',1371.272
'0:14.055',1372.564
'0:14.059',1373.257
'0:14.063',1373.416
'0:14.066',1373.084
'0:14.070',1372.383
'0:14.074',1371.592
'0:14.078',1371.092
'0:14.082',1371.240
'0:14.086',1372.170
'0:14.090',1373.716
'0:14.094',1375.511
'0:14.098',1377.171
'0:14.102',1378.434
'0:14.105',1379.176
'0:14.109',1379.348
'0:14.113',1378.963
'0:14.117',1378.139
'0:14.121',1377.048
'0:14.125',1375.888
'0:14.129',1374.884
'0:14.133',1374.249
'0:14.137',1373.966
'0:14.141',1373.707
'0:14.145',1372.990
'0:14.148',1371.400
'0:14.152',1368.792
'0:14.156',1365.349
'0:14.160',1361.446
'0:14.164',1357.503
'0:14.168',1353.879
'0:14.172',1350.837
'0:14.176',1348.517
'0:14.180',1346.955
'0:14.184',1346.140
'0:14.188',1346.045
'0:14.191',1346.615
'0:14.195',1347.759
'0:14.199',1349.337
'0:14.203',1351.186
'0:14.207',1353.117
'0:14.211',1354.965
'0:14.215',1356.699
'0:14.219',1358.392
'0:14.223',1360.098
'0:14.227',1361.778
'0:14.230',1363.336
'0:14.234',1364.644
'0:14.238',1365.542
'0:14.242',1365.943
'0:14.246',1365.898
'0:14.250',1365.533
'0:14.254',1364.996
'0:14.258',1364.422
'0:14.262',1363.881
'0:14.266',1363.312
'0:14.270',1362.590
'0:14.273',1361.660
'0:14.277',1360.655
'0:14.281',1359.823
'0:14.285',1359.343
'0:14.289',1359.241
'0:14.293',1359.499
'0:14.297',1360.184
'0:14.301',1361.336
'0:14.305',1362.832
'0:14.309',1364.365
'0:14.313',1365.603
'0:14.316',1366.333
'0:14.320',1366.480
'0:14.324',1366.042
'0:14.328',1365.058
'0:14.332',1363.599
'0:14.336',1361.729
'0:14.340',1359.528
'0:14.344',1357.023
'0:14.348',1354.252
'0:14.352',1351.333
'0:14.355',1348.562
'0:14.359',1346.299
'0:14.363',1344.770
'0:14.367',1343.963
'0:14.371',1343.754
'0:14.375',1344.061
'0:14.379',1344.783
'0:14.383',1345.676
'0:14.387',1346.308
'0:14.391',1346.242
'0:14.395',1345.238
'0:14.398',1343.377
'0:14.402',1340.987
'0:14.406',1338.453
'0:14.410',1336.125
'0:14.414',1334.239
'0:14.418',1332.956
'0:14.422',1332.370
'0:14.426',1332.534
'0:14.430',1333.448
'0:14.434',1335.026
'0:14.438',1337.056
'0:14.441',1339.228
'0:14.445',1341.245
'0:14.449',1342.905
'0:14.453',1344.098
'0:14.457',1344.766
'0:14.461',1344.971
'0:14.465',1344.865
'0:14.469',1344.635
'0:14.473',1344.442
'0:14.477',1344.414
'0:14.480',1344.684
'0:14.484',1345.340
'0:14.488',1346.439
'0:14.492',1348.029
'0:14.496',1350.075
'0:14.500',1352.395
'0:14.504',1354.748
'0:14.508',1356.982
'0:14.512',1359.057
'0:14.516',1360.983
'0:14.520',1362.766
'0:14.523',1364.398
'0:14.527',1365.935
'0:14.531',1367.554
'0:14.535',1369.440
'0:14.539',1371.629
'0:14.543',1373.937
'0:14.547',1376.089
'0:14.551',1377.909
'0:14.555',1379.451
'0:14.559',1380.992
'0:14.563',1382.902
'0:14.566',1385.423
'0:14.570',1388.572
'0:14.574',1392.146
'0:14.578',1395.803
'0:14.582',1399.094
'0:14.586',1401.632
'0:14.590',1403.181
'0:14.594',1403.714
'0:14.598',1403.382
'0:14.602',1402.497
'0:14.605',1401.480
'0:14.609',1400.746
'0:14.613',1400.603
'0:14.617',1401.173
'0:14.621',1402.374
'0:14.625',1403.878
'0:14.629',1405.149
'0:14.633',1405.592
'0:14.637',1404.764
'0:14.641',1402.534
'0:14.645',1399.074
'0:14.648',1394.778
'0:14.652',1390.064
'0:14.656',1385.235
'0:14.660',1380.439
'0:14.664',1375.741
'0:14.668',1371.182
'0:14.672',1366.837
'0:14.676',1362.787
'0:14.680',1359.102
'0:14.684',1355.830
'0:14.688',1352.957
'0:14.691',1350.407
'0:14.695',1348.074
'0:14.699',1345.902
'0:14.703',1343.905
'0:14.707',1342.126
'0:14.711',1340.536
'0:14.715',1339.031
'0:14.719',1337.547
'0:14.723',1336.129
'0:14.727',1334.871
'0:14.730',1333.833
'0:14.734',1333.001
'0:14.738',1332.288
'0:14.742',1331.616
'0:14.746',1330.935
'0:14.750',1330.247
'0:14.754',1329.689
'0:14.758',1329.578
'0:14.762',1330.218
'0:14.766',1331.817
'0:14.770',1334.428
'0:14.773',1337.998
'0:14.777',1342.364
'0:14.781',1347.275
'0:14.785',1352.473
'0:14.789',1357.749
'0:14.793',1362.975
'0:14.797',1368.050
'0:14.801',1372.826
'0:14.805',1377.069
'0:14.809',1380.549
'0:14.813',1383.156
'0:14.816',1384.976
'0:14.820',1386.214
'0:14.824',1387.063
'0:14.828',1387.731
'0:14.832',1388.531
'0:14.836',1389.805
'0:14.840',1391.753
'0:14.844',1394.302
'0:14.848',1397.143
'0:14.852',1399.816
'0:14.855',1401.866
'0:14.859',1402.977
'0:14.863',1403.108
'0:14.867',1402.501
'0:14.871',1401.591
'0:14.875',1400.828
'0:14.879',1400.501
'0:14.883',1400.656
'0:14.887',1401.128
'0:14.891',1401.620
'0:14.895',1401.845
'0:14.898',1401.607
'0:14.902',1400.820
'0:14.906',1399.447
'0:14.910',1397.529
'0:14.914',1395.245
'0:14.918',1392.909
'0:14.922',1390.818
'0:14.926',1389.080
'0:14.930',1387.563
'0:14.934',1386.005
'0:14.938',1384.255
'0:14.941',1382.345
'0:14.945',1380.459
'0:14.949',1378.795
'0:14.953',1377.426
'0:14.957',1376.339
'0:14.961',1375.495
'0:14.965',1374.847
'0:14.969',1374.306
'0:14.973',1373.802
'0:14.977',1373.285
'0:14.980',1372.732
'0:14.984',1372.121
'0:14.988',1371.432
'0:14.992',1370.653
'0:14.996',1369.776
'0:15.000',1368.805
'0:15.004',1367.772
'0:15.008',1366.755
'0:15.012',1365.841
'0:15.016',1365.054
'0:15.020',1364.365
'0:15.023',1363.697
'0:15.027',1363.021
'0:15.031',1362.344
'0:15.035',1361.643
'0:15.039',1360.791
'0:15.043',1359.692
'0:15.047',1358.499
'0:15.051',1357.609
'0:15.055',1357.404
'0:15.059',1358.122
'0:15.063',1359.803
'0:15.066',1362.303
'0:15.070',1365.255
'0:15.074',1368.149
'0:15.078',1370.481
'0:15.082',1371.953
'0:15.086',1372.453
'0:15.090',1372.014
'0:15.094',1370.731
'0:15.098',1368.788
'0:15.102',1366.493
'0:15.105',1364.218
'0:15.109',1362.340
'0:15.113',1361.118
'0:15.117',1360.643
'0:15.121',1360.770
'0:15.125',1361.200
'0:15.129',1361.573
'0:15.133',1361.655
'0:15.137',1361.471
'0:15.141',1361.209
'0:15.145',1361.004
'0:15.148',1360.819
'0:15.152',1360.561
'0:15.156',1360.184
'0:15.160',1359.651
'0:15.164',1358.798
'0:15.168',1357.441
'0:15.172',1355.613
'0:15.176',1353.613
'0:15.180',1351.813
'0:15.184',1350.493
'0:15.188',1349.800
'0:15.191',1349.772
'0:15.195',1350.358
'0:15.199',1351.436
'0:15.203',1352.834
'0:15.207',1354.355
'0:15.211',1355.851
'0:15.215',1357.249
'0:15.219',1358.560
'0:15.223',1359.815
'0:15.227',1361.028
'0:15.230',1362.188
'0:15.234',1363.201
'0:15.238',1363.828
'0:15.242',1363.779
'0:15.246',1362.865
'0:15.250',1361.123
'0:15.254',1358.741
'0:15.258',1355.937
'0:15.262',1352.854
'0:15.266',1349.546
'0:15.270',1345.996
'0:15.273',1342.139
'0:15.277',1337.925
'0:15.281',1333.391
'0:15.285',1328.701
'0:15.289',1324.106
'0:15.293',1319.863
'0:15.297',1316.075
'0:15.301',1312.652
'0:15.305',1309.402
'0:15.309',1306.085
'0:15.313',1302.502
'0:15.316',1298.485
'0:15.320',1293.972
'0:15.324',1289.094
'0:15.328',1284.142
'0:15.332',1279.403
'0:15.336',1274.992
'0:15.340',1270.852
'0:15.344',1266.892
'0:15.348',1263.063
'0:15.352',1259.378
'0:15.355',1255.918
'0:15.359',1252.782
'0:15.363',1249.933
'0:15.367',1247.309
'0:15.371',1244.936
'0:15.375',1242.898
'0:15.379',1241.283
'0:15.383',1240.254
'0:15.387',1240.090
'0:15.391',1241.017
'0:15.395',1243.050
'0:15.398',1246.051
'0:15.402',1249.773
'0:15.406',1253.950
'0:15.410',1258.423
'0:15.414',1263.227
'0:15.418',1268.544
'0:15.422',1274.562
'0:15.426',1281.436
'0:15.430',1289.155
'0:15.434',1297.518
'0:15.438',1306.229
'0:15.441',1315.030
'0:15.445',1323.716
'0:15.449',1332.177
'0:15.453',1340.405
'0:15.457',1348.382
'0:15.461',1356.060
'0:15.465',1363.385
'0:15.469',1370.297
'0:15.473',1376.745
'0:15.477',1382.783
'0:15.480',1388.576
'0:15.484',1394.319
'0:15.488',1400.119
'0:15.492',1405.994
'0:15.496',1411.819
'0:15.500',1417.390
'0:15.504',1422.522
'0:15.508',1427.179
'0:15.512',1431.430
'0:15.516',1435.332
'0:15.520',1438.878
'0:15.523',1442.014
'0:15.527',1444.724
'0:15.531',1447.036
'0:15.535',1448.987
'0:15.539',1450.578
'0:15.543',1451.803
'0:15.547',1452.685
'0:15.551',1453.328
'0:15.555',1453.857
'0:15.559',1454.370
'0:15.563',1454.968
'0:15.566',1455.706
'0:15.570',1456.468
'0:15.574',1456.948
'0:15.578',1456.772
'0:15.582',1455.661
'0:15.586',1453.546
'0:15.590',1450.574
'0:15.594',1447.056
'0:15.598',1443.285
'0:15.602',1439.444
'0:15.605',1435.652
'0:15.609',1432.041
'0:15.613',1428.638
'0:15.617',1425.322
'0:15.621',1421.907
'0:15.625',1418.242
'0:15.629',1414.262
'0:15.633',1410.052
'0:15.637',1405.903
'0:15.641',1402.198
'0:15.645',1399.242
'0:15.648',1397.164
'0:15.652',1395.864
'0:15.656',1395.098
'0:15.660',1394.659
'0:15.664',1394.581
'0:15.668',1395.110
'0:15.672',1396.471
'0:15.676',1398.697
'0:15.680',1401.603
'0:15.684',1404.825
'0:15.688',1407.949
'0:15.691',1410.614
'0:15.695',1412.589
'0:15.699',1413.799
'0:15.703',1414.315
'0:15.707',1414.307
'0:15.711',1413.938
'0:15.715',1413.290
'0:15.719',1412.364
'0:15.723',1411.204
'0:15.727',1409.937
'0:15.730',1408.642
'0:15.734',1407.211
'0:15.738',1405.395
'0:15.742',1403.009
'0:15.746',1400.107
'0:15.750',1396.934
'0:15.754',1393.749
'0:15.758',1390.679
'0:15.762',1387.748
'0:15.766',1384.923
'0:15.770',1382.119
'0:15.773',1379.250
'0:15.777',1376.356
'0:15.781',1373.617
'0:15.785',1371.211
'0:15.789',1369.243
'0:15.793',1367.759
'0:15.797',1366.718
'0:15.801',1366.029
'0:15.805',1365.685
'0:15.809',1365.706
'0:15.813',1365.997
'0:15.816',1366.357
'0:15.820',1366.689
'0:15.824',1367.075
'0:15.828',1367.640
'0:15.832',1368.469
'0:15.836',1369.575
'0:15.840',1370.908
'0:15.844',1372.342
'0:15.848',1373.802
'0:15.852',1375.310
'0:15.855',1376.897
'0:15.859',1378.557
'0:15.863',1380.283
'0:15.867',1381.984
'0:15.871',1383.484
'0:15.875',1384.579
'0:15.879',1385.186
'0:15.883',1385.349
'0:15.887',1385.177
'0:15.891',1384.763
'0:15.895',1384.198
'0:15.898',1383.554
'0:15.902',1382.878
'0:15.906',1382.140
'0:15.910',1381.357
'0:15.914',1380.553
'0:15.918',1379.598
'0:15.922',1378.192
'0:15.926',1376.044
'0:15.930',1373.117
'0:15.934',1369.694
'0:15.938',1366.251
'0:15.941',1363.221
'0:15.945',1360.885
'0:15.949',1359.319
'0:15.953',1358.458
'0:15.957',1358.097
'0:15.961',1357.913
'0:15.965',1357.581
'0:15.969',1356.962
'0:15.973',1356.236
'0:15.977',1355.818
'0:15.980',1356.072
'0:15.984',1357.167
'0:15.988',1359.065
'0:15.992',1361.557
'0:15.996',1364.287
'0:16.000',1366.837
'0:16.004',1368.837
'0:16.008',1370.084
'0:16.012',1370.576
'0:16.016',1370.506
'0:16.020',1370.178
'0:16.023',1369.932
'0:16.027',1369.989
'0:16.031',1370.457
'0:16.035',1371.346
'0:16.039',1372.576
'0:16.043',1373.962
'0:16.047',1375.318
'0:16.051',1376.577
'0:16.055',1377.737
'0:16.059',1378.791
'0:16.063',1379.733
'0:16.066',1380.561
'0:16.070',1381.267
'0:16.074',1381.808
'0:16.078',1382.086
'0:16.082',1382.025
'0:16.086',1381.676
'0:16.090',1381.160
'0:16.094',1380.553
'0:16.098',1379.824
'0:16.102',1378.889
'0:16.105',1377.639
'0:16.109',1376.007
'0:16.113',1373.925
'0:16.117',1371.346
'0:16.121',1368.305
'0:16.125',1365.046
'0:16.129',1361.979
'0:16.133',1359.512
'0:16.137',1357.831
'0:16.141',1356.847
'0:16.145',1356.232
'0:16.148',1355.560
'0:16.152',1354.514
'0:16.156',1352.998
'0:16.160',1351.112
'0:16.164',1349.021
'0:16.168',1346.898
'0:16.172',1344.930
'0:16.176',1343.258
'0:16.180',1341.909
'0:16.184',1340.802
'0:16.188',1339.847
'0:16.191',1339.150
'0:16.195',1338.941
'0:16.199',1339.421
'0:16.203',1340.511
'0:16.207',1341.897
'0:16.211',1343.143
'0:16.215',1343.955
'0:16.219',1344.303
'0:16.223',1344.365
'0:16.227',1344.307
'0:16.230',1344.213
'0:16.234',1344.106
'0:16.238',1343.946
'0:16.242',1343.684
'0:16.246',1343.360
'0:16.250',1343.155
'0:16.254',1343.200
'0:16.258',1343.516
'0:16.262',1344.008
'0:16.266',1344.570
'0:16.270',1345.148
'0:16.273',1345.799
'0:16.277',1346.595
'0:16.281',1347.521
'0:16.285',1348.497
'0:16.289',1349.472
'0:16.293',1350.448
'0:16.297',1351.460
'0:16.301',1352.494
'0:16.305',1353.449
'0:16.309',1354.260
'0:16.313',1354.928
'0:16.316',1355.490
'0:16.320',1356.052
'0:16.324',1356.724
'0:16.328',1357.634
'0:16.332',1358.893
'0:16.336',1360.430
'0:16.340',1361.983
'0:16.344',1363.168
'0:16.348',1363.664
'0:16.352',1363.303
'0:16.355',1362.020
'0:16.359',1359.790
'0:16.363',1356.630
'0:16.367',1352.670
'0:16.371',1348.255
'0:16.375',1343.885
'0:16.379',1340.032
'0:16.383',1336.974
'0:16.387',1334.842
'0:16.391',1333.674
'0:16.395',1333.477
'0:16.398',1334.182
'0:16.402',1335.682
'0:16.406',1337.884
'0:16.410',1340.737
'0:16.414',1344.139
'0:16.418',1347.935
'0:16.422',1351.961
'0:16.426',1356.109
'0:16.430',1360.258
'0:16.434',1364.144
'0:16.438',1367.452
'0:16.441',1369.989
'0:16.445',1371.777
'0:16.449',1372.937
'0:16.453',1373.507
'0:16.457',1373.384
'0:16.461',1372.420
'0:16.465',1370.608
'0:16.469',1368.087
'0:16.473',1365.095
'0:16.477',1361.856
'0:16.480',1358.565
'0:16.484',1355.347
'0:16.488',1352.264
'0:16.492',1349.366
'0:16.496',1346.754
'0:16.500',1344.627
'0:16.504',1343.221
'0:16.508',1342.688
'0:16.512',1343.016
'0:16.516',1343.979
'0:16.520',1345.172
'0:16.523',1346.049
'0:16.527',1346.115
'0:16.531',1345.139
'0:16.535',1343.299
'0:16.539',1341.069
'0:16.543',1338.945
'0:16.547',1337.318
'0:16.551',1336.432
'0:16.555',1336.445
'0:16.559',1337.445
'0:16.563',1339.445
'0:16.566',1342.376
'0:16.570',1346.082
'0:16.574',1350.313
'0:16.578',1354.760
'0:16.582',1359.151
'0:16.586',1363.332
'0:16.590',1367.259
'0:16.594',1370.908
'0:16.598',1374.273
'0:16.602',1377.331
'0:16.605',1380.111
'0:16.609',1382.685
'0:16.613',1385.132
'0:16.617',1387.522
'0:16.621',1389.945
'0:16.625',1392.495
'0:16.629',1395.249
'0:16.633',1398.246
'0:16.637',1401.435
'0:16.641',1404.674
'0:16.645',1407.789
'0:16.648',1410.601
'0:16.652',1413.024
'0:16.656',1415.086
'0:16.660',1416.836
'0:16.664',1418.312
'0:16.668',1419.583
'0:16.672',1420.665
'0:16.676',1421.485
'0:16.680',1421.956
'0:16.684',1422.092
'0:16.688',1422.006
'0:16.691',1421.772
'0:16.695',1421.382
'0:16.699',1420.829
'0:16.703',1420.165
'0:16.707',1419.435
'0:16.711',1418.660
'0:16.715',1417.828
'0:16.719',1416.865
'0:16.723',1415.619
'0:16.727',1414.000
'0:16.730',1412.024
'0:16.734',1409.740
'0:16.738',1407.236
'0:16.742',1404.583
'0:16.746',1401.915
'0:16.750',1399.435
'0:16.754',1397.319
'0:16.758',1395.631
'0:16.762',1394.298
'0:16.766',1393.224
'0:16.770',1392.240
'0:16.773',1391.138
'0:16.777',1389.797
'0:16.781',1388.252
'0:16.785',1386.620
'0:16.789',1385.075
'0:16.793',1383.788
'0:16.797',1382.853
'0:16.801',1382.254
'0:16.805',1381.906
'0:16.809',1381.783
'0:16.813',1381.902
'0:16.816',1382.209
'0:16.820',1382.558
'0:16.824',1382.783
'0:16.828',1382.841
'0:16.832',1382.878
'0:16.836',1383.095
'0:16.840',1383.607
'0:16.844',1384.493
'0:16.848',1385.854
'0:16.852',1387.809
'0:16.855',1390.404
'0:16.859',1393.601
'0:16.863',1397.348
'0:16.867',1401.529
'0:16.871',1405.858
'0:16.875',1409.904
'0:16.879',1413.303
'0:16.883',1415.861
'0:16.887',1417.570
'0:16.891',1418.533
'0:16.895',1418.886
'0:16.898',1418.792
'0:16.902',1418.513
'0:16.906',1418.378
'0:16.910',1418.595
'0:16.914',1419.103
'0:16.918',1419.677
'0:16.922',1420.112
'0:16.926',1420.255
'0:16.930',1419.985
'0:16.934',1419.255
'0:16.938',1418.091
'0:16.941',1416.553
'0:16.945',1414.737
'0:16.949',1412.749
'0:16.953',1410.663
'0:16.957',1408.523
'0:16.961',1406.313
'0:16.965',1404.067
'0:16.969',1401.976
'0:16.973',1400.369
'0:16.977',1399.541
'0:16.980',1399.668
'0:16.984',1400.828
'0:16.988',1402.993
'0:16.992',1406.022
'0:16.996',1409.626
'0:17.000',1413.348
'0:17.004',1416.676
'0:17.008',1419.202
'0:17.012',1420.710
'0:17.016',1421.112
'0:17.020',1420.403
'0:17.023',1418.628
'0:17.027',1415.934
'0:17.031',1412.561
'0:17.035',1408.859
'0:17.039',1405.211
'0:17.043',1401.960
'0:17.047',1399.336
'0:17.051',1397.336
'0:17.055',1395.790
'0:17.059',1394.516
'0:17.063',1393.470
'0:17.066',1392.654
'0:17.070',1391.974
'0:17.074',1391.269
'0:17.078',1390.490
'0:17.082',1389.764
'0:17.086',1389.273
'0:17.090',1389.088
'0:17.094',1389.113
'0:17.098',1389.141
'0:17.102',1389.035
'0:17.105',1388.801
'0:17.109',1388.502
'0:17.113',1388.158
'0:17.117',1387.780
'0:17.121',1387.338
'0:17.125',1386.813
'0:17.129',1386.219
'0:17.133',1385.567
'0:17.137',1384.878
'0:17.141',1384.161
'0:17.145',1383.435
'0:17.148',1382.755
'0:17.152',1382.197
'0:17.156',1381.750
'0:17.160',1381.324
'0:17.164',1380.832
'0:17.168',1380.279
'0:17.172',1379.750
'0:17.176',1379.397
'0:17.180',1379.340
'0:17.184',1379.537
'0:17.188',1379.836
'0:17.191',1380.119
'0:17.195',1380.373
'0:17.199',1380.570
'0:17.203',1380.721
'0:17.207',1380.873
'0:17.211',1381.045
'0:17.215',1381.180
'0:17.219',1381.185
'0:17.223',1380.959
'0:17.227',1380.447
'0:17.230',1379.643
'0:17.234',1378.627
'0:17.238',1377.548
'0:17.242',1376.622
'0:17.246',1375.999
'0:17.250',1375.712
'0:17.254',1375.704
'0:17.258',1375.909
'0:17.262',1376.274
'0:17.266',1376.757
'0:17.270',1377.270
'0:17.273',1377.733
'0:17.277',1378.155
'0:17.281',1378.524
'0:17.285',1378.717
'0:17.289',1378.524
'0:17.293',1377.901
'0:17.297',1376.962
'0:17.301',1375.819
'0:17.305',1374.511
'0:17.309',1373.064
'0:17.313',1371.453
'0:17.316',1369.551
'0:17.320',1367.202
'0:17.324',1364.402
'0:17.328',1361.303
'0:17.332',1358.105
'0:17.336',1354.904
'0:17.340',1351.711
'0:17.344',1348.562
'0:17.348',1345.533
'0:17.352',1342.704
'0:17.355',1340.163
'0:17.359',1337.990
'0:17.363',1336.277
'0:17.367',1335.076
'0:17.371',1334.457
'0:17.375',1334.477
'0:17.379',1335.137
'0:17.383',1336.396
'0:17.387',1338.228
'0:17.391',1340.708
'0:17.395',1343.967
'0:17.398',1348.042
'0:17.402',1352.805
'0:17.406',1357.995
'0:17.410',1363.373
'0:17.414',1368.772
'0:17.418',1374.064
'0:17.422',1379.119
'0:17.426',1383.845
'0:17.430',1388.194
'0:17.434',1392.175
'0:17.438',1395.852
'0:17.441',1399.320
'0:17.445',1402.690
'0:17.449',1406.076
'0:17.453',1409.511
'0:17.457',1412.909
'0:17.461',1416.123
'0:17.465',1418.968
'0:17.469',1421.272
'0:17.473',1422.936
'0:17.477',1423.920
'0:17.480',1424.248
'0:17.484',1423.961
'0:17.488',1423.145
'0:17.492',1421.903
'0:17.496',1420.394
'0:17.500',1418.755
'0:17.504',1417.078
'0:17.508',1415.447
'0:17.512',1413.934
'0:17.516',1412.622
'0:17.520',1411.614
'0:17.523',1410.987
'0:17.527',1410.782
'0:17.531',1411.003
'0:17.535',1411.630
'0:17.539',1412.663
'0:17.543',1414.118
'0:17.547',1415.939
'0:17.551',1417.959
'0:17.555',1419.911
'0:17.559',1421.587
'0:17.563',1422.850
'0:17.566',1423.621
'0:17.570',1423.908
'0:17.574',1423.850
'0:17.578',1423.715
'0:17.582',1423.830
'0:17.586',1424.416
'0:17.590',1425.486
'0:17.594',1426.904
'0:17.598',1428.470
'0:17.602',1429.970
'0:17.605',1431.184
'0:17.609',1431.942
'0:17.613',1432.135
'0:17.617',1431.754
'0:17.621',1430.950
'0:17.625',1430.061
'0:17.629',1429.442
'0:17.633',1429.331
'0:17.637',1429.778
'0:17.641',1430.676
'0:17.645',1431.733
'0:17.648',1432.549
'0:17.652',1432.787
'0:17.656',1432.348
'0:17.660',1431.364
'0:17.664',1430.032
'0:17.668',1428.515
'0:17.672',1426.982
'0:17.676',1425.551
'0:17.680',1424.264
'0:17.684',1423.108
'0:17.688',1422.100
'0:17.691',1421.239
'0:17.695',1420.530
'0:17.699',1419.989
'0:17.703',1419.726
'0:17.707',1419.829
'0:17.711',1420.173
'0:17.715',1420.427
'0:17.719',1420.222
'0:17.723',1419.308
'0:17.727',1417.640
'0:17.730',1415.356
'0:17.734',1412.733
'0:17.738',1410.036
'0:17.742',1407.416
'0:17.746',1404.887
'0:17.750',1402.439
'0:17.754',1400.201
'0:17.758',1398.340
'0:17.762',1396.905
'0:17.766',1395.786
'0:17.770',1394.880
'0:17.773',1394.159
'0:17.777',1393.577
'0:17.781',1393.027
'0:17.785',1392.425
'0:17.789',1391.732
'0:17.793',1390.994
'0:17.797',1390.306
'0:17.801',1389.678
'0:17.805',1389.031
'0:17.809',1388.293
'0:17.813',1387.567
'0:17.816',1387.010
'0:17.820',1386.686
'0:17.824',1386.530
'0:17.828',1386.501
'0:17.832',1386.612
'0:17.836',1386.858
'0:17.840',1387.153
'0:17.844',1387.366
'0:17.848',1387.407
'0:17.852',1387.198
'0:17.855',1386.686
'0:17.859',1385.932
'0:17.863',1385.099
'0:17.867',1384.325
'0:17.871',1383.636
'0:17.875',1383.021
'0:17.879',1382.464
'0:17.883',1381.959
'0:17.887',1381.537
'0:17.891',1381.254
'0:17.895',1381.168
'0:17.898',1381.291
'0:17.902',1381.541
'0:17.906',1381.861
'0:17.910',1382.287
'0:17.914',1382.808
'0:17.918',1383.271
'0:17.922',1383.492
'0:17.926',1383.451
'0:17.930',1383.283
'0:17.934',1383.087
'0:17.938',1382.779
'0:17.941',1382.242
'0:17.945',1381.467
'0:17.949',1380.586
'0:17.953',1379.766
'0:17.957',1379.164
'0:17.961',1378.967
'0:17.965',1379.356
'0:17.969',1380.451
'0:17.973',1382.214
'0:17.977',1384.411
'0:17.980',1386.661
'0:17.984',1388.559
'0:17.988',1389.773
'0:17.992',1390.088
'0:17.996',1389.465
'0:18.000',1388.067
'0:18.004',1386.206
'0:18.008',1384.181
'0:18.012',1382.234
'0:18.016',1380.578
'0:18.020',1379.397
'0:18.023',1378.823
'0:18.027',1378.934
'0:18.031',1379.750
'0:18.035',1381.168
'0:18.039',1382.960
'0:18.043',1384.825
'0:18.047',1386.460
'0:18.051',1387.555
'0:18.055',1387.916
'0:18.059',1387.485
'0:18.063',1386.333
'0:18.066',1384.542
'0:18.070',1382.263
'0:18.074',1379.762
'0:18.078',1377.368
'0:18.082',1375.290
'0:18.086',1373.601
'0:18.090',1372.273
'0:18.094',1371.289
'0:18.098',1370.690
'0:18.102',1370.448
'0:18.105',1370.399
'0:18.109',1370.309
'0:18.113',1370.067
'0:18.117',1369.760
'0:18.121',1369.559
'0:18.125',1369.526
'0:18.129',1369.600
'0:18.133',1369.752
'0:18.137',1370.043
'0:18.141',1370.485
'0:18.145',1370.994
'0:18.148',1371.441
'0:18.152',1371.711
'0:18.156',1371.691
'0:18.160',1371.305
'0:18.164',1370.559
'0:18.168',1369.530
'0:18.172',1368.337
'0:18.176',1367.116
'0:18.180',1365.972
'0:18.184',1364.992
'0:18.188',1364.226
'0:18.191',1363.676
'0:18.195',1363.344
'0:18.199',1363.303
'0:18.203',1363.599
'0:18.207',1364.197
'0:18.211',1365.005
'0:18.215',1365.927
'0:18.219',1366.964
'0:18.223',1368.145
'0:18.227',1369.362
'0:18.230',1370.379
'0:18.234',1371.014
'0:18.238',1371.289
'0:18.242',1371.338
'0:18.246',1371.252
'0:18.250',1371.022
'0:18.254',1370.653
'0:18.258',1370.198
'0:18.262',1369.752
'0:18.266',1369.387
'0:18.270',1369.083
'0:18.273',1368.821
'0:18.277',1368.637
'0:18.281',1368.571
'0:18.285',1368.579
'0:18.289',1368.567
'0:18.293',1368.403
'0:18.297',1367.968
'0:18.301',1367.247
'0:18.305',1366.329
'0:18.309',1365.357
'0:18.313',1364.435
'0:18.316',1363.578
'0:18.320',1362.775
'0:18.324',1362.029
'0:18.328',1361.328
'0:18.332',1360.557
'0:18.336',1359.651
'0:18.340',1358.651
'0:18.344',1357.626
'0:18.348',1356.552
'0:18.352',1355.379
'0:18.355',1354.195
'0:18.359',1353.244
'0:18.363',1352.809
'0:18.367',1353.104
'0:18.371',1354.207
'0:18.375',1356.093
'0:18.379',1358.622
'0:18.383',1361.528
'0:18.387',1364.443
'0:18.391',1367.001
'0:18.395',1369.034
'0:18.398',1370.625
'0:18.402',1371.945
'0:18.406',1373.175
'0:18.410',1374.462
'0:18.414',1375.884
'0:18.418',1377.389
'0:18.422',1378.873
'0:18.426',1380.225
'0:18.430',1381.385
'0:18.434',1382.406
'0:18.438',1383.492
'0:18.441',1384.858
'0:18.445',1386.575
'0:18.449',1388.608
'0:18.453',1390.879
'0:18.457',1393.294
'0:18.461',1395.708
'0:18.465',1397.865
'0:18.469',1399.447
'0:18.473',1400.267
'0:18.477',1400.386
'0:18.480',1400.086
'0:18.484',1399.709
'0:18.488',1399.525
'0:18.492',1399.615
'0:18.496',1399.873
'0:18.500',1400.054
'0:18.504',1399.869
'0:18.508',1399.135
'0:18.512',1397.828
'0:18.516',1396.077
'0:18.520',1394.142
'0:18.523',1392.425
'0:18.527',1391.293
'0:18.531',1390.912
'0:18.535',1391.158
'0:18.539',1391.695
'0:18.543',1392.097
'0:18.547',1392.097
'0:18.551',1391.720
'0:18.555',1391.248
'0:18.559',1390.949
'0:18.563',1390.937
'0:18.566',1391.228
'0:18.570',1391.830
'0:18.574',1392.683
'0:18.578',1393.618
'0:18.582',1394.479
'0:18.586',1395.204
'0:18.590',1395.803
'0:18.594',1396.209
'0:18.598',1396.295
'0:18.602',1395.946
'0:18.605',1395.188
'0:18.609',1394.245
'0:18.613',1393.413
'0:18.617',1392.905
'0:18.621',1392.695
'0:18.625',1392.531
'0:18.629',1392.060
'0:18.633',1391.064
'0:18.637',1389.629
'0:18.641',1388.076
'0:18.645',1386.797
'0:18.648',1386.067
'0:18.652',1385.940
'0:18.656',1386.280
'0:18.660',1386.838
'0:18.664',1387.432
'0:18.668',1388.018
'0:18.672',1388.596
'0:18.676',1389.109
'0:18.680',1389.531
'0:18.684',1389.965
'0:18.688',1390.506
'0:18.691',1391.101
'0:18.695',1391.531
'0:18.699',1391.580
'0:18.703',1391.187
'0:18.707',1390.388
'0:18.711',1389.178
'0:18.715',1387.547
'0:18.719',1385.653
'0:18.723',1383.816
'0:18.727',1382.336
'0:18.730',1381.324
'0:18.734',1380.709
'0:18.738',1380.357
'0:18.742',1380.143
'0:18.746',1380.049
'0:18.750',1380.139
'0:18.754',1380.443
'0:18.758',1380.812
'0:18.762',1380.984
'0:18.766',1380.787
'0:18.770',1380.234
'0:18.773',1379.487
'0:18.777',1378.782
'0:18.781',1378.360
'0:18.785',1378.368
'0:18.789',1378.836
'0:18.793',1379.762
'0:18.797',1381.111
'0:18.801',1382.751
'0:18.805',1384.374
'0:18.809',1385.620
'0:18.813',1386.178
'0:18.816',1385.919
'0:18.820',1384.923
'0:18.824',1383.398
'0:18.828',1381.554
'0:18.832',1379.537
'0:18.836',1377.454
'0:18.840',1375.495
'0:18.844',1373.912
'0:18.848',1372.929
'0:18.852',1372.588
'0:18.855',1372.818
'0:18.859',1373.445
'0:18.863',1374.306
'0:18.867',1375.257
'0:18.871',1376.200
'0:18.875',1377.057
'0:18.879',1377.774
'0:18.883',1378.336
'0:18.887',1378.766
'0:18.891',1379.151
'0:18.895',1379.619
'0:18.898',1380.266
'0:18.902',1381.111
'0:18.906',1382.132
'0:18.910',1383.324
'0:18.914',1384.669
'0:18.918',1386.100
'0:18.922',1387.555
'0:18.926',1389.006
'0:18.930',1390.490
'0:18.934',1392.048
'0:18.938',1393.708
'0:18.941',1395.458
'0:18.945',1397.184
'0:18.949',1398.701
'0:18.953',1399.841
'0:18.957',1400.513
'0:18.961',1400.644
'0:18.965',1400.214
'0:18.969',1399.324
'0:18.973',1398.180
'0:18.977',1396.967
'0:18.980',1395.860
'0:18.984',1394.954
'0:18.988',1394.270
'0:18.992',1393.823
'0:18.996',1393.651
'0:19.000',1393.765
'0:19.004',1394.130
'0:19.008',1394.675
'0:19.012',1395.319
'0:19.016',1395.958
'0:19.020',1396.467
'0:19.023',1396.684
'0:19.027',1396.495
'0:19.031',1395.881
'0:19.035',1394.946
'0:19.039',1393.860
'0:19.043',1392.765
'0:19.047',1391.740
'0:19.051',1390.838
'0:19.055',1390.010
'0:19.059',1389.170
'0:19.063',1388.268
'0:19.066',1387.268
'0:19.070',1386.132
'0:19.074',1384.890
'0:19.078',1383.648
'0:19.082',1382.488
'0:19.086',1381.431
'0:19.090',1380.418
'0:19.094',1379.451
'0:19.098',1378.602
'0:19.102',1377.930
'0:19.105',1377.376
'0:19.109',1376.897
'0:19.113',1376.602
'0:19.117',1376.684
'0:19.121',1377.225
'0:19.125',1378.094
'0:19.129',1379.037
'0:19.133',1379.799
'0:19.137',1380.221
'0:19.141',1380.184
'0:19.145',1379.668
'0:19.148',1378.774
'0:19.152',1377.639
'0:19.156',1376.327
'0:19.160',1374.851
'0:19.164',1373.322
'0:19.168',1371.965
'0:19.172',1371.055
'0:19.176',1370.776
'0:19.180',1371.162
'0:19.184',1372.076
'0:19.188',1373.281
'0:19.191',1374.601
'0:19.195',1375.921
'0:19.199',1377.130
'0:19.203',1378.040
'0:19.207',1378.483
'0:19.211',1378.393
'0:19.215',1377.856
'0:19.219',1377.126
'0:19.223',1376.544
'0:19.227',1376.425
'0:19.230',1376.880
'0:19.234',1377.721
'0:19.238',1378.520
'0:19.242',1378.864
'0:19.246',1378.545
'0:19.250',1377.581
'0:19.254',1376.167
'0:19.258',1374.564
'0:19.262',1373.011
'0:19.266',1371.621
'0:19.270',1370.477
'0:19.273',1369.637
'0:19.277',1369.170
'0:19.281',1369.108
'0:19.285',1369.391
'0:19.289',1369.920
'0:19.293',1370.600
'0:19.297',1371.416
'0:19.301',1372.379
'0:19.305',1373.474
'0:19.309',1374.613
'0:19.313',1375.626
'0:19.316',1376.368
'0:19.320',1376.745
'0:19.324',1376.737
'0:19.328',1376.368
'0:19.332',1375.728
'0:19.336',1374.958
'0:19.340',1374.224
'0:19.344',1373.658
'0:19.348',1373.314
'0:19.352',1373.277
'0:19.355',1373.654
'0:19.359',1374.490
'0:19.363',1375.671
'0:19.367',1377.003
'0:19.371',1378.290
'0:19.375',1379.401
'0:19.379',1380.332
'0:19.383',1381.193
'0:19.387',1382.037
'0:19.391',1382.833
'0:19.395',1383.513
'0:19.398',1384.054
'0:19.402',1384.480
'0:19.406',1384.829
'0:19.410',1385.079
'0:19.414',1385.243
'0:19.418',1385.468
'0:19.422',1385.968
'0:19.426',1386.842
'0:19.430',1387.957
'0:19.434',1389.055
'0:19.438',1389.941
'0:19.441',1390.564
'0:19.445',1390.949
'0:19.449',1391.089
'0:19.453',1391.035
'0:19.457',1390.920
'0:19.461',1390.859
'0:19.465',1390.802
'0:19.469',1390.597
'0:19.473',1390.154
'0:19.477',1389.613
'0:19.480',1389.293
'0:19.484',1389.531
'0:19.488',1390.502
'0:19.492',1392.199
'0:19.496',1394.409
'0:19.500',1396.750
'0:19.504',1398.795
'0:19.508',1400.287
'0:19.512',1401.230
'0:19.516',1401.866
'0:19.520',1402.403
'0:19.523',1402.886
'0:19.527',1403.235
'0:19.531',1403.423
'0:19.535',1403.460
'0:19.539',1403.284
'0:19.543',1402.821
'0:19.547',1402.095
'0:19.551',1401.230
'0:19.555',1400.402
'0:19.559',1399.853
'0:19.563',1399.877
'0:19.566',1400.656
'0:19.570',1402.116
'0:19.574',1403.944
'0:19.578',1405.690
'0:19.582',1406.920
'0:19.586',1407.322
'0:19.590',1406.797
'0:19.594',1405.481
'0:19.598',1403.698
'0:19.602',1401.882
'0:19.605',1400.410
'0:19.609',1399.455
'0:19.613',1398.996
'0:19.617',1398.869
'0:19.621',1398.906
'0:19.625',1398.996
'0:19.629',1399.058
'0:19.633',1398.996
'0:19.637',1398.808
'0:19.641',1398.582
'0:19.645',1398.402
'0:19.648',1398.311
'0:19.652',1398.344
'0:19.656',1398.541
'0:19.660',1398.881
'0:19.664',1399.304
'0:19.668',1399.754
'0:19.672',1400.250
'0:19.676',1400.742
'0:19.680',1401.115
'0:19.684',1401.247
'0:19.688',1401.033
'0:19.691',1400.419
'0:19.695',1399.443
'0:19.699',1398.189
'0:19.703',1396.713
'0:19.707',1395.028
'0:19.711',1393.146
'0:19.715',1391.105
'0:19.719',1388.953
'0:19.723',1386.702
'0:19.727',1384.374
'0:19.730',1382.050
'0:19.734',1379.861
'0:19.738',1377.946
'0:19.742',1376.433
'0:19.746',1375.355
'0:19.750',1374.679
'0:19.754',1374.351
'0:19.758',1374.339
'0:19.762',1374.613
'0:19.766',1375.073
'0:19.770',1375.601
'0:19.773',1376.106
'0:19.777',1376.536
'0:19.781',1376.917
'0:19.785',1377.298
'0:19.789',1377.647
'0:19.793',1377.897
'0:19.797',1378.004
'0:19.801',1378.016
'0:19.805',1377.983
'0:19.809',1377.868
'0:19.813',1377.565
'0:19.816',1377.036
'0:19.820',1376.409
'0:19.824',1375.831
'0:19.828',1375.294
'0:19.832',1374.667
'0:19.836',1373.859
'0:19.840',1372.961
'0:19.844',1372.240
'0:19.848',1371.965
'0:19.852',1372.281
'0:19.855',1373.183
'0:19.859',1374.527
'0:19.863',1376.056
'0:19.867',1377.532
'0:19.871',1378.836
'0:19.875',1379.951
'0:19.879',1380.898
'0:19.883',1381.754
'0:19.887',1382.582
'0:19.891',1383.357
'0:19.895',1384.091
'0:19.898',1384.882
'0:19.902',1385.809
'0:19.906',1386.829
'0:19.910',1387.780
'0:19.914',1388.514
'0:19.918',1389.022
'0:19.922',1389.441
'0:19.926',1389.896
'0:19.930',1390.461
'0:19.934',1391.138
'0:19.938',1391.781
'0:19.941',1392.195
'0:19.945',1392.240
'0:19.949',1391.880
'0:19.953',1391.154
'0:19.957',1390.113
'0:19.961',1388.867
'0:19.965',1387.661
'0:19.969',1386.780
'0:19.973',1386.432
'0:19.977',1386.694
'0:19.980',1387.510
'0:19.984',1388.699
'0:19.988',1390.051
'0:19.992',1391.425
'0:19.996',1392.695
'0:20.000',1393.712
'0:20.004',1394.356
'0:20.008',1394.606
'0:20.012',1394.462
'0:20.016',1393.942
'0:20.020',1393.101
'0:20.023',1392.003
'0:20.027',1390.633
'0:20.031',1388.986
'0:20.035',1387.141
'0:20.039',1385.292
'0:20.043',1383.673
'0:20.047',1382.472
'0:20.051',1381.775
'0:20.055',1381.541
'0:20.059',1381.648
'0:20.063',1381.996
'0:20.066',1382.529
'0:20.070',1383.185
'0:20.074',1383.882
'0:20.078',1384.521
'0:20.082',1384.981
'0:20.086',1385.149
'0:20.090',1384.981
'0:20.094',1384.464
'0:20.098',1383.652
'0:20.102',1382.689
'0:20.105',1381.795
'0:20.109',1381.127
'0:20.113',1380.701
'0:20.117',1380.393
'0:20.121',1380.049
'0:20.125',1379.606
'0:20.129',1379.147
'0:20.133',1378.778
'0:20.137',1378.495
'0:20.141',1378.163
'0:20.145',1377.684
'0:20.148',1377.147
'0:20.152',1376.794
'0:20.156',1376.835
'0:20.160',1377.327
'0:20.164',1378.159
'0:20.168',1379.176
'0:20.172',1380.320
'0:20.176',1381.590
'0:20.180',1382.898
'0:20.184',1384.070
'0:20.188',1385.026
'0:20.191',1385.731
'0:20.195',1386.067
'0:20.199',1385.829
'0:20.203',1384.894
'0:20.207',1383.308
'0:20.211',1381.205
'0:20.215',1378.762
'0:20.219',1376.249
'0:20.223',1374.056
'0:20.227',1372.609
'0:20.230',1372.248
'0:20.234',1373.117
'0:20.238',1375.113
'0:20.242',1377.913
'0:20.246',1381.074
'0:20.250',1384.144
'0:20.254',1386.747
'0:20.258',1388.596
'0:20.262',1389.547
'0:20.266',1389.613
'0:20.270',1388.924
'0:20.273',1387.727
'0:20.277',1386.284
'0:20.281',1384.800
'0:20.285',1383.402
'0:20.289',1382.066
'0:20.293',1380.656
'0:20.297',1379.065
'0:20.301',1377.303
'0:20.305',1375.482
'0:20.309',1373.765
'0:20.313',1372.314
'0:20.316',1371.236
'0:20.320',1370.588
'0:20.324',1370.342
'0:20.328',1370.399
'0:20.332',1370.576
'0:20.336',1370.707
'0:20.340',1370.740
'0:20.344',1370.703
'0:20.348',1370.703
'0:20.352',1370.850
'0:20.355',1371.211
'0:20.359',1371.859
'0:20.363',1372.847
'0:20.367',1374.187
'0:20.371',1375.810
'0:20.375',1377.630
'0:20.379',1379.520
'0:20.383',1381.308
'0:20.387',1382.890
'0:20.391',1384.243
'0:20.395',1385.313
'0:20.398',1385.973
'0:20.402',1386.079
'0:20.406',1385.583
'0:20.410',1384.591
'0:20.414',1383.283
'0:20.418',1381.840
'0:20.422',1380.488
'0:20.426',1379.520
'0:20.430',1379.188
'0:20.434',1379.615
'0:20.438',1380.762
'0:20.441',1382.427
'0:20.445',1384.312
'0:20.449',1386.149
'0:20.453',1387.793
'0:20.457',1389.215
'0:20.461',1390.453
'0:20.465',1391.511
'0:20.469',1392.339
'0:20.473',1392.839
'0:20.477',1392.933
'0:20.480',1392.642
'0:20.484',1392.122
'0:20.488',1391.621
'0:20.492',1391.318
'0:20.496',1391.191
'0:20.500',1391.093
'0:20.504',1390.929
'0:20.508',1390.728
'0:20.512',1390.560
'0:20.516',1390.465
'0:20.520',1390.474
'0:20.523',1390.576
'0:20.527',1390.724
'0:20.531',1390.843
'0:20.535',1390.867
'0:20.539',1390.674
'0:20.543',1390.129
'0:20.547',1389.207
'0:20.551',1388.026
'0:20.555',1386.706
'0:20.559',1385.292
'0:20.563',1383.849
'0:20.566',1382.488
'0:20.570',1381.316
'0:20.574',1380.406
'0:20.578',1379.799
'0:20.582',1379.508
'0:20.586',1379.508
'0:20.590',1379.738
'0:20.594',1380.119
'0:20.598',1380.582
'0:20.602',1381.062
'0:20.605',1381.496
'0:20.609',1381.865
'0:20.613',1382.205
'0:20.617',1382.632
'0:20.621',1383.251
'0:20.625',1384.120
'0:20.629',1385.267
'0:20.633',1386.735
'0:20.637',1388.510
'0:20.641',1390.506
'0:20.645',1392.626
'0:20.648',1394.753
'0:20.652',1396.754
'0:20.656',1398.467
'0:20.660',1399.775
'0:20.664',1400.619
'0:20.668',1401.050
'0:20.672',1401.189
'0:20.676',1401.161
'0:20.680',1401.079
'0:20.684',1401.021
'0:20.688',1401.038
'0:20.691',1401.152
'0:20.695',1401.296
'0:20.699',1401.370
'0:20.703',1401.361
'0:20.707',1401.394
'0:20.711',1401.579
'0:20.715',1401.841
'0:20.719',1401.960
'0:20.723',1401.747
'0:20.727',1401.173
'0:20.730',1400.357
'0:20.734',1399.394
'0:20.738',1398.291
'0:20.742',1397.020
'0:20.746',1395.561
'0:20.750',1393.921
'0:20.754',1392.154
'0:20.758',1390.351
'0:20.762',1388.600
'0:20.766',1386.907
'0:20.770',1385.202
'0:20.773',1383.456
'0:20.777',1381.689
'0:20.781',1379.983
'0:20.785',1378.459
'0:20.789',1377.196
'0:20.793',1376.237
'0:20.797',1375.646
'0:20.801',1375.540
'0:20.805',1376.069
'0:20.809',1377.360
'0:20.813',1379.438
'0:20.816',1382.193
'0:20.820',1385.362
'0:20.824',1388.604
'0:20.828',1391.593
'0:20.832',1394.147
'0:20.836',1396.204
'0:20.840',1397.692
'0:20.844',1398.525
'0:20.848',1398.639
'0:20.852',1398.066
'0:20.855',1396.975
'0:20.859',1395.733
'0:20.863',1394.712
'0:20.867',1394.138
'0:20.871',1394.085
'0:20.875',1394.532
'0:20.879',1395.348
'0:20.883',1396.286
'0:20.887',1397.082
'0:20.891',1397.598
'0:20.895',1397.861
'0:20.898',1397.873
'0:20.902',1397.504
'0:20.906',1396.623
'0:20.910',1395.299
'0:20.914',1393.815
'0:20.918',1392.474
'0:20.922',1391.404
'0:20.926',1390.498
'0:20.930',1389.617
'0:20.934',1388.752
'0:20.938',1388.063
'0:20.941',1387.670
'0:20.945',1387.604
'0:20.949',1387.883
'0:20.953',1388.514
'0:20.957',1389.428
'0:20.961',1390.408
'0:20.965',1391.134
'0:20.969',1391.384
'0:20.973',1391.175
'0:20.977',1390.752
'0:20.980',1390.400
'0:20.984',1390.248
'0:20.988',1390.240
'0:20.992',1390.269
'0:20.996',1390.289
'0:21.000',1390.322
'0:21.004',1390.363
'0:21.008',1390.310
'0:21.012',1390.010
'0:21.016',1389.334
'0:21.020',1388.244
'0:21.023',1386.833
'0:21.027',1385.284
'0:21.031',1383.755
'0:21.035',1382.328
'0:21.039',1381.074
'0:21.043',1380.082
'0:21.047',1379.389
'0:21.051',1378.950
'0:21.055',1378.659
'0:21.059',1378.426
'0:21.063',1378.213
'0:21.066',1378.077
'0:21.070',1378.053
'0:21.074',1378.102
'0:21.078',1378.196
'0:21.082',1378.286
'0:21.086',1378.319
'0:21.090',1378.241
'0:21.094',1378.061
'0:21.098',1377.815
'0:21.102',1377.544
'0:21.105',1377.257
'0:21.109',1376.925
'0:21.113',1376.474
'0:21.117',1375.847
'0:21.121',1375.068
'0:21.125',1374.130
'0:21.129',1373.006
'0:21.133',1371.670
'0:21.137',1370.133
'0:21.141',1368.510
'0:21.145',1367.009
'0:21.148',1365.829
'0:21.152',1365.046
'0:21.156',1364.681
'0:21.160',1364.755
'0:21.164',1365.300
'0:21.168',1366.333
'0:21.172',1367.829
'0:21.176',1369.752
'0:21.180',1371.986
'0:21.184',1374.384
'0:21.188',1376.741
'0:21.191',1378.877
'0:21.195',1380.648
'0:21.199',1381.943
'0:21.203',1382.705
'0:21.207',1382.931
'0:21.211',1382.656
'0:21.215',1381.976
'0:21.219',1381.078
'0:21.223',1380.152
'0:21.227',1379.278
'0:21.230',1378.450
'0:21.234',1377.684
'0:21.238',1377.073
'0:21.242',1376.688
'0:21.246',1376.536
'0:21.250',1376.524
'0:21.254',1376.544
'0:21.258',1376.540
'0:21.262',1376.520
'0:21.266',1376.499
'0:21.270',1376.524
'0:21.273',1376.638
'0:21.277',1376.852
'0:21.281',1377.134
'0:21.285',1377.516
'0:21.289',1378.024
'0:21.293',1378.618
'0:21.297',1379.196
'0:21.301',1379.647
'0:21.305',1379.934
'0:21.309',1380.090
'0:21.313',1380.172
'0:21.316',1380.242
'0:21.320',1380.418
'0:21.324',1380.803
'0:21.328',1381.447
'0:21.332',1382.377
'0:21.336',1383.620
'0:21.340',1385.181
'0:21.344',1386.985
'0:21.348',1388.945
'0:21.352',1391.027
'0:21.355',1393.204
'0:21.359',1395.323
'0:21.363',1397.045
'0:21.367',1397.959
'0:21.371',1397.820
'0:21.375',1396.668
'0:21.379',1394.819
'0:21.383',1392.765
'0:21.387',1390.916
'0:21.391',1389.457
'0:21.395',1388.330
'0:21.398',1387.321
'0:21.402',1386.247
'0:21.406',1385.095
'0:21.410',1384.017
'0:21.414',1383.238
'0:21.418',1382.951
'0:21.422',1383.308
'0:21.426',1384.390
'0:21.430',1386.141
'0:21.434',1388.321
'0:21.438',1390.531
'0:21.441',1392.277
'0:21.445',1393.163
'0:21.449',1393.056
'0:21.453',1392.146
'0:21.457',1390.822
'0:21.461',1389.432
'0:21.465',1388.076
'0:21.469',1386.624
'0:21.473',1384.886
'0:21.477',1382.800
'0:21.480',1380.594
'0:21.484',1378.676
'0:21.488',1377.413
'0:21.492',1376.942
'0:21.496',1377.106
'0:21.500',1377.626
'0:21.504',1378.213
'0:21.508',1378.709
'0:21.512',1379.098
'0:21.516',1379.414
'0:21.520',1379.651
'0:21.523',1379.824
'0:21.527',1380.000
'0:21.531',1380.225
'0:21.535',1380.455
'0:21.539',1380.561
'0:21.543',1380.418
'0:21.547',1380.053
'0:21.551',1379.582
'0:21.555',1379.090
'0:21.559',1378.610
'0:21.563',1378.208
'0:21.566',1377.905
'0:21.570',1377.692
'0:21.574',1377.516
'0:21.578',1377.311
'0:21.582',1377.036
'0:21.586',1376.630
'0:21.590',1375.999
'0:21.594',1375.163
'0:21.598',1374.294
'0:21.602',1373.560
'0:21.605',1373.011
'0:21.609',1372.597
'0:21.613',1372.252
'0:21.617',1371.932
'0:21.621',1371.645
'0:21.625',1371.482
'0:21.629',1371.568
'0:21.633',1372.010
'0:21.637',1372.822
'0:21.641',1373.937
'0:21.645',1375.212
'0:21.648',1376.487
'0:21.652',1377.659
'0:21.656',1378.713
'0:21.660',1379.713
'0:21.664',1380.705
'0:21.668',1381.693
'0:21.672',1382.656
'0:21.676',1383.554
'0:21.680',1384.325
'0:21.684',1384.981
'0:21.688',1385.686
'0:21.691',1386.645
'0:21.695',1387.912
'0:21.699',1389.367
'0:21.703',1390.904
'0:21.707',1392.536
'0:21.711',1394.282
'0:21.715',1396.004
'0:21.719',1397.438
'0:21.723',1398.418
'0:21.727',1399.037
'0:21.730',1399.574
'0:21.734',1400.271
'0:21.738',1401.177
'0:21.742',1402.194
'0:21.746',1403.173
'0:21.750',1403.985
'0:21.754',1404.575
'0:21.758',1404.977
'0:21.762',1405.264
'0:21.766',1405.518
'0:21.770',1405.801
'0:21.773',1406.141
'0:21.777',1406.527
'0:21.781',1406.871
'0:21.785',1407.047
'0:21.789',1406.916
'0:21.793',1406.449
'0:21.797',1405.776
'0:21.801',1405.157
'0:21.805',1404.817
'0:21.809',1404.838
'0:21.813',1405.153
'0:21.816',1405.641
'0:21.820',1406.235
'0:21.824',1406.912
'0:21.828',1407.617
'0:21.832',1408.314
'0:21.836',1409.039
'0:21.840',1409.732
'0:21.844',1410.212
'0:21.848',1410.298
'0:21.852',1409.986
'0:21.855',1409.421
'0:21.859',1408.757
'0:21.863',1408.121
'0:21.867',1407.605
'0:21.871',1407.236
'0:21.875',1406.990
'0:21.879',1406.900
'0:21.883',1407.051
'0:21.887',1407.469
'0:21.891',1408.121
'0:21.895',1408.970
'0:21.898',1410.044
'0:21.902',1411.364
'0:21.906',1412.778
'0:21.910',1413.963
'0:21.914',1414.614
'0:21.918',1414.623
'0:21.922',1414.114
'0:21.926',1413.376
'0:21.930',1412.663
'0:21.934',1412.007
'0:21.938',1411.220
'0:21.941',1410.077
'0:21.945',1408.465
'0:21.949',1406.424
'0:21.953',1404.116
'0:21.957',1401.808
'0:21.961',1399.787
'0:21.965',1398.246
'0:21.969',1397.278
'0:21.973',1396.844
'0:21.977',1396.696
'0:21.980',1396.446
'0:21.984',1395.721
'0:21.988',1394.319
'0:21.992',1392.290
'0:21.996',1389.920
'0:22.000',1387.596
'0:22.004',1385.571
'0:22.008',1383.935
'0:22.012',1382.697
'0:22.016',1381.795
'0:22.020',1381.135
'0:22.023',1380.652
'0:22.027',1380.348
'0:22.031',1380.258
'0:22.035',1380.398
'0:22.039',1380.742
'0:22.043',1381.197
'0:22.047',1381.668
'0:22.051',1382.152
'0:22.055',1382.636
'0:22.059',1383.042
'0:22.063',1383.271
'0:22.066',1383.304
'0:22.070',1383.165
'0:22.074',1382.878
'0:22.078',1382.492
'0:22.082',1382.099
'0:22.086',1381.779
'0:22.090',1381.558
'0:22.094',1381.361
'0:22.098',1381.062
'0:22.102',1380.586
'0:22.105',1379.975
'0:22.109',1379.340
'0:22.113',1378.786
'0:22.117',1378.422
'0:22.121',1378.364
'0:22.125',1378.627
'0:22.129',1379.053
'0:22.133',1379.434
'0:22.137',1379.623
'0:22.141',1379.651
'0:22.145',1379.635
'0:22.148',1379.623
'0:22.152',1379.602
'0:22.156',1379.545
'0:22.160',1379.418
'0:22.164',1379.180
'0:22.168',1378.893
'0:22.172',1378.692
'0:22.176',1378.692
'0:22.180',1378.901
'0:22.184',1379.254
'0:22.188',1379.586
'0:22.191',1379.721
'0:22.195',1379.553
'0:22.199',1379.082
'0:22.203',1378.389
'0:22.207',1377.585
'0:22.211',1376.802
'0:22.215',1376.183
'0:22.219',1375.810
'0:22.223',1375.708
'0:22.227',1375.835
'0:22.230',1376.155
'0:22.234',1376.577
'0:22.238',1376.983
'0:22.242',1377.249
'0:22.246',1377.331
'0:22.250',1377.229
'0:22.254',1376.975
'0:22.258',1376.614
'0:22.262',1376.196
'0:22.266',1375.708
'0:22.270',1375.138
'0:22.273',1374.507
'0:22.277',1373.851
'0:22.281',1373.236
'0:22.285',1372.797
'0:22.289',1372.691
'0:22.293',1373.011
'0:22.297',1373.798
'0:22.301',1375.040
'0:22.305',1376.659
'0:22.309',1378.479
'0:22.313',1380.316
'0:22.316',1382.062
'0:22.320',1383.718
'0:22.324',1385.337
'0:22.328',1386.936
'0:22.332',1388.514
'0:22.336',1390.129
'0:22.340',1391.900
'0:22.344',1393.880
'0:22.348',1395.971
'0:22.352',1397.881
'0:22.355',1399.283
'0:22.359',1400.037
'0:22.363',1400.267
'0:22.367',1400.201
'0:22.371',1400.009
'0:22.375',1399.730
'0:22.379',1399.316
'0:22.383',1398.730
'0:22.387',1398.045
'0:22.391',1397.360
'0:22.395',1396.680
'0:22.398',1395.909
'0:22.402',1394.971
'0:22.406',1393.917
'0:22.410',1392.909
'0:22.414',1392.048
'0:22.418',1391.298
'0:22.422',1390.584
'0:22.426',1389.908
'0:22.430',1389.314
'0:22.434',1388.793
'0:22.438',1388.313
'0:22.441',1387.813
'0:22.445',1387.239
'0:22.449',1386.600
'0:22.453',1385.973
'0:22.457',1385.513
'0:22.461',1385.300
'0:22.465',1385.235
'0:22.469',1385.136
'0:22.473',1384.862
'0:22.477',1384.370
'0:22.480',1383.710
'0:22.484',1382.947
'0:22.488',1382.136
'0:22.492',1381.316
'0:22.496',1380.508
'0:22.500',1379.762
'0:22.504',1379.123
'0:22.508',1378.672
'0:22.512',1378.434
'0:22.516',1378.360
'0:22.520',1378.381
'0:22.523',1378.413
'0:22.527',1378.426
'0:22.531',1378.430
'0:22.535',1378.426
'0:22.539',1378.307
'0:22.543',1377.983
'0:22.547',1377.524
'0:22.551',1377.098
'0:22.555',1376.749
'0:22.559',1376.360
'0:22.563',1375.810
'0:22.566',1375.126
'0:22.570',1374.380
'0:22.574',1373.539
'0:22.578',1372.564
'0:22.582',1371.551
'0:22.586',1370.694
'0:22.590',1370.080
'0:22.594',1369.588
'0:22.598',1369.034
'0:22.602',1368.350
'0:22.605',1367.595
'0:22.609',1366.841
'0:22.613',1366.099
'0:22.617',1365.337
'0:22.621',1364.574
'0:22.625',1363.943
'0:22.629',1363.586
'0:22.633',1363.590
'0:22.637',1363.996
'0:22.641',1364.820
'0:22.645',1366.021
'0:22.648',1367.550
'0:22.652',1369.366
'0:22.656',1371.313
'0:22.660',1373.109
'0:22.664',1374.482
'0:22.668',1375.368
'0:22.672',1375.933
'0:22.676',1376.438
'0:22.680',1377.011
'0:22.684',1377.581
'0:22.688',1377.954
'0:22.691',1378.098
'0:22.695',1378.151
'0:22.699',1378.266
'0:22.703',1378.541
'0:22.707',1379.000
'0:22.711',1379.623
'0:22.715',1380.381
'0:22.719',1381.267
'0:22.723',1382.295
'0:22.727',1383.517
'0:22.730',1384.935
'0:22.734',1386.436
'0:22.738',1387.944
'0:22.742',1389.510
'0:22.746',1391.261
'0:22.750',1393.261
'0:22.754',1395.458
'0:22.758',1397.672
'0:22.762',1399.718
'0:22.766',1401.456
'0:22.770',1402.796
'0:22.773',1403.739
'0:22.777',1404.440
'0:22.781',1405.071
'0:22.785',1405.711
'0:22.789',1406.358
'0:22.793',1407.031
'0:22.797',1407.830
'0:22.801',1408.912
'0:22.805',1410.392
'0:22.809',1412.315
'0:22.813',1414.647
'0:22.816',1417.295
'0:22.820',1420.128
'0:22.824',1423.039
'0:22.828',1425.916
'0:22.832',1428.618
'0:22.836',1431.012
'0:22.840',1433.008
'0:22.844',1434.578
'0:22.848',1435.779
'0:22.852',1436.722
'0:22.855',1437.493
'0:22.859',1438.136
'0:22.863',1438.554
'0:22.867',1438.505
'0:22.871',1437.759
'0:22.875',1436.247
'0:22.879',1434.053
'0:22.883',1431.352
'0:22.887',1428.318
'0:22.891',1425.092
'0:22.895',1421.809
'0:22.898',1418.537
'0:22.902',1415.262
'0:22.906',1411.962
'0:22.910',1408.695
'0:22.914',1405.559
'0:22.918',1402.640
'0:22.922',1399.992
'0:22.926',1397.668
'0:22.930',1395.721
'0:22.934',1394.196
'0:22.938',1393.101
'0:22.941',1392.470
'0:22.945',1392.322
'0:22.949',1392.663
'0:22.953',1393.417
'0:22.957',1394.409
'0:22.961',1395.385
'0:22.965',1396.131
'0:22.969',1396.586
'0:22.973',1396.836
'0:22.977',1396.967
'0:22.980',1396.942
'0:22.984',1396.676
'0:22.988',1396.209
'0:22.992',1395.680
'0:22.996',1395.155
'0:23.000',1394.630
'0:23.004',1394.073
'0:23.008',1393.499
'0:23.012',1392.945
'0:23.016',1392.474
'0:23.020',1392.126
'0:23.023',1391.896
'0:23.027',1391.679
'0:23.031',1391.334
'0:23.035',1390.806
'0:23.039',1390.142
'0:23.043',1389.355
'0:23.047',1388.403
'0:23.051',1387.301
'0:23.055',1386.161
'0:23.059',1385.079
'0:23.063',1384.070
'0:23.066',1383.156
'0:23.070',1382.332
'0:23.074',1381.599
'0:23.078',1381.049
'0:23.082',1380.836
'0:23.086',1380.971
'0:23.090',1381.332
'0:23.094',1381.828
'0:23.098',1382.472
'0:23.102',1383.275
'0:23.105',1384.136
'0:23.109',1384.821
'0:23.113',1385.099
'0:23.117',1384.948
'0:23.121',1384.550
'0:23.125',1384.103
'0:23.129',1383.661
'0:23.133',1383.107
'0:23.137',1382.275
'0:23.141',1381.074
'0:23.145',1379.533
'0:23.148',1377.844
'0:23.152',1376.327
'0:23.156',1375.261
'0:23.160',1374.798
'0:23.164',1374.896
'0:23.168',1375.450
'0:23.172',1376.298
'0:23.176',1377.286
'0:23.180',1378.299
'0:23.184',1379.287
'0:23.188',1380.258
'0:23.191',1381.217
'0:23.195',1382.144
'0:23.199',1383.009
'0:23.203',1383.759
'0:23.207',1384.321
'0:23.211',1384.595
'0:23.215',1384.497
'0:23.219',1384.038
'0:23.223',1383.333
'0:23.227',1382.500
'0:23.230',1381.619
'0:23.234',1380.725
'0:23.238',1379.815
'0:23.242',1378.832
'0:23.246',1377.712
'0:23.250',1376.429
'0:23.254',1374.974
'0:23.258',1373.375
'0:23.262',1371.797
'0:23.266',1370.576
'0:23.270',1370.067
'0:23.273',1370.481
'0:23.277',1371.863
'0:23.281',1374.117
'0:23.285',1376.999
'0:23.289',1380.188
'0:23.293',1383.411
'0:23.297',1386.510
'0:23.301',1389.342
'0:23.305',1391.679
'0:23.309',1393.347
'0:23.313',1394.360
'0:23.316',1394.831
'0:23.320',1394.913
'0:23.324',1394.761
'0:23.328',1394.561
'0:23.332',1394.495
'0:23.336',1394.725
'0:23.340',1395.360
'0:23.344',1396.524
'0:23.348',1398.336
'0:23.352',1400.804
'0:23.355',1403.723
'0:23.359',1406.686
'0:23.363',1409.191
'0:23.367',1410.798
'0:23.371',1411.249
'0:23.375',1410.470
'0:23.379',1408.597
'0:23.383',1405.916
'0:23.387',1402.845
'0:23.391',1399.849
'0:23.395',1397.328
'0:23.398',1395.532
'0:23.402',1394.540
'0:23.406',1394.278
'0:23.410',1394.610
'0:23.414',1395.344
'0:23.418',1396.213
'0:23.422',1396.873
