'Elapsed time','wrist_ppg'
'hh:mm:ss.mmm','mV'
'0:00.000',1375.573
'0:00.004',1376.376
'0:00.008',1376.881
'0:00.012',1376.892
'0:00.016',1376.511
'0:00.020',1375.990
'0:00.023',1375.558
'0:00.027',1375.349
'0:00.031',1375.407
'0:00.035',1375.735
'0:00.039',1376.345
'0:00.043',1377.215
'0:00.047',1378.263
'0:00.051',1379.399
'0:00.055',1380.545
'0:00.059',1381.650
'0:00.063',1382.682
'0:00.066',1383.589
'0:00.070',1384.293
'0:00.074',1384.782
'0:00.078',1385.106
'0:00.082',1385.319
'0:00.086',1385.439
'0:00.090',1385.397
'0:00.094',1385.085
'0:00.098',1384.355
'0:00.102',1383.146
'0:00.105',1381.546
'0:00.109',1379.779
'0:00.113',1378.148
'0:00.117',1376.918
'0:00.121',1376.339
'0:00.125',1376.621
'0:00.129',1377.809
'0:00.133',1379.722
'0:00.137',1381.942
'0:00.141',1383.933
'0:00.145',1385.231
'0:00.148',1385.543
'0:00.152',1384.876
'0:00.156',1383.500
'0:00.160',1381.869
'0:00.164',1380.441
'0:00.168',1379.550
'0:00.172',1379.253
'0:00.176',1379.456
'0:00.180',1379.977
'0:00.184',1380.618
'0:00.188',1381.228
'0:00.191',1381.765
'0:00.195',1382.244
'0:00.199',1382.599
'0:00.203',1382.750
'0:00.207',1382.724
'0:00.211',1382.656
'0:00.215',1382.640
'0:00.219',1382.750
'0:00.223',1383.037
'0:00.227',1383.495
'0:00.230',1384.084
'0:00.234',1384.720
'0:00.238',1385.283
'0:00.242',1385.710
'0:00.246',1386.091
'0:00.250',1386.544
'0:00.254',1387.180
'0:00.258',1388.102
'0:00.262',1389.452
'0:00.266',1391.422
'0:00.270',1394.200
'0:00.273',1397.833
'0:00.277',1402.179
'0:00.281',1406.885
'0:00.285',1411.477
'0:00.289',1415.459
'0:00.293',1418.440
'0:00.297',1420.264
'0:00.301',1421.093
'0:00.305',1421.270
'0:00.309',1421.119
'0:00.313',1420.848
'0:00.316',1420.723
'0:00.320',1421.098
'0:00.324',1422.359
'0:00.328',1424.777
'0:00.332',1428.472
'0:00.336',1433.413
'0:00.340',1439.506
'0:00.344',1446.740
'0:00.348',1455.130
'0:00.352',1464.605
'0:00.355',1474.935
'0:00.359',1485.895
'0:00.363',1497.299
'0:00.367',1508.962
'0:00.371',1520.605
'0:00.375',1531.904
'0:00.379',1542.510
'0:00.383',1552.100
'0:00.387',1560.402
'0:00.391',1567.292
'0:00.395',1572.691
'0:00.398',1576.574
'0:00.402',1578.998
'0:00.406',1580.102
'0:00.410',1580.019
'0:00.414',1578.836
'0:00.418',1576.652
'0:00.422',1573.635
'0:00.426',1569.976
'0:00.430',1565.869
'0:00.434',1561.502
'0:00.438',1557.020
'0:00.441',1552.527
'0:00.445',1547.962
'0:00.449',1543.078
'0:00.453',1537.596
'0:00.457',1531.373
'0:00.461',1524.452
'0:00.465',1516.863
'0:00.469',1508.545
'0:00.473',1499.487
'0:00.477',1489.846
'0:00.480',1479.891
'0:00.484',1469.947
'0:00.488',1460.389
'0:00.492',1451.534
'0:00.496',1443.524
'0:00.500',1436.306
'0:00.504',1429.734
'0:00.508',1423.662
'0:00.512',1418.007
'0:00.516',1412.749
'0:00.520',1407.886
'0:00.523',1403.435
'0:00.527',1399.433
'0:00.531',1395.873
'0:00.535',1392.720
'0:00.539',1389.932
'0:00.543',1387.456
'0:00.547',1385.215
'0:00.551',1383.125
'0:00.555',1381.108
'0:00.559',1379.107
'0:00.563',1377.153
'0:00.566',1375.261
'0:00.570',1373.395
'0:00.574',1371.508
'0:00.578',1369.569
'0:00.582',1367.563
'0:00.586',1365.609
'0:00.590',1364.050
'0:00.594',1363.227
'0:00.598',1363.331
'0:00.602',1364.353
'0:00.605',1366.083
'0:00.609',1368.131
'0:00.613',1370.054
'0:00.617',1371.566
'0:00.621',1372.676
'0:00.625',1373.567
'0:00.629',1374.411
'0:00.633',1375.339
'0:00.637',1376.475
'0:00.641',1377.835
'0:00.645',1379.279
'0:00.648',1380.665
'0:00.652',1381.900
'0:00.656',1382.922
'0:00.660',1383.761
'0:00.664',1384.485
'0:00.668',1385.100
'0:00.672',1385.611
'0:00.676',1386.012
'0:00.680',1386.362
'0:00.684',1386.664
'0:00.688',1386.841
'0:00.691',1386.758
'0:00.695',1386.393
'0:00.699',1385.877
'0:00.703',1385.314
'0:00.707',1384.725
'0:00.711',1384.194
'0:00.715',1383.855
'0:00.719',1383.714
'0:00.723',1383.620
'0:00.727',1383.422
'0:00.730',1383.099
'0:00.734',1382.698
'0:00.738',1382.317
'0:00.742',1382.072
'0:00.746',1381.994
'0:00.750',1381.994
'0:00.754',1381.947
'0:00.758',1381.749
'0:00.762',1381.332
'0:00.766',1380.681
'0:00.770',1379.878
'0:00.773',1379.076
'0:00.777',1378.440
'0:00.781',1378.080
'0:00.785',1377.986
'0:00.789',1378.127
'0:00.793',1378.487
'0:00.797',1379.091
'0:00.801',1379.941
'0:00.805',1380.999
'0:00.809',1382.255
'0:00.813',1383.641
'0:00.816',1385.064
'0:00.820',1386.440
'0:00.824',1387.607
'0:00.828',1388.363
'0:00.832',1388.493
'0:00.836',1387.847
'0:00.840',1386.429
'0:00.844',1384.423
'0:00.848',1382.052
'0:00.852',1379.550
'0:00.855',1377.215
'0:00.859',1375.459
'0:00.863',1374.583
'0:00.867',1374.609
'0:00.871',1375.302
'0:00.875',1376.324
'0:00.879',1377.476
'0:00.883',1378.758
'0:00.887',1380.160
'0:00.891',1381.447
'0:00.895',1382.270
'0:00.898',1382.396
'0:00.902',1381.947
'0:00.906',1381.296
'0:00.910',1380.764
'0:00.914',1380.483
'0:00.918',1380.363
'0:00.922',1380.238
'0:00.926',1380.014
'0:00.930',1379.722
'0:00.934',1379.451
'0:00.938',1379.284
'0:00.941',1379.232
'0:00.945',1379.258
'0:00.949',1379.336
'0:00.953',1379.477
'0:00.957',1379.764
'0:00.961',1380.347
'0:00.965',1381.410
'0:00.969',1382.969
'0:00.973',1384.840
'0:00.977',1386.680
'0:00.980',1388.154
'0:00.984',1389.056
'0:00.988',1389.358
'0:00.992',1389.259
'0:00.996',1389.067
'0:01.000',1388.973
'0:01.004',1389.051
'0:01.008',1389.410
'0:01.012',1390.260
'0:01.016',1391.756
'0:01.020',1393.804
'0:01.023',1396.108
'0:01.027',1398.406
'0:01.031',1400.564
'0:01.035',1402.409
'0:01.039',1403.727
'0:01.043',1404.311
'0:01.047',1404.014
'0:01.051',1402.784
'0:01.055',1400.637
'0:01.059',1397.760
'0:01.063',1394.534
'0:01.066',1391.474
'0:01.070',1389.077
'0:01.074',1387.670
'0:01.078',1387.326
'0:01.082',1387.863
'0:01.086',1388.884
'0:01.090',1389.999
'0:01.094',1390.995
'0:01.098',1391.813
'0:01.102',1392.433
'0:01.105',1392.887
'0:01.109',1393.220
'0:01.113',1393.507
'0:01.117',1393.794
'0:01.121',1394.007
'0:01.125',1394.033
'0:01.129',1393.872
'0:01.133',1393.679
'0:01.137',1393.559
'0:01.141',1393.460
'0:01.145',1393.205
'0:01.148',1392.683
'0:01.152',1391.969
'0:01.156',1391.250
'0:01.160',1390.614
'0:01.164',1389.979
'0:01.168',1389.244
'0:01.172',1388.436
'0:01.176',1387.659
'0:01.180',1386.977
'0:01.184',1386.539
'0:01.188',1386.607
'0:01.191',1387.409
'0:01.195',1388.978
'0:01.199',1391.089
'0:01.203',1393.288
'0:01.207',1395.050
'0:01.211',1396.014
'0:01.215',1396.071
'0:01.219',1395.352
'0:01.223',1394.122
'0:01.227',1392.678
'0:01.230',1391.282
'0:01.234',1390.125
'0:01.238',1389.285
'0:01.242',1388.733
'0:01.246',1388.431
'0:01.250',1388.384
'0:01.254',1388.530
'0:01.258',1388.775
'0:01.262',1389.124
'0:01.266',1389.676
'0:01.270',1390.411
'0:01.273',1391.083
'0:01.277',1391.448
'0:01.281',1391.386
'0:01.285',1390.932
'0:01.289',1390.192
'0:01.293',1389.275
'0:01.297',1388.274
'0:01.301',1387.216
'0:01.305',1386.117
'0:01.309',1385.048
'0:01.313',1384.178
'0:01.316',1383.631
'0:01.320',1383.396
'0:01.324',1383.370
'0:01.328',1383.448
'0:01.332',1383.573
'0:01.336',1383.704
'0:01.340',1383.844
'0:01.344',1384.032
'0:01.348',1384.303
'0:01.352',1384.642
'0:01.355',1384.902
'0:01.359',1384.908
'0:01.363',1384.543
'0:01.367',1383.865
'0:01.371',1383.073
'0:01.375',1382.369
'0:01.379',1381.885
'0:01.383',1381.635
'0:01.387',1381.666
'0:01.391',1381.999
'0:01.395',1382.557
'0:01.398',1383.198
'0:01.402',1383.824
'0:01.406',1384.376
'0:01.410',1384.845
'0:01.414',1385.199
'0:01.418',1385.397
'0:01.422',1385.444
'0:01.426',1385.335
'0:01.430',1385.064
'0:01.434',1384.642
'0:01.438',1384.058
'0:01.441',1383.360
'0:01.445',1382.698
'0:01.449',1382.203
'0:01.453',1381.895
'0:01.457',1381.687
'0:01.461',1381.457
'0:01.465',1381.150
'0:01.469',1380.764
'0:01.473',1380.389
'0:01.477',1380.102
'0:01.480',1379.941
'0:01.484',1379.868
'0:01.488',1379.810
'0:01.492',1379.659
'0:01.496',1379.373
'0:01.500',1378.997
'0:01.504',1378.617
'0:01.508',1378.221
'0:01.512',1377.710
'0:01.516',1376.934
'0:01.520',1375.860
'0:01.523',1374.635
'0:01.527',1373.489
'0:01.531',1372.472
'0:01.535',1371.435
'0:01.539',1370.205
'0:01.543',1368.829
'0:01.547',1367.631
'0:01.551',1366.969
'0:01.555',1367.104
'0:01.559',1368.115
'0:01.563',1369.919
'0:01.566',1372.217
'0:01.570',1374.526
'0:01.574',1376.319
'0:01.578',1377.283
'0:01.582',1377.470
'0:01.586',1377.225
'0:01.590',1376.975
'0:01.594',1377.038
'0:01.598',1377.528
'0:01.602',1378.440
'0:01.605',1379.722
'0:01.609',1381.239
'0:01.613',1382.802
'0:01.617',1384.194
'0:01.621',1385.132
'0:01.625',1385.387
'0:01.629',1384.908
'0:01.633',1383.886
'0:01.637',1382.656
'0:01.641',1381.478
'0:01.645',1380.436
'0:01.648',1379.519
'0:01.652',1378.768
'0:01.656',1378.184
'0:01.660',1377.757
'0:01.664',1377.528
'0:01.668',1377.523
'0:01.672',1377.695
'0:01.676',1377.929
'0:01.680',1378.153
'0:01.684',1378.362
'0:01.688',1378.648
'0:01.691',1379.169
'0:01.695',1380.014
'0:01.699',1381.082
'0:01.703',1382.224
'0:01.707',1383.328
'0:01.711',1384.303
'0:01.715',1385.069
'0:01.719',1385.523
'0:01.723',1385.616
'0:01.727',1385.345
'0:01.730',1384.777
'0:01.734',1384.032
'0:01.738',1383.287
'0:01.742',1382.729
'0:01.746',1382.531
'0:01.750',1382.755
'0:01.754',1383.375
'0:01.758',1384.256
'0:01.762',1385.199
'0:01.766',1386.039
'0:01.770',1386.685
'0:01.773',1387.086
'0:01.777',1387.253
'0:01.781',1387.274
'0:01.785',1387.201
'0:01.789',1387.039
'0:01.793',1386.753
'0:01.797',1386.346
'0:01.801',1385.877
'0:01.805',1385.408
'0:01.809',1384.892
'0:01.813',1384.267
'0:01.816',1383.573
'0:01.820',1383.010
'0:01.824',1382.776
'0:01.828',1382.875
'0:01.832',1383.115
'0:01.836',1383.292
'0:01.840',1383.354
'0:01.844',1383.417
'0:01.848',1383.636
'0:01.852',1384.079
'0:01.855',1384.699
'0:01.859',1385.382
'0:01.863',1386.018
'0:01.867',1386.544
'0:01.871',1386.867
'0:01.875',1386.872
'0:01.879',1386.544
'0:01.883',1385.934
'0:01.887',1385.080
'0:01.891',1384.042
'0:01.895',1382.948
'0:01.898',1381.942
'0:01.902',1381.119
'0:01.906',1380.524
'0:01.910',1380.170
'0:01.914',1380.076
'0:01.918',1380.217
'0:01.922',1380.535
'0:01.926',1380.947
'0:01.930',1381.275
'0:01.934',1381.384
'0:01.938',1381.228
'0:01.941',1380.858
'0:01.945',1380.358
'0:01.949',1379.790
'0:01.953',1379.175
'0:01.957',1378.508
'0:01.961',1377.893
'0:01.965',1377.533
'0:01.969',1377.569
'0:01.973',1377.955
'0:01.977',1378.508
'0:01.980',1379.034
'0:01.984',1379.388
'0:01.988',1379.498
'0:01.992',1379.367
'0:01.996',1379.091
'0:02.000',1378.742
'0:02.004',1378.382
'0:02.008',1378.153
'0:02.012',1378.158
'0:02.016',1378.320
'0:02.020',1378.445
'0:02.023',1378.398
'0:02.027',1378.226
'0:02.031',1378.085
'0:02.035',1378.049
'0:02.039',1378.101
'0:02.043',1378.190
'0:02.047',1378.273
'0:02.051',1378.351
'0:02.055',1378.466
'0:02.059',1378.659
'0:02.063',1378.961
'0:02.066',1379.347
'0:02.070',1379.732
'0:02.074',1380.024
'0:02.078',1380.154
'0:02.082',1380.113
'0:02.086',1379.951
'0:02.090',1379.722
'0:02.094',1379.477
'0:02.098',1379.227
'0:02.102',1378.935
'0:02.105',1378.581
'0:02.109',1378.221
'0:02.113',1377.919
'0:02.117',1377.684
'0:02.121',1377.460
'0:02.125',1377.231
'0:02.129',1376.949
'0:02.133',1376.590
'0:02.137',1376.188
'0:02.141',1375.818
'0:02.145',1375.568
'0:02.148',1375.433
'0:02.152',1375.401
'0:02.156',1375.500
'0:02.160',1375.751
'0:02.164',1376.022
'0:02.168',1376.131
'0:02.172',1376.032
'0:02.176',1375.839
'0:02.180',1375.719
'0:02.184',1375.824
'0:02.188',1376.188
'0:02.191',1376.730
'0:02.195',1377.371
'0:02.199',1378.085
'0:02.203',1378.742
'0:02.207',1379.096
'0:02.211',1378.987
'0:02.215',1378.508
'0:02.219',1377.955
'0:02.223',1377.523
'0:02.227',1377.205
'0:02.230',1376.918
'0:02.234',1376.699
'0:02.238',1376.657
'0:02.242',1376.824
'0:02.246',1377.059
'0:02.250',1377.121
'0:02.254',1376.876
'0:02.258',1376.402
'0:02.262',1375.907
'0:02.266',1375.490
'0:02.270',1375.099
'0:02.273',1374.713
'0:02.277',1374.453
'0:02.281',1374.495
'0:02.285',1374.911
'0:02.289',1375.646
'0:02.293',1376.584
'0:02.297',1377.674
'0:02.301',1378.992
'0:02.305',1380.613
'0:02.309',1382.411
'0:02.313',1384.121
'0:02.316',1385.361
'0:02.320',1385.788
'0:02.324',1385.210
'0:02.328',1383.730
'0:02.332',1381.692
'0:02.336',1379.555
'0:02.340',1377.705
'0:02.344',1376.386
'0:02.348',1375.740
'0:02.352',1375.834
'0:02.355',1376.663
'0:02.359',1378.179
'0:02.363',1380.259
'0:02.367',1382.729
'0:02.371',1385.429
'0:02.375',1388.300
'0:02.379',1391.276
'0:02.383',1394.169
'0:02.387',1396.676
'0:02.391',1398.625
'0:02.395',1400.100
'0:02.398',1401.377
'0:02.402',1402.680
'0:02.406',1403.998
'0:02.410',1405.093
'0:02.414',1405.655
'0:02.418',1405.489
'0:02.422',1404.566
'0:02.426',1403.044
'0:02.430',1401.168
'0:02.434',1399.115
'0:02.438',1396.842
'0:02.441',1394.184
'0:02.445',1391.141
'0:02.449',1387.982
'0:02.453',1385.095
'0:02.457',1382.818
'0:02.461',1381.374
'0:02.465',1380.858
'0:02.469',1381.218
'0:02.473',1382.250
'0:02.477',1383.657
'0:02.480',1385.116
'0:02.484',1386.289
'0:02.488',1386.799
'0:02.492',1386.325
'0:02.496',1384.704
'0:02.500',1382.057
'0:02.504',1378.799
'0:02.508',1375.495
'0:02.512',1372.660
'0:02.516',1370.607
'0:02.520',1369.424
'0:02.523',1369.001
'0:02.527',1369.069
'0:02.531',1369.293
'0:02.535',1369.418
'0:02.539',1369.377
'0:02.543',1369.189
'0:02.547',1368.960
'0:02.551',1368.881
'0:02.555',1369.215
'0:02.559',1370.190
'0:02.563',1371.889
'0:02.566',1374.260
'0:02.570',1377.095
'0:02.574',1380.123
'0:02.578',1383.130
'0:02.582',1386.044
'0:02.586',1388.801
'0:02.590',1391.287
'0:02.594',1393.382
'0:02.598',1395.024
'0:02.602',1396.134
'0:02.605',1396.644
'0:02.609',1396.644
'0:02.613',1396.368
'0:02.617',1396.108
'0:02.621',1396.055
'0:02.625',1396.248
'0:02.629',1396.608
'0:02.633',1397.051
'0:02.637',1397.520
'0:02.641',1397.953
'0:02.645',1398.307
'0:02.648',1398.630
'0:02.652',1398.911
'0:02.656',1398.984
'0:02.660',1398.719
'0:02.664',1398.145
'0:02.668',1397.421
'0:02.672',1396.613
'0:02.676',1395.680
'0:02.680',1394.659
'0:02.684',1393.731
'0:02.688',1393.137
'0:02.691',1393.012
'0:02.695',1393.444
'0:02.699',1394.419
'0:02.703',1395.889
'0:02.707',1397.796
'0:02.711',1400.089
'0:02.715',1402.669
'0:02.719',1405.379
'0:02.723',1408.006
'0:02.727',1410.294
'0:02.730',1412.029
'0:02.734',1413.051
'0:02.738',1413.223
'0:02.742',1412.368
'0:02.746',1410.393
'0:02.750',1407.308
'0:02.754',1403.310
'0:02.758',1398.755
'0:02.762',1394.132
'0:02.766',1389.953
'0:02.770',1386.586
'0:02.773',1384.178
'0:02.777',1382.729
'0:02.781',1382.140
'0:02.785',1382.265
'0:02.789',1382.880
'0:02.793',1383.678
'0:02.797',1384.313
'0:02.801',1384.454
'0:02.805',1383.954
'0:02.809',1382.932
'0:02.813',1381.739
'0:02.816',1380.759
'0:02.820',1380.269
'0:02.824',1380.405
'0:02.828',1381.166
'0:02.832',1382.531
'0:02.836',1384.454
'0:02.840',1386.789
'0:02.844',1389.254
'0:02.848',1391.526
'0:02.852',1393.330
'0:02.855',1394.549
'0:02.859',1395.242
'0:02.863',1395.654
'0:02.867',1395.972
'0:02.871',1396.191
'0:02.875',1396.071
'0:02.879',1395.378
'0:02.883',1394.044
'0:02.887',1392.209
'0:02.891',1390.093
'0:02.895',1387.899
'0:02.898',1385.840
'0:02.902',1384.173
'0:02.906',1383.182
'0:02.910',1383.063
'0:02.914',1383.818
'0:02.918',1385.272
'0:02.922',1387.091
'0:02.926',1388.863
'0:02.930',1390.265
'0:02.934',1391.219
'0:02.938',1391.850
'0:02.941',1392.282
'0:02.945',1392.522
'0:02.949',1392.553
'0:02.953',1392.392
'0:02.957',1392.001
'0:02.961',1391.318
'0:02.965',1390.437
'0:02.969',1389.572
'0:02.973',1388.936
'0:02.977',1388.597
'0:02.980',1388.462
'0:02.984',1388.337
'0:02.988',1387.982
'0:02.992',1387.284
'0:02.996',1386.367
'0:03.000',1385.543
'0:03.004',1385.085
'0:03.008',1385.017
'0:03.012',1385.168
'0:03.016',1385.257
'0:03.020',1385.059
'0:03.023',1384.475
'0:03.027',1383.506
'0:03.031',1382.239
'0:03.035',1380.738
'0:03.039',1379.107
'0:03.043',1377.549
'0:03.047',1376.345
'0:03.051',1375.704
'0:03.055',1375.657
'0:03.059',1376.131
'0:03.063',1377.001
'0:03.066',1378.190
'0:03.070',1379.748
'0:03.074',1381.781
'0:03.078',1384.319
'0:03.082',1387.206
'0:03.086',1390.109
'0:03.090',1392.616
'0:03.094',1394.356
'0:03.098',1395.190
'0:03.102',1395.206
'0:03.105',1394.591
'0:03.109',1393.564
'0:03.113',1392.324
'0:03.117',1391.026
'0:03.121',1389.786
'0:03.125',1388.702
'0:03.129',1387.868
'0:03.133',1387.326
'0:03.137',1387.149
'0:03.141',1387.341
'0:03.145',1387.748
'0:03.148',1388.050
'0:03.152',1387.936
'0:03.156',1387.237
'0:03.160',1385.929
'0:03.164',1384.032
'0:03.168',1381.582
'0:03.172',1378.747
'0:03.176',1375.876
'0:03.180',1373.410
'0:03.184',1371.691
'0:03.188',1370.768
'0:03.191',1370.461
'0:03.195',1370.424
'0:03.199',1370.325
'0:03.203',1369.945
'0:03.207',1369.252
'0:03.211',1368.355
'0:03.215',1367.495
'0:03.219',1366.958
'0:03.223',1366.906
'0:03.227',1367.349
'0:03.230',1368.199
'0:03.234',1369.293
'0:03.238',1370.346
'0:03.242',1371.029
'0:03.246',1371.232
'0:03.250',1371.154
'0:03.254',1371.138
'0:03.258',1371.373
'0:03.262',1371.685
'0:03.266',1371.659
'0:03.270',1370.940
'0:03.273',1369.418
'0:03.277',1367.245
'0:03.281',1364.801
'0:03.285',1362.570
'0:03.289',1360.881
'0:03.293',1359.751
'0:03.297',1358.938
'0:03.301',1358.119
'0:03.305',1357.113
'0:03.309',1356.019
'0:03.313',1355.091
'0:03.316',1354.622
'0:03.320',1354.779
'0:03.324',1355.508
'0:03.328',1356.498
'0:03.332',1357.265
'0:03.336',1357.301
'0:03.340',1356.337
'0:03.344',1354.419
'0:03.348',1351.902
'0:03.352',1349.306
'0:03.355',1347.143
'0:03.359',1345.794
'0:03.363',1345.496
'0:03.367',1346.346
'0:03.371',1348.306
'0:03.375',1351.235
'0:03.379',1354.836
'0:03.383',1358.672
'0:03.387',1362.153
'0:03.391',1364.691
'0:03.395',1365.911
'0:03.398',1365.791
'0:03.402',1364.702
'0:03.406',1363.232
'0:03.410',1361.976
'0:03.414',1361.304
'0:03.418',1361.309
'0:03.422',1361.788
'0:03.426',1362.346
'0:03.430',1362.596
'0:03.434',1362.419
'0:03.438',1361.934
'0:03.441',1361.366
'0:03.445',1360.908
'0:03.449',1360.657
'0:03.453',1360.579
'0:03.457',1360.428
'0:03.461',1359.896
'0:03.465',1358.833
'0:03.469',1357.343
'0:03.473',1355.586
'0:03.477',1353.684
'0:03.480',1351.714
'0:03.484',1349.791
'0:03.488',1348.019
'0:03.492',1346.508
'0:03.496',1345.319
'0:03.500',1344.475
'0:03.504',1343.995
'0:03.508',1343.949
'0:03.512',1344.423
'0:03.516',1345.538
'0:03.520',1347.388
'0:03.523',1349.973
'0:03.527',1353.173
'0:03.531',1356.723
'0:03.535',1360.287
'0:03.539',1363.612
'0:03.543',1366.640
'0:03.547',1369.450
'0:03.551',1372.066
'0:03.555',1374.484
'0:03.559',1376.746
'0:03.563',1378.898
'0:03.566',1380.926
'0:03.570',1382.739
'0:03.574',1384.251
'0:03.578',1385.517
'0:03.582',1386.659
'0:03.586',1387.738
'0:03.590',1388.759
'0:03.594',1389.697
'0:03.598',1390.505
'0:03.602',1391.089
'0:03.605',1391.375
'0:03.609',1391.297
'0:03.613',1390.859
'0:03.617',1390.156
'0:03.621',1389.301
'0:03.625',1388.420
'0:03.629',1387.597
'0:03.633',1386.831
'0:03.637',1386.080
'0:03.641',1385.288
'0:03.645',1384.402
'0:03.648',1383.469
'0:03.652',1382.578
'0:03.656',1381.812
'0:03.660',1381.306
'0:03.664',1381.150
'0:03.668',1381.275
'0:03.672',1381.478
'0:03.676',1381.650
'0:03.680',1381.833
'0:03.684',1382.025
'0:03.688',1382.130
'0:03.691',1382.046
'0:03.695',1381.770
'0:03.699',1381.259
'0:03.703',1380.483
'0:03.707',1379.555
'0:03.711',1378.784
'0:03.715',1378.445
'0:03.719',1378.601
'0:03.723',1379.216
'0:03.727',1380.290
'0:03.730',1381.807
'0:03.734',1383.662
'0:03.738',1385.637
'0:03.742',1387.482
'0:03.746',1388.967
'0:03.750',1389.900
'0:03.754',1390.187
'0:03.758',1389.921
'0:03.762',1389.343
'0:03.766',1388.691
'0:03.770',1388.113
'0:03.773',1387.670
'0:03.777',1387.347
'0:03.781',1387.117
'0:03.785',1386.992
'0:03.789',1386.956
'0:03.793',1386.966
'0:03.797',1387.008
'0:03.801',1387.039
'0:03.805',1387.013
'0:03.809',1386.862
'0:03.813',1386.586
'0:03.816',1386.315
'0:03.820',1386.247
'0:03.824',1386.476
'0:03.828',1386.987
'0:03.832',1387.696
'0:03.836',1388.540
'0:03.840',1389.405
'0:03.844',1390.197
'0:03.848',1390.854
'0:03.852',1391.323
'0:03.855',1391.589
'0:03.859',1391.698
'0:03.863',1391.808
'0:03.867',1392.089
'0:03.871',1392.610
'0:03.875',1393.272
'0:03.879',1393.908
'0:03.883',1394.341
'0:03.887',1394.435
'0:03.891',1394.127
'0:03.895',1393.455
'0:03.898',1392.527
'0:03.902',1391.495
'0:03.906',1390.510
'0:03.910',1389.676
'0:03.914',1389.093
'0:03.918',1388.827
'0:03.922',1388.905
'0:03.926',1389.228
'0:03.930',1389.640
'0:03.934',1389.953
'0:03.938',1389.994
'0:03.941',1389.692
'0:03.945',1389.160
'0:03.949',1388.624
'0:03.953',1388.238
'0:03.957',1388.024
'0:03.961',1387.894
'0:03.965',1387.706
'0:03.969',1387.279
'0:03.973',1386.455
'0:03.977',1385.132
'0:03.980',1383.235
'0:03.984',1380.811
'0:03.988',1378.039
'0:03.992',1375.182
'0:03.996',1372.504
'0:04.000',1370.278
'0:04.004',1368.720
'0:04.008',1367.954
'0:04.012',1367.923
'0:04.016',1368.412
'0:04.020',1369.153
'0:04.023',1369.924
'0:04.027',1370.633
'0:04.031',1371.268
'0:04.035',1371.878
'0:04.039',1372.488
'0:04.043',1373.061
'0:04.047',1373.510
'0:04.051',1373.786
'0:04.055',1373.906
'0:04.059',1373.973
'0:04.063',1374.098
'0:04.066',1374.349
'0:04.070',1374.729
'0:04.074',1375.167
'0:04.078',1375.579
'0:04.082',1375.896
'0:04.086',1376.121
'0:04.090',1376.298
'0:04.094',1376.470
'0:04.098',1376.715
'0:04.102',1377.173
'0:04.105',1377.966
'0:04.109',1379.060
'0:04.113',1380.274
'0:04.117',1381.405
'0:04.121',1382.432
'0:04.125',1383.506
'0:04.129',1384.793
'0:04.133',1386.341
'0:04.137',1388.003
'0:04.141',1389.530
'0:04.145',1390.739
'0:04.148',1391.511
'0:04.152',1391.657
'0:04.156',1390.911
'0:04.160',1389.176
'0:04.164',1386.633
'0:04.168',1383.704
'0:04.172',1380.863
'0:04.176',1378.497
'0:04.180',1376.814
'0:04.184',1375.917
'0:04.188',1375.824
'0:04.191',1376.506
'0:04.195',1377.887
'0:04.199',1379.863
'0:04.203',1382.296
'0:04.207',1385.022
'0:04.211',1387.826
'0:04.215',1390.474
'0:04.219',1392.746
'0:04.223',1394.502
'0:04.227',1395.706
'0:04.230',1396.457
'0:04.234',1396.973
'0:04.238',1397.551
'0:04.242',1398.479
'0:04.246',1399.860
'0:04.250',1401.601
'0:04.254',1403.508
'0:04.258',1405.504
'0:04.262',1407.610
'0:04.266',1409.757
'0:04.270',1411.717
'0:04.273',1413.202
'0:04.277',1414.109
'0:04.281',1414.557
'0:04.285',1414.724
'0:04.289',1414.703
'0:04.293',1414.578
'0:04.297',1414.422
'0:04.301',1414.218
'0:04.305',1413.864
'0:04.309',1413.244
'0:04.313',1412.280
'0:04.316',1410.909
'0:04.320',1409.121
'0:04.324',1407.037
'0:04.328',1404.842
'0:04.332',1402.758
'0:04.336',1400.954
'0:04.340',1399.521
'0:04.344',1398.468
'0:04.348',1397.775
'0:04.352',1397.431
'0:04.355',1397.395
'0:04.359',1397.541
'0:04.363',1397.629
'0:04.367',1397.327
'0:04.371',1396.347
'0:04.375',1394.581
'0:04.379',1392.157
'0:04.383',1389.405
'0:04.387',1386.706
'0:04.391',1384.355
'0:04.395',1382.510
'0:04.398',1381.239
'0:04.402',1380.545
'0:04.406',1380.410
'0:04.410',1380.790
'0:04.414',1381.609
'0:04.418',1382.786
'0:04.422',1384.209
'0:04.426',1385.752
'0:04.430',1387.258
'0:04.434',1388.530
'0:04.438',1389.364
'0:04.441',1389.718
'0:04.445',1389.718
'0:04.449',1389.499
'0:04.453',1389.087
'0:04.457',1388.457
'0:04.461',1387.539
'0:04.465',1386.315
'0:04.469',1384.850
'0:04.473',1383.391
'0:04.477',1382.187
'0:04.480',1381.390
'0:04.484',1381.061
'0:04.488',1381.265
'0:04.492',1381.989
'0:04.496',1383.110
'0:04.500',1384.428
'0:04.504',1385.741
'0:04.508',1386.893
'0:04.512',1387.837
'0:04.516',1388.624
'0:04.520',1389.301
'0:04.523',1389.801
'0:04.527',1390.088
'0:04.531',1390.187
'0:04.535',1390.098
'0:04.539',1389.781
'0:04.543',1389.332
'0:04.547',1388.952
'0:04.551',1388.712
'0:04.555',1388.457
'0:04.559',1387.951
'0:04.563',1387.138
'0:04.566',1386.184
'0:04.570',1385.371
'0:04.574',1384.944
'0:04.578',1384.944
'0:04.582',1385.179
'0:04.586',1385.413
'0:04.590',1385.569
'0:04.594',1385.773
'0:04.598',1386.091
'0:04.602',1386.419
'0:04.605',1386.622
'0:04.609',1386.700
'0:04.613',1386.862
'0:04.617',1387.352
'0:04.621',1388.243
'0:04.625',1389.374
'0:04.629',1390.521
'0:04.633',1391.563
'0:04.637',1392.496
'0:04.641',1393.314
'0:04.645',1393.851
'0:04.648',1393.846
'0:04.652',1393.173
'0:04.656',1391.985
'0:04.660',1390.620
'0:04.664',1389.338
'0:04.668',1388.118
'0:04.672',1386.695
'0:04.676',1384.824
'0:04.680',1382.505
'0:04.684',1380.040
'0:04.688',1377.814
'0:04.691',1376.126
'0:04.695',1375.104
'0:04.699',1374.755
'0:04.703',1375.016
'0:04.707',1375.761
'0:04.711',1376.793
'0:04.715',1377.861
'0:04.719',1378.815
'0:04.723',1379.670
'0:04.727',1380.540
'0:04.730',1381.499
'0:04.734',1382.453
'0:04.738',1383.214
'0:04.742',1383.667
'0:04.746',1383.813
'0:04.750',1383.662
'0:04.754',1383.115
'0:04.758',1382.124
'0:04.762',1380.863
'0:04.766',1379.670
'0:04.770',1378.794
'0:04.773',1378.315
'0:04.777',1378.138
'0:04.781',1378.179
'0:04.785',1378.393
'0:04.789',1378.820
'0:04.793',1379.529
'0:04.797',1380.597
'0:04.801',1381.958
'0:04.805',1383.412
'0:04.809',1384.730
'0:04.813',1385.840
'0:04.816',1386.872
'0:04.820',1387.930
'0:04.824',1388.921
'0:04.828',1389.567
'0:04.832',1389.609
'0:04.836',1388.988
'0:04.840',1387.904
'0:04.844',1386.653
'0:04.848',1385.403
'0:04.852',1384.121
'0:04.855',1382.656
'0:04.859',1380.952
'0:04.863',1379.133
'0:04.867',1377.455
'0:04.871',1376.167
'0:04.875',1375.474
'0:04.879',1375.542
'0:04.883',1376.423
'0:04.887',1378.080
'0:04.891',1380.420
'0:04.895',1383.339
'0:04.898',1386.726
'0:04.902',1390.364
'0:04.906',1393.851
'0:04.910',1396.702
'0:04.914',1398.552
'0:04.918',1399.282
'0:04.922',1398.984
'0:04.926',1397.947
'0:04.930',1396.561
'0:04.934',1395.050
'0:04.938',1393.444
'0:04.941',1391.766
'0:04.945',1390.109
'0:04.949',1388.535
'0:04.953',1387.044
'0:04.957',1385.674
'0:04.961',1384.454
'0:04.965',1383.438
'0:04.969',1382.604
'0:04.973',1381.864
'0:04.977',1381.124
'0:04.980',1380.337
'0:04.984',1379.550
'0:04.988',1378.846
'0:04.992',1378.242
'0:04.996',1377.700
'0:05.000',1377.153
'0:05.004',1376.538
'0:05.008',1375.797
'0:05.012',1375.000
'0:05.016',1374.296
'0:05.020',1373.760
'0:05.023',1373.395
'0:05.027',1373.166
'0:05.031',1372.926
'0:05.035',1372.353
'0:05.039',1371.154
'0:05.043',1369.278
'0:05.047',1366.964
'0:05.051',1364.566
'0:05.055',1362.367
'0:05.059',1360.564
'0:05.063',1359.255
'0:05.066',1358.484
'0:05.070',1358.229
'0:05.074',1358.416
'0:05.078',1358.964
'0:05.082',1359.782
'0:05.086',1360.819
'0:05.090',1362.101
'0:05.094',1363.706
'0:05.098',1365.749
'0:05.102',1368.303
'0:05.105',1371.378
'0:05.109',1374.922
'0:05.113',1378.784
'0:05.117',1382.766
'0:05.121',1386.539
'0:05.125',1389.734
'0:05.129',1392.022
'0:05.133',1393.278
'0:05.137',1393.668
'0:05.141',1393.596
'0:05.145',1393.429
'0:05.148',1393.246
'0:05.152',1392.829
'0:05.156',1391.808
'0:05.160',1389.937
'0:05.164',1387.274
'0:05.168',1384.157
'0:05.172',1381.134
'0:05.176',1378.753
'0:05.180',1377.424
'0:05.184',1377.382
'0:05.188',1378.674
'0:05.191',1381.186
'0:05.195',1384.605
'0:05.199',1388.394
'0:05.203',1391.907
'0:05.207',1394.586
'0:05.211',1396.175
'0:05.215',1396.723
'0:05.219',1396.399
'0:05.223',1395.352
'0:05.227',1393.773
'0:05.230',1392.027
'0:05.234',1390.541
'0:05.238',1389.572
'0:05.242',1389.134
'0:05.246',1389.108
'0:05.250',1389.384
'0:05.254',1389.953
'0:05.258',1390.797
'0:05.262',1391.761
'0:05.266',1392.652
'0:05.270',1393.288
'0:05.273',1393.502
'0:05.277',1393.236
'0:05.281',1392.663
'0:05.285',1392.089
'0:05.289',1391.719
'0:05.293',1391.631
'0:05.297',1391.844
'0:05.301',1392.329
'0:05.305',1392.960
'0:05.309',1393.606
'0:05.313',1394.138
'0:05.316',1394.403
'0:05.320',1394.315
'0:05.324',1393.893
'0:05.328',1393.257
'0:05.332',1392.543
'0:05.336',1391.829
'0:05.340',1391.151
'0:05.344',1390.521
'0:05.348',1389.942
'0:05.352',1389.410
'0:05.355',1388.921
'0:05.359',1388.493
'0:05.363',1388.144
'0:05.367',1387.889
'0:05.371',1387.717
'0:05.375',1387.623
'0:05.379',1387.560
'0:05.383',1387.446
'0:05.387',1387.180
'0:05.391',1386.732
'0:05.395',1386.164
'0:05.398',1385.590
'0:05.402',1385.111
'0:05.406',1384.793
'0:05.410',1384.746
'0:05.414',1385.017
'0:05.418',1385.533
'0:05.422',1386.184
'0:05.426',1386.872
'0:05.430',1387.456
'0:05.434',1387.748
'0:05.438',1387.654
'0:05.441',1387.274
'0:05.445',1386.784
'0:05.449',1386.377
'0:05.453',1386.190
'0:05.457',1386.294
'0:05.461',1386.732
'0:05.465',1387.362
'0:05.469',1387.857
'0:05.473',1387.889
'0:05.477',1387.315
'0:05.480',1386.158
'0:05.484',1384.496
'0:05.488',1382.536
'0:05.492',1380.634
'0:05.496',1379.164
'0:05.500',1378.409
'0:05.504',1378.560
'0:05.508',1379.685
'0:05.512',1381.718
'0:05.516',1384.465
'0:05.520',1387.639
'0:05.523',1390.901
'0:05.527',1393.903
'0:05.531',1396.337
'0:05.535',1398.010
'0:05.539',1398.875
'0:05.543',1399.068
'0:05.547',1398.755
'0:05.551',1398.052
'0:05.555',1397.040
'0:05.559',1395.873
'0:05.563',1394.664
'0:05.566',1393.418
'0:05.570',1392.074
'0:05.574',1390.687
'0:05.578',1389.374
'0:05.582',1388.212
'0:05.586',1387.253
'0:05.590',1386.596
'0:05.594',1386.289
'0:05.598',1386.268
'0:05.602',1386.414
'0:05.605',1386.638
'0:05.609',1386.862
'0:05.613',1387.034
'0:05.617',1387.196
'0:05.621',1387.487
'0:05.625',1388.014
'0:05.629',1388.707
'0:05.633',1389.421
'0:05.637',1390.062
'0:05.641',1390.573
'0:05.645',1390.833
'0:05.648',1390.703
'0:05.652',1390.244
'0:05.656',1389.723
'0:05.660',1389.421
'0:05.664',1389.426
'0:05.668',1389.645
'0:05.672',1389.926
'0:05.676',1390.078
'0:05.680',1389.937
'0:05.684',1389.447
'0:05.688',1388.676
'0:05.691',1387.727
'0:05.695',1386.779
'0:05.699',1386.091
'0:05.703',1385.856
'0:05.707',1386.007
'0:05.711',1386.377
'0:05.715',1386.852
'0:05.719',1387.420
'0:05.723',1388.092
'0:05.727',1388.801
'0:05.730',1389.463
'0:05.734',1390.031
'0:05.738',1390.604
'0:05.742',1391.297
'0:05.746',1392.121
'0:05.750',1393.012
'0:05.754',1393.882
'0:05.758',1394.653
'0:05.762',1395.331
'0:05.766',1395.951
'0:05.770',1396.488
'0:05.773',1396.816
'0:05.777',1396.931
'0:05.781',1397.020
'0:05.785',1397.343
'0:05.789',1397.999
'0:05.793',1398.823
'0:05.797',1399.584
'0:05.801',1400.204
'0:05.805',1400.741
'0:05.809',1401.225
'0:05.813',1401.627
'0:05.816',1401.913
'0:05.820',1402.002
'0:05.824',1401.783
'0:05.828',1401.225
'0:05.832',1400.439
'0:05.836',1399.589
'0:05.840',1398.797
'0:05.844',1398.171
'0:05.848',1397.754
'0:05.852',1397.556
'0:05.855',1397.582
'0:05.859',1397.869
'0:05.863',1398.448
'0:05.867',1399.250
'0:05.871',1400.220
'0:05.875',1401.267
'0:05.879',1402.268
'0:05.883',1403.133
'0:05.887',1403.930
'0:05.891',1404.723
'0:05.895',1405.452
'0:05.898',1405.921
'0:05.902',1405.973
'0:05.906',1405.650
'0:05.910',1405.192
'0:05.914',1404.816
'0:05.918',1404.561
'0:05.922',1404.233
'0:05.926',1403.467
'0:05.930',1401.882
'0:05.934',1399.344
'0:05.938',1396.009
'0:05.941',1392.261
'0:05.945',1388.603
'0:05.949',1385.455
'0:05.953',1383.120
'0:05.957',1381.687
'0:05.961',1381.093
'0:05.965',1381.176
'0:05.969',1381.640
'0:05.973',1382.119
'0:05.977',1382.307
'0:05.980',1382.005
'0:05.984',1381.155
'0:05.988',1379.956
'0:05.992',1378.768
'0:05.996',1377.893
'0:06.000',1377.387
'0:06.004',1377.121
'0:06.008',1377.033
'0:06.012',1377.168
'0:06.016',1377.590
'0:06.020',1378.268
'0:06.023',1379.112
'0:06.027',1380.009
'0:06.031',1380.806
'0:06.035',1381.431
'0:06.039',1381.895
'0:06.043',1382.317
'0:06.047',1382.802
'0:06.051',1383.334
'0:06.055',1383.787
'0:06.059',1384.053
'0:06.063',1384.042
'0:06.066',1383.652
'0:06.070',1382.818
'0:06.074',1381.525
'0:06.078',1379.805
'0:06.082',1377.757
'0:06.086',1375.553
'0:06.090',1373.395
'0:06.094',1371.498
'0:06.098',1370.065
'0:06.102',1369.272
'0:06.105',1369.194
'0:06.109',1369.788
'0:06.113',1370.893
'0:06.117',1372.264
'0:06.121',1373.671
'0:06.125',1374.974
'0:06.129',1376.079
'0:06.133',1376.913
'0:06.137',1377.476
'0:06.141',1377.830
'0:06.145',1378.111
'0:06.148',1378.461
'0:06.152',1379.039
'0:06.156',1379.967
'0:06.160',1381.270
'0:06.164',1382.807
'0:06.168',1384.428
'0:06.172',1386.007
'0:06.176',1387.472
'0:06.180',1388.702
'0:06.184',1389.562
'0:06.188',1390.015
'0:06.191',1390.208
'0:06.195',1390.265
'0:06.199',1390.177
'0:06.203',1389.848
'0:06.207',1389.239
'0:06.211',1388.441
'0:06.215',1387.503
'0:06.219',1386.341
'0:06.223',1384.782
'0:06.227',1382.818
'0:06.230',1380.592
'0:06.234',1378.403
'0:06.238',1376.621
'0:06.242',1375.589
'0:06.246',1375.480
'0:06.250',1376.204
'0:06.254',1377.424
'0:06.258',1378.747
'0:06.262',1379.998
'0:06.266',1381.259
'0:06.270',1382.667
'0:06.273',1384.152
'0:06.277',1385.366
'0:06.281',1385.872
'0:06.285',1385.408
'0:06.289',1384.100
'0:06.293',1382.380
'0:06.297',1380.785
'0:06.301',1379.711
'0:06.305',1379.310
'0:06.309',1379.467
'0:06.313',1379.925
'0:06.316',1380.441
'0:06.320',1380.889
'0:06.324',1381.171
'0:06.328',1381.093
'0:06.332',1380.551
'0:06.336',1379.670
'0:06.340',1378.810
'0:06.344',1378.315
'0:06.348',1378.336
'0:06.352',1378.857
'0:06.355',1379.852
'0:06.359',1381.291
'0:06.363',1383.005
'0:06.367',1384.590
'0:06.371',1385.512
'0:06.375',1385.377
'0:06.379',1384.053
'0:06.383',1381.697
'0:06.387',1378.747
'0:06.391',1375.787
'0:06.395',1373.275
'0:06.398',1371.373
'0:06.402',1369.966
'0:06.406',1368.819
'0:06.410',1367.808
'0:06.414',1367.083
'0:06.418',1366.880
'0:06.422',1367.365
'0:06.426',1368.538
'0:06.430',1370.273
'0:06.434',1372.368
'0:06.438',1374.630
'0:06.441',1376.939
'0:06.445',1379.164
'0:06.449',1381.160
'0:06.453',1382.844
'0:06.457',1384.209
'0:06.461',1385.304
'0:06.465',1386.205
'0:06.469',1386.992
'0:06.473',1387.738
'0:06.477',1388.504
'0:06.480',1389.301
'0:06.484',1390.057
'0:06.488',1390.682
'0:06.492',1391.162
'0:06.496',1391.526
'0:06.500',1391.766
'0:06.504',1391.818
'0:06.508',1391.652
'0:06.512',1391.287
'0:06.516',1390.729
'0:06.520',1390.104
'0:06.523',1389.562
'0:06.527',1389.207
'0:06.531',1389.150
'0:06.535',1389.520
'0:06.539',1390.375
'0:06.543',1391.589
'0:06.547',1392.986
'0:06.551',1394.476
'0:06.555',1395.951
'0:06.559',1397.223
'0:06.563',1398.083
'0:06.566',1398.406
'0:06.570',1398.166
'0:06.574',1397.483
'0:06.578',1396.571
'0:06.582',1395.586
'0:06.586',1394.539
'0:06.590',1393.418
'0:06.594',1392.334
'0:06.598',1391.443
'0:06.602',1390.854
'0:06.605',1390.687
'0:06.609',1391.099
'0:06.613',1392.183
'0:06.617',1393.840
'0:06.621',1395.784
'0:06.625',1397.650
'0:06.629',1399.167
'0:06.633',1400.319
'0:06.637',1401.215
'0:06.641',1401.919
'0:06.645',1402.320
'0:06.648',1402.299
'0:06.652',1401.913
'0:06.656',1401.356
'0:06.660',1400.772
'0:06.664',1400.173
'0:06.668',1399.553
'0:06.672',1399.011
'0:06.676',1398.635
'0:06.680',1398.333
'0:06.684',1397.874
'0:06.688',1397.093
'0:06.691',1396.014
'0:06.695',1394.810
'0:06.699',1393.710
'0:06.703',1392.824
'0:06.707',1392.110
'0:06.711',1391.485
'0:06.715',1390.828
'0:06.719',1390.041
'0:06.723',1389.040
'0:06.727',1387.821
'0:06.730',1386.409
'0:06.734',1384.829
'0:06.738',1383.083
'0:06.742',1381.072
'0:06.746',1378.747
'0:06.750',1376.319
'0:06.754',1374.208
'0:06.758',1372.806
'0:06.762',1372.337
'0:06.766',1372.811
'0:06.770',1374.098
'0:06.773',1375.990
'0:06.777',1378.216
'0:06.781',1380.425
'0:06.785',1382.192
'0:06.789',1383.089
'0:06.793',1382.786
'0:06.797',1381.166
'0:06.801',1378.377
'0:06.805',1374.781
'0:06.809',1370.893
'0:06.813',1367.203
'0:06.816',1364.092
'0:06.820',1361.783
'0:06.824',1360.366
'0:06.828',1359.855
'0:06.832',1360.225
'0:06.836',1361.408
'0:06.840',1363.310
'0:06.844',1365.817
'0:06.848',1368.814
'0:06.852',1372.118
'0:06.855',1375.485
'0:06.859',1378.659
'0:06.863',1381.322
'0:06.867',1383.172
'0:06.871',1384.126
'0:06.875',1384.428
'0:06.879',1384.475
'0:06.883',1384.538
'0:06.887',1384.668
'0:06.891',1384.767
'0:06.895',1384.652
'0:06.898',1384.048
'0:06.902',1382.698
'0:06.906',1380.634
'0:06.910',1378.221
'0:06.914',1375.949
'0:06.918',1374.192
'0:06.922',1373.072
'0:06.926',1372.467
'0:06.930',1372.227
'0:06.934',1372.379
'0:06.938',1373.067
'0:06.941',1374.338
'0:06.945',1376.016
'0:06.949',1377.747
'0:06.953',1379.164
'0:06.957',1380.165
'0:06.961',1380.848
'0:06.965',1381.254
'0:06.969',1381.207
'0:06.973',1380.425
'0:06.977',1378.763
'0:06.980',1376.366
'0:06.984',1373.671
'0:06.988',1371.248
'0:06.992',1369.679
'0:06.996',1369.345
'0:07.000',1370.435
'0:07.004',1372.900
'0:07.008',1376.412
'0:07.012',1380.353
'0:07.016',1383.943
'0:07.020',1386.513
'0:07.023',1387.644
'0:07.027',1387.258
'0:07.031',1385.569
'0:07.035',1383.031
'0:07.039',1380.123
'0:07.043',1377.184
'0:07.047',1374.401
'0:07.051',1371.977
'0:07.055',1370.195
'0:07.059',1369.283
'0:07.063',1369.335
'0:07.066',1370.283
'0:07.070',1371.920
'0:07.074',1373.953
'0:07.078',1376.167
'0:07.082',1378.471
'0:07.086',1380.842
'0:07.090',1383.250
'0:07.094',1385.648
'0:07.098',1387.993
'0:07.102',1390.192
'0:07.105',1392.136
'0:07.109',1393.794
'0:07.113',1395.190
'0:07.117',1396.342
'0:07.121',1397.202
'0:07.125',1397.807
'0:07.129',1398.291
'0:07.133',1398.828
'0:07.137',1399.448
'0:07.141',1400.001
'0:07.145',1400.345
'0:07.148',1400.454
'0:07.152',1400.433
'0:07.156',1400.428
'0:07.160',1400.522
'0:07.164',1400.710
'0:07.168',1400.918
'0:07.172',1401.007
'0:07.176',1400.923
'0:07.180',1400.741
'0:07.184',1400.590
'0:07.188',1400.496
'0:07.191',1400.397
'0:07.195',1400.261
'0:07.199',1400.110
'0:07.203',1399.969
'0:07.207',1399.876
'0:07.211',1399.777
'0:07.215',1399.553
'0:07.219',1399.099
'0:07.223',1398.369
'0:07.227',1397.416
'0:07.230',1396.316
'0:07.234',1395.159
'0:07.238',1394.002
'0:07.242',1392.975
'0:07.246',1392.282
'0:07.250',1392.147
'0:07.254',1392.657
'0:07.258',1393.741
'0:07.262',1395.143
'0:07.266',1396.582
'0:07.270',1397.890
'0:07.273',1398.938
'0:07.277',1399.605
'0:07.281',1399.891
'0:07.285',1399.907
'0:07.289',1399.855
'0:07.293',1399.891
'0:07.297',1400.089
'0:07.301',1400.423
'0:07.305',1400.835
'0:07.309',1401.272
'0:07.313',1401.569
'0:07.316',1401.481
'0:07.320',1400.840
'0:07.324',1399.646
'0:07.328',1397.921
'0:07.332',1395.623
'0:07.336',1392.824
'0:07.340',1389.859
'0:07.344',1387.175
'0:07.348',1385.153
'0:07.352',1383.980
'0:07.355',1383.657
'0:07.359',1384.027
'0:07.363',1384.814
'0:07.367',1385.752
'0:07.371',1386.721
'0:07.375',1387.722
'0:07.379',1388.681
'0:07.383',1389.494
'0:07.387',1390.104
'0:07.391',1390.448
'0:07.395',1390.422
'0:07.398',1389.963
'0:07.402',1389.207
'0:07.406',1388.415
'0:07.410',1387.779
'0:07.414',1387.321
'0:07.418',1387.013
'0:07.422',1386.909
'0:07.426',1387.076
'0:07.430',1387.404
'0:07.434',1387.618
'0:07.438',1387.430
'0:07.441',1386.732
'0:07.445',1385.637
'0:07.449',1384.339
'0:07.453',1383.047
'0:07.457',1381.895
'0:07.461',1380.931
'0:07.465',1380.170
'0:07.469',1379.649
'0:07.473',1379.420
'0:07.477',1379.467
'0:07.480',1379.685
'0:07.484',1379.842
'0:07.488',1379.701
'0:07.492',1379.185
'0:07.496',1378.429
'0:07.500',1377.658
'0:07.504',1377.100
'0:07.508',1376.902
'0:07.512',1377.173
'0:07.516',1377.945
'0:07.520',1379.128
'0:07.523',1380.467
'0:07.527',1381.629
'0:07.531',1382.296
'0:07.535',1382.260
'0:07.539',1381.546
'0:07.543',1380.405
'0:07.547',1379.086
'0:07.551',1377.757
'0:07.555',1376.558
'0:07.559',1375.589
'0:07.563',1374.854
'0:07.566',1374.323
'0:07.570',1373.937
'0:07.574',1373.661
'0:07.578',1373.520
'0:07.582',1373.468
'0:07.586',1373.421
'0:07.590',1373.306
'0:07.594',1373.103
'0:07.598',1372.827
'0:07.602',1372.540
'0:07.605',1372.363
'0:07.609',1372.394
'0:07.613',1372.670
'0:07.617',1373.171
'0:07.621',1373.838
'0:07.625',1374.562
'0:07.629',1375.162
'0:07.633',1375.433
'0:07.637',1375.302
'0:07.641',1374.823
'0:07.645',1374.151
'0:07.648',1373.473
'0:07.652',1372.967
'0:07.656',1372.712
'0:07.660',1372.597
'0:07.664',1372.358
'0:07.668',1371.764
'0:07.672',1370.815
'0:07.676',1369.731
'0:07.680',1368.741
'0:07.684',1367.912
'0:07.688',1367.162
'0:07.691',1366.396
'0:07.695',1365.624
'0:07.699',1364.952
'0:07.703',1364.467
'0:07.707',1364.207
'0:07.711',1364.134
'0:07.715',1364.201
'0:07.719',1364.337
'0:07.723',1364.524
'0:07.727',1364.832
'0:07.730',1365.332
'0:07.734',1366.098
'0:07.738',1367.167
'0:07.742',1368.532
'0:07.746',1370.190
'0:07.750',1372.139
'0:07.754',1374.380
'0:07.758',1376.897
'0:07.762',1379.659
'0:07.766',1382.588
'0:07.770',1385.580
'0:07.773',1388.545
'0:07.777',1391.370
'0:07.781',1393.825
'0:07.785',1395.696
'0:07.789',1397.014
'0:07.793',1398.072
'0:07.797',1399.209
'0:07.801',1400.558
'0:07.805',1402.007
'0:07.809',1403.326
'0:07.813',1404.368
'0:07.816',1405.103
'0:07.820',1405.494
'0:07.824',1405.457
'0:07.828',1405.035
'0:07.832',1404.410
'0:07.836',1403.774
'0:07.840',1403.253
'0:07.844',1402.935
'0:07.848',1402.831
'0:07.852',1402.904
'0:07.855',1403.065
'0:07.859',1403.201
'0:07.863',1403.201
'0:07.867',1403.024
'0:07.871',1402.674
'0:07.875',1402.117
'0:07.879',1401.246
'0:07.883',1400.011
'0:07.887',1398.573
'0:07.891',1397.233
'0:07.895',1396.269
'0:07.898',1395.748
'0:07.902',1395.612
'0:07.906',1395.790
'0:07.910',1396.243
'0:07.914',1396.957
'0:07.918',1397.869
'0:07.922',1398.865
'0:07.926',1399.844
'0:07.930',1400.814
'0:07.934',1401.861
'0:07.938',1403.018
'0:07.941',1404.311
'0:07.945',1405.843
'0:07.949',1407.719
'0:07.953',1409.783
'0:07.957',1411.633
'0:07.961',1412.863
'0:07.965',1413.259
'0:07.969',1412.816
'0:07.973',1411.670
'0:07.977',1409.981
'0:07.980',1407.886
'0:07.984',1405.562
'0:07.988',1403.206
'0:07.992',1401.012
'0:07.996',1399.057
'0:08.000',1397.327
'0:08.004',1395.821
'0:08.008',1394.653
'0:08.012',1393.945
'0:08.016',1393.674
'0:08.020',1393.783
'0:08.023',1394.231
'0:08.027',1394.966
'0:08.031',1395.790
'0:08.035',1396.504
'0:08.039',1397.035
'0:08.043',1397.384
'0:08.047',1397.452
'0:08.051',1397.025
'0:08.055',1395.998
'0:08.059',1394.539
'0:08.063',1392.996
'0:08.066',1391.693
'0:08.070',1390.766
'0:08.074',1390.255
'0:08.078',1390.270
'0:08.082',1390.927
'0:08.086',1392.157
'0:08.090',1393.747
'0:08.094',1395.440
'0:08.098',1397.030
'0:08.102',1398.302
'0:08.105',1399.073
'0:08.109',1399.235
'0:08.113',1398.875
'0:08.117',1398.218
'0:08.121',1397.442
'0:08.125',1396.618
'0:08.129',1395.852
'0:08.133',1395.227
'0:08.137',1394.784
'0:08.141',1394.539
'0:08.145',1394.450
'0:08.148',1394.377
'0:08.152',1394.174
'0:08.156',1393.747
'0:08.160',1393.111
'0:08.164',1392.501
'0:08.168',1392.366
'0:08.172',1393.095
'0:08.176',1394.789
'0:08.180',1397.124
'0:08.184',1399.521
'0:08.188',1401.403
'0:08.191',1402.372
'0:08.195',1402.304
'0:08.199',1401.267
'0:08.203',1399.526
'0:08.207',1397.478
'0:08.211',1395.461
'0:08.215',1393.585
'0:08.219',1391.756
'0:08.223',1389.848
'0:08.227',1387.842
'0:08.230',1385.840
'0:08.234',1384.058
'0:08.238',1382.667
'0:08.242',1381.754
'0:08.246',1381.228
'0:08.250',1380.921
'0:08.254',1380.691
'0:08.258',1380.504
'0:08.262',1380.405
'0:08.266',1380.441
'0:08.270',1380.665
'0:08.273',1381.082
'0:08.277',1381.598
'0:08.281',1382.093
'0:08.285',1382.531
'0:08.289',1382.922
'0:08.293',1383.271
'0:08.297',1383.568
'0:08.301',1383.709
'0:08.305',1383.558
'0:08.309',1383.042
'0:08.313',1382.203
'0:08.316',1381.223
'0:08.320',1380.300
'0:08.324',1379.508
'0:08.328',1378.836
'0:08.332',1378.310
'0:08.336',1377.945
'0:08.340',1377.721
'0:08.344',1377.705
'0:08.348',1377.971
'0:08.352',1378.461
'0:08.355',1379.060
'0:08.359',1379.727
'0:08.363',1380.478
'0:08.367',1381.275
'0:08.371',1382.031
'0:08.375',1382.739
'0:08.379',1383.469
'0:08.383',1384.178
'0:08.387',1384.642
'0:08.391',1384.548
'0:08.395',1383.771
'0:08.398',1382.468
'0:08.402',1380.978
'0:08.406',1379.566
'0:08.410',1378.351
'0:08.414',1377.356
'0:08.418',1376.590
'0:08.422',1376.053
'0:08.426',1375.771
'0:08.430',1375.792
'0:08.434',1376.141
'0:08.438',1376.772
'0:08.441',1377.538
'0:08.445',1378.237
'0:08.449',1378.669
'0:08.453',1378.706
'0:08.457',1378.336
'0:08.461',1377.762
'0:08.465',1377.288
'0:08.469',1377.220
'0:08.473',1377.747
'0:08.477',1378.924
'0:08.480',1380.670
'0:08.484',1382.776
'0:08.488',1384.887
'0:08.492',1386.617
'0:08.496',1387.727
'0:08.500',1388.248
'0:08.504',1388.342
'0:08.508',1388.108
'0:08.512',1387.529
'0:08.516',1386.669
'0:08.520',1385.794
'0:08.523',1385.210
'0:08.527',1385.116
'0:08.531',1385.528
'0:08.535',1386.341
'0:08.539',1387.409
'0:08.543',1388.519
'0:08.547',1389.405
'0:08.551',1389.728
'0:08.555',1389.197
'0:08.559',1387.732
'0:08.563',1385.528
'0:08.566',1382.990
'0:08.570',1380.493
'0:08.574',1378.273
'0:08.578',1376.412
'0:08.582',1374.938
'0:08.586',1373.916
'0:08.590',1373.468
'0:08.594',1373.687
'0:08.598',1374.620
'0:08.602',1376.194
'0:08.605',1378.237
'0:08.609',1380.462
'0:08.613',1382.557
'0:08.617',1384.267
'0:08.621',1385.465
'0:08.625',1386.101
'0:08.629',1386.169
'0:08.633',1385.773
'0:08.637',1385.111
'0:08.641',1384.366
'0:08.645',1383.610
'0:08.648',1382.906
'0:08.652',1382.375
'0:08.656',1382.057
'0:08.660',1381.817
'0:08.664',1381.395
'0:08.668',1380.670
'0:08.672',1379.826
'0:08.676',1379.242
'0:08.680',1379.242
'0:08.684',1379.925
'0:08.688',1381.134
'0:08.691',1382.573
'0:08.695',1383.933
'0:08.699',1384.986
'0:08.703',1385.648
'0:08.707',1385.986
'0:08.711',1386.174
'0:08.715',1386.320
'0:08.719',1386.482
'0:08.723',1386.695
'0:08.727',1386.940
'0:08.730',1387.185
'0:08.734',1387.404
'0:08.738',1387.607
'0:08.742',1387.831
'0:08.746',1388.024
'0:08.750',1388.061
'0:08.754',1387.873
'0:08.758',1387.498
'0:08.762',1387.034
'0:08.766',1386.612
'0:08.770',1386.304
'0:08.773',1386.059
'0:08.777',1385.830
'0:08.781',1385.668
'0:08.785',1385.715
'0:08.789',1386.065
'0:08.793',1386.737
'0:08.797',1387.586
'0:08.801',1388.399
'0:08.805',1388.952
'0:08.809',1389.139
'0:08.813',1388.988
'0:08.816',1388.535
'0:08.820',1387.779
'0:08.824',1386.768
'0:08.828',1385.622
'0:08.832',1384.496
'0:08.836',1383.469
'0:08.840',1382.557
'0:08.844',1381.734
'0:08.848',1381.009
'0:08.852',1380.368
'0:08.855',1379.784
'0:08.859',1379.237
'0:08.863',1378.747
'0:08.867',1378.330
'0:08.871',1378.023
'0:08.875',1377.903
'0:08.879',1378.018
'0:08.883',1378.330
'0:08.887',1378.747
'0:08.891',1379.128
'0:08.895',1379.310
'0:08.898',1379.232
'0:08.902',1378.867
'0:08.906',1378.242
'0:08.910',1377.481
'0:08.914',1376.777
'0:08.918',1376.277
'0:08.922',1376.084
'0:08.926',1376.199
'0:08.930',1376.579
'0:08.934',1377.158
'0:08.938',1377.825
'0:08.941',1378.419
'0:08.945',1378.940
'0:08.949',1379.560
'0:08.953',1380.379
'0:08.957',1381.311
'0:08.961',1382.192
'0:08.965',1382.922
'0:08.969',1383.474
'0:08.973',1383.870
'0:08.977',1384.100
'0:08.980',1384.167
'0:08.984',1384.048
'0:08.988',1383.683
'0:08.992',1383.010
'0:08.996',1382.020
'0:09.000',1380.759
'0:09.004',1379.341
'0:09.008',1377.893
'0:09.012',1376.600
'0:09.016',1375.735
'0:09.020',1375.547
'0:09.023',1376.147
'0:09.027',1377.460
'0:09.031',1379.274
'0:09.035',1381.311
'0:09.039',1383.375
'0:09.043',1385.450
'0:09.047',1387.581
'0:09.051',1389.765
'0:09.055',1391.954
'0:09.059',1394.085
'0:09.063',1396.165
'0:09.066',1398.192
'0:09.070',1400.105
'0:09.074',1401.804
'0:09.078',1403.169
'0:09.082',1404.071
'0:09.086',1404.373
'0:09.090',1404.055
'0:09.094',1403.248
'0:09.098',1402.132
'0:09.102',1400.913
'0:09.105',1399.834
'0:09.109',1399.057
'0:09.113',1398.635
'0:09.117',1398.604
'0:09.121',1399.026
'0:09.125',1399.855
'0:09.129',1400.814
'0:09.133',1401.465
'0:09.137',1401.392
'0:09.141',1400.329
'0:09.145',1398.317
'0:09.148',1395.680
'0:09.152',1392.934
'0:09.156',1390.594
'0:09.160',1389.020
'0:09.164',1388.384
'0:09.168',1388.712
'0:09.172',1389.885
'0:09.176',1391.599
'0:09.180',1393.481
'0:09.184',1395.222
'0:09.188',1396.639
'0:09.191',1397.556
'0:09.195',1397.838
'0:09.199',1397.588
'0:09.203',1397.087
'0:09.207',1396.545
'0:09.211',1395.977
'0:09.215',1395.352
'0:09.219',1394.711
'0:09.223',1394.143
'0:09.227',1393.752
'0:09.230',1393.575
'0:09.234',1393.580
'0:09.238',1393.668
'0:09.242',1393.653
'0:09.246',1393.314
'0:09.250',1392.558
'0:09.254',1391.490
'0:09.258',1390.406
'0:09.262',1389.619
'0:09.266',1389.233
'0:09.270',1389.155
'0:09.273',1389.212
'0:09.277',1389.374
'0:09.281',1389.655
'0:09.285',1389.963
'0:09.289',1390.166
'0:09.293',1390.234
'0:09.297',1390.234
'0:09.301',1390.229
'0:09.305',1390.333
'0:09.309',1390.677
'0:09.313',1391.318
'0:09.316',1392.214
'0:09.320',1393.382
'0:09.324',1394.867
'0:09.328',1396.545
'0:09.332',1398.078
'0:09.336',1399.078
'0:09.340',1399.334
'0:09.344',1398.943
'0:09.348',1398.234
'0:09.352',1397.546
'0:09.355',1397.056
'0:09.359',1396.811
'0:09.363',1396.790
'0:09.367',1396.853
'0:09.371',1396.754
'0:09.375',1396.274
'0:09.379',1395.310
'0:09.383',1393.825
'0:09.387',1391.902
'0:09.391',1389.817
'0:09.395',1387.993
'0:09.398',1386.810
'0:09.402',1386.476
'0:09.406',1386.961
'0:09.410',1388.009
'0:09.414',1389.223
'0:09.418',1390.302
'0:09.422',1391.172
'0:09.426',1391.912
'0:09.430',1392.517
'0:09.434',1392.855
'0:09.438',1392.850
'0:09.441',1392.538
'0:09.445',1391.964
'0:09.449',1391.167
'0:09.453',1390.307
'0:09.457',1389.619
'0:09.461',1389.296
'0:09.465',1389.447
'0:09.469',1390.130
'0:09.473',1391.261
'0:09.477',1392.595
'0:09.480',1393.924
'0:09.484',1395.175
'0:09.488',1396.321
'0:09.492',1397.134
'0:09.496',1397.233
'0:09.500',1396.326
'0:09.504',1394.393
'0:09.508',1391.678
'0:09.512',1388.613
'0:09.516',1385.731
'0:09.520',1383.412
'0:09.523',1381.744
'0:09.527',1380.556
'0:09.531',1379.576
'0:09.535',1378.659
'0:09.539',1377.794
'0:09.543',1376.986
'0:09.547',1376.199
'0:09.551',1375.386
'0:09.555',1374.567
'0:09.559',1373.843
'0:09.563',1373.275
'0:09.566',1372.832
'0:09.570',1372.509
'0:09.574',1372.368
'0:09.578',1372.483
'0:09.582',1372.853
'0:09.586',1373.400
'0:09.590',1373.999
'0:09.594',1374.521
'0:09.598',1374.917
'0:09.602',1375.146
'0:09.605',1375.209
'0:09.609',1375.156
'0:09.613',1375.094
'0:09.617',1375.125
'0:09.621',1375.344
'0:09.625',1375.787
'0:09.629',1376.397
'0:09.633',1377.090
'0:09.637',1377.741
'0:09.641',1378.174
'0:09.645',1378.205
'0:09.648',1377.757
'0:09.652',1376.829
'0:09.656',1375.469
'0:09.660',1373.895
'0:09.664',1372.509
'0:09.668',1371.706
'0:09.672',1371.691
'0:09.676',1372.478
'0:09.680',1373.932
'0:09.684',1375.803
'0:09.688',1377.778
'0:09.691',1379.534
'0:09.695',1380.853
'0:09.699',1381.812
'0:09.703',1382.724
'0:09.707',1383.964
'0:09.711',1385.705
'0:09.715',1387.863
'0:09.719',1390.109
'0:09.723',1392.022
'0:09.727',1393.278
'0:09.730',1393.794
'0:09.734',1393.726
'0:09.738',1393.314
'0:09.742',1392.746
'0:09.746',1392.079
'0:09.750',1391.229
'0:09.754',1390.125
'0:09.758',1388.863
'0:09.762',1387.738
'0:09.766',1387.076
'0:09.770',1387.086
'0:09.773',1387.904
'0:09.777',1389.556
'0:09.781',1391.959
'0:09.785',1394.909
'0:09.789',1398.072
'0:09.793',1401.080
'0:09.797',1403.670
'0:09.801',1405.723
'0:09.805',1407.198
'0:09.809',1408.074
'0:09.813',1408.324
'0:09.816',1407.870
'0:09.820',1406.568
'0:09.824',1404.295
'0:09.828',1401.095
'0:09.832',1397.259
'0:09.836',1393.304
'0:09.840',1389.812
'0:09.844',1387.196
'0:09.848',1385.559
'0:09.852',1384.704
'0:09.855',1384.251
'0:09.859',1383.829
'0:09.863',1383.214
'0:09.867',1382.286
'0:09.871',1380.994
'0:09.875',1379.310
'0:09.879',1377.382
'0:09.883',1375.537
'0:09.887',1374.151
'0:09.891',1373.499
'0:09.895',1373.749
'0:09.898',1374.948
'0:09.902',1376.991
'0:09.906',1379.586
'0:09.910',1382.265
'0:09.914',1384.475
'0:09.918',1385.778
'0:09.922',1385.976
'0:09.926',1385.100
'0:09.930',1383.308
'0:09.934',1380.853
'0:09.938',1378.106
'0:09.941',1375.500
'0:09.945',1373.379
'0:09.949',1371.972
'0:09.953',1371.383
'0:09.957',1371.680
'0:09.961',1372.900
'0:09.965',1375.068
'0:09.969',1378.111
'0:09.973',1381.812
'0:09.977',1385.767
'0:09.980',1389.400
'0:09.984',1392.147
'0:09.988',1393.648
'0:09.992',1393.898
'0:09.996',1393.231
'0:10.000',1392.141
'0:10.004',1391.063
'0:10.008',1390.302
'0:10.012',1390.083
'0:10.016',1390.510
'0:10.020',1391.464
'0:10.023',1392.631
'0:10.027',1393.695
'0:10.031',1394.497
'0:10.035',1395.029
'0:10.039',1395.315
'0:10.043',1395.414
'0:10.047',1395.409
'0:10.051',1395.373
'0:10.055',1395.409
'0:10.059',1395.628
'0:10.063',1396.050
'0:10.066',1396.540
'0:10.070',1396.941
'0:10.074',1397.176
'0:10.078',1397.223
'0:10.082',1397.155
'0:10.086',1397.093
'0:10.090',1397.129
'0:10.094',1397.322
'0:10.098',1397.718
'0:10.102',1398.359
'0:10.105',1399.203
'0:10.109',1400.022
'0:10.113',1400.412
'0:10.117',1400.032
'0:10.121',1398.750
'0:10.125',1396.650
'0:10.129',1394.012
'0:10.133',1391.323
'0:10.137',1389.061
'0:10.141',1387.477
'0:10.145',1386.513
'0:10.148',1385.903
'0:10.152',1385.403
'0:10.156',1384.923
'0:10.160',1384.439
'0:10.164',1383.928
'0:10.168',1383.328
'0:10.172',1382.557
'0:10.176',1381.556
'0:10.180',1380.321
'0:10.184',1378.924
'0:10.188',1377.512
'0:10.191',1376.199
'0:10.195',1374.979
'0:10.199',1373.765
'0:10.203',1372.545
'0:10.207',1371.435
'0:10.211',1370.581
'0:10.215',1370.070
'0:10.219',1369.929
'0:10.223',1370.132
'0:10.227',1370.617
'0:10.230',1371.284
'0:10.234',1371.972
'0:10.238',1372.519
'0:10.242',1372.801
'0:10.246',1372.723
'0:10.250',1372.253
'0:10.254',1371.493
'0:10.258',1370.617
'0:10.262',1369.757
'0:10.266',1368.991
'0:10.270',1368.371
'0:10.273',1367.891
'0:10.277',1367.553
'0:10.281',1367.412
'0:10.285',1367.516
'0:10.289',1367.876
'0:10.293',1368.438
'0:10.297',1369.147
'0:10.301',1369.986
'0:10.305',1371.102
'0:10.309',1372.780
'0:10.313',1375.229
'0:10.316',1378.372
'0:10.320',1381.817
'0:10.324',1385.064
'0:10.328',1387.743
'0:10.332',1389.692
'0:10.336',1390.854
'0:10.340',1391.261
'0:10.344',1391.010
'0:10.348',1390.229
'0:10.352',1389.129
'0:10.355',1388.014
'0:10.359',1387.070
'0:10.363',1386.268
'0:10.367',1385.444
'0:10.371',1384.553
'0:10.375',1383.745
'0:10.379',1383.240
'0:10.383',1383.172
'0:10.387',1383.579
'0:10.391',1384.444
'0:10.395',1385.585
'0:10.398',1386.607
'0:10.402',1387.029
'0:10.406',1386.476
'0:10.410',1384.835
'0:10.414',1382.312
'0:10.418',1379.399
'0:10.422',1376.720
'0:10.426',1374.802
'0:10.430',1373.994
'0:10.434',1374.427
'0:10.438',1376.100
'0:10.441',1378.857
'0:10.445',1382.375
'0:10.449',1386.184
'0:10.453',1389.713
'0:10.457',1392.470
'0:10.461',1394.122
'0:10.465',1394.575
'0:10.469',1393.929
'0:10.473',1392.465
'0:10.477',1390.573
'0:10.480',1388.681
'0:10.484',1387.050
'0:10.488',1385.762
'0:10.492',1384.855
'0:10.496',1384.319
'0:10.500',1384.042
'0:10.504',1383.844
'0:10.508',1383.589
'0:10.512',1383.177
'0:10.516',1382.557
'0:10.520',1381.708
'0:10.523',1380.717
'0:10.527',1379.732
'0:10.531',1378.930
'0:10.535',1378.409
'0:10.539',1378.226
'0:10.543',1378.367
'0:10.547',1378.805
'0:10.551',1379.513
'0:10.555',1380.420
'0:10.559',1381.421
'0:10.563',1382.349
'0:10.566',1382.969
'0:10.570',1383.057
'0:10.574',1382.547
'0:10.578',1381.546
'0:10.582',1380.274
'0:10.586',1378.898
'0:10.590',1377.476
'0:10.594',1376.089
'0:10.598',1375.026
'0:10.602',1374.713
'0:10.605',1375.474
'0:10.609',1377.397
'0:10.613',1380.358
'0:10.617',1384.053
'0:10.621',1388.009
'0:10.625',1391.662
'0:10.629',1394.502
'0:10.633',1396.165
'0:10.637',1396.535
'0:10.641',1395.706
'0:10.645',1393.939
'0:10.648',1391.568
'0:10.652',1388.936
'0:10.656',1386.377
'0:10.660',1384.095
'0:10.664',1382.130
'0:10.668',1380.472
'0:10.672',1379.159
'0:10.676',1378.221
'0:10.680',1377.528
'0:10.684',1376.819
'0:10.688',1375.902
'0:10.691',1374.708
'0:10.695',1373.322
'0:10.699',1371.941
'0:10.703',1370.836
'0:10.707',1370.268
'0:10.711',1370.409
'0:10.715',1371.289
'0:10.719',1372.822
'0:10.723',1374.766
'0:10.727',1376.751
'0:10.730',1378.388
'0:10.734',1379.414
'0:10.738',1379.790
'0:10.742',1379.685
'0:10.746',1379.263
'0:10.750',1378.700
'0:10.754',1378.190
'0:10.758',1377.867
'0:10.762',1377.731
'0:10.766',1377.747
'0:10.770',1377.919
'0:10.773',1378.231
'0:10.777',1378.627
'0:10.781',1379.070
'0:10.785',1379.482
'0:10.789',1379.696
'0:10.793',1379.633
'0:10.797',1379.336
'0:10.801',1378.878
'0:10.805',1378.320
'0:10.809',1377.767
'0:10.813',1377.324
'0:10.816',1376.996
'0:10.820',1376.610
'0:10.824',1376.016
'0:10.828',1375.281
'0:10.832',1374.620
'0:10.836',1374.124
'0:10.840',1373.713
'0:10.844',1373.311
'0:10.848',1372.983
'0:10.852',1372.801
'0:10.855',1372.769
'0:10.859',1372.816
'0:10.863',1372.796
'0:10.867',1372.582
'0:10.871',1372.238
'0:10.875',1372.014
'0:10.879',1372.102
'0:10.883',1372.436
'0:10.887',1372.759
'0:10.891',1372.868
'0:10.895',1372.811
'0:10.898',1372.785
'0:10.902',1372.931
'0:10.906',1373.239
'0:10.910',1373.661
'0:10.914',1374.218
'0:10.918',1375.047
'0:10.922',1376.240
'0:10.926',1377.705
'0:10.930',1379.232
'0:10.934',1380.691
'0:10.938',1382.156
'0:10.941',1383.709
'0:10.945',1385.304
'0:10.949',1386.883
'0:10.953',1388.478
'0:10.957',1390.151
'0:10.961',1391.891
'0:10.965',1393.611
'0:10.969',1395.185
'0:10.973',1396.446
'0:10.977',1397.218
'0:10.980',1397.374
'0:10.984',1396.863
'0:10.988',1395.727
'0:10.992',1394.143
'0:10.996',1392.319
'0:11.000',1390.495
'0:11.004',1388.915
'0:11.008',1387.753
'0:11.012',1387.102
'0:11.016',1386.914
'0:11.020',1387.008
'0:11.023',1387.143
'0:11.027',1387.117
'0:11.031',1386.789
'0:11.035',1386.111
'0:11.039',1385.106
'0:11.043',1383.766
'0:11.047',1381.999
'0:11.051',1379.696
'0:11.055',1376.876
'0:11.059',1373.770
'0:11.063',1370.747
'0:11.066',1368.162
'0:11.070',1366.156
'0:11.074',1364.634
'0:11.078',1363.331
'0:11.082',1362.002
'0:11.086',1360.433
'0:11.090',1358.375
'0:11.094',1355.560
'0:11.098',1351.834
'0:11.102',1347.138
'0:11.105',1341.525
'0:11.109',1335.125
'0:11.113',1327.980
'0:11.117',1320.048
'0:11.121',1311.412
'0:11.125',1302.323
'0:11.129',1293.098
'0:11.133',1284.024
'0:11.137',1275.357
'0:11.141',1267.274
'0:11.145',1259.857
'0:11.148',1253.218
'0:11.152',1247.558
'0:11.156',1243.159
'0:11.160',1240.261
'0:11.164',1238.838
'0:11.168',1238.557
'0:11.172',1238.927
'0:11.176',1239.625
'0:11.180',1240.506
'0:11.184',1241.502
'0:11.188',1242.706
'0:11.191',1244.373
'0:11.195',1246.745
'0:11.199',1249.830
'0:11.203',1253.509
'0:11.207',1257.642
'0:11.211',1262.093
'0:11.215',1266.690
'0:11.219',1271.208
'0:11.223',1275.446
'0:11.227',1279.271
'0:11.230',1282.653
'0:11.234',1285.608
'0:11.238',1288.188
'0:11.242',1290.497
'0:11.246',1292.780
'0:11.250',1295.297
'0:11.254',1298.247
'0:11.258',1301.718
'0:11.262',1305.726
'0:11.266',1310.208
'0:11.270',1315.044
'0:11.273',1320.006
'0:11.277',1324.754
'0:11.281',1328.970
'0:11.285',1332.452
'0:11.289',1335.182
'0:11.293',1337.231
'0:11.297',1338.732
'0:11.301',1339.889
'0:11.305',1340.967
'0:11.309',1342.140
'0:11.313',1343.365
'0:11.316',1344.501
'0:11.320',1345.424
'0:11.324',1346.075
'0:11.328',1346.424
'0:11.332',1346.450
'0:11.336',1346.132
'0:11.340',1345.491
'0:11.344',1344.631
'0:11.348',1343.740
'0:11.352',1343.073
'0:11.355',1342.870
'0:11.359',1343.229
'0:11.363',1344.105
'0:11.367',1345.335
'0:11.371',1346.794
'0:11.375',1348.462
'0:11.379',1350.260
'0:11.383',1351.980
'0:11.387',1353.382
'0:11.391',1354.367
'0:11.395',1354.971
'0:11.398',1355.268
'0:11.402',1355.268
'0:11.406',1354.878
'0:11.410',1353.992
'0:11.414',1352.715
'0:11.418',1351.339
'0:11.422',1350.161
'0:11.426',1349.358
'0:11.430',1349.004
'0:11.434',1349.171
'0:11.438',1350.005
'0:11.441',1351.573
'0:11.445',1353.830
'0:11.449',1356.519
'0:11.453',1359.198
'0:11.457',1361.262
'0:11.461',1362.184
'0:11.465',1361.741
'0:11.469',1360.074
'0:11.473',1357.603
'0:11.477',1354.799
'0:11.480',1352.105
'0:11.484',1349.963
'0:11.488',1348.764
'0:11.492',1348.743
'0:11.496',1349.890
'0:11.500',1351.964
'0:11.504',1354.601
'0:11.508',1357.431
'0:11.512',1360.178
'0:11.516',1362.638
'0:11.520',1364.717
'0:11.523',1366.411
'0:11.527',1367.667
'0:11.531',1368.397
'0:11.535',1368.631
'0:11.539',1368.558
'0:11.543',1368.438
'0:11.547',1368.506
'0:11.551',1368.913
'0:11.555',1369.721
'0:11.559',1370.924
'0:11.563',1372.519
'0:11.566',1374.411
'0:11.570',1376.491
'0:11.574',1378.659
'0:11.578',1380.775
'0:11.582',1382.567
'0:11.586',1383.824
'0:11.590',1384.532
'0:11.594',1384.824
'0:11.598',1384.939
'0:11.602',1385.090
'0:11.605',1385.434
'0:11.609',1386.039
'0:11.613',1386.992
'0:11.617',1388.300
'0:11.621',1389.864
'0:11.625',1391.553
'0:11.629',1393.267
'0:11.633',1394.820
'0:11.637',1395.977
'0:11.641',1396.634
'0:11.645',1396.879
'0:11.648',1396.931
'0:11.652',1397.004
'0:11.656',1397.265
'0:11.660',1397.682
'0:11.664',1398.010
'0:11.668',1397.895
'0:11.672',1397.124
'0:11.676',1395.764
'0:11.680',1394.143
'0:11.684',1392.642
'0:11.688',1391.511
'0:11.691',1390.875
'0:11.695',1390.755
'0:11.699',1391.094
'0:11.703',1391.766
'0:11.707',1392.647
'0:11.711',1393.695
'0:11.715',1394.982
'0:11.719',1396.717
'0:11.723',1399.110
'0:11.727',1402.211
'0:11.730',1405.911
'0:11.734',1410.012
'0:11.738',1414.359
'0:11.742',1418.794
'0:11.746',1423.151
'0:11.750',1427.331
'0:11.754',1431.407
'0:11.758',1435.529
'0:11.762',1439.844
'0:11.766',1444.394
'0:11.770',1449.158
'0:11.773',1454.031
'0:11.777',1458.794
'0:11.781',1463.188
'0:11.785',1467.081
'0:11.789',1470.495
'0:11.793',1473.481
'0:11.797',1476.024
'0:11.801',1478.109
'0:11.805',1479.782
'0:11.809',1481.080
'0:11.813',1481.971
'0:11.816',1482.341
'0:11.820',1482.153
'0:11.824',1481.491
'0:11.828',1480.470
'0:11.832',1479.167
'0:11.836',1477.619
'0:11.840',1475.852
'0:11.844',1473.929
'0:11.848',1471.990
'0:11.852',1470.177
'0:11.855',1468.530
'0:11.859',1466.951
'0:11.863',1465.241
'0:11.867',1463.198
'0:11.871',1460.665
'0:11.875',1457.575
'0:11.879',1454.026
'0:11.883',1450.289
'0:11.887',1446.729
'0:11.891',1443.670
'0:11.895',1441.309
'0:11.898',1439.678
'0:11.902',1438.609
'0:11.906',1437.760
'0:11.910',1436.733
'0:11.914',1435.263
'0:11.918',1433.314
'0:11.922',1430.922
'0:11.926',1428.108
'0:11.930',1424.960
'0:11.934',1421.650
'0:11.938',1418.440
'0:11.941',1415.667
'0:11.945',1413.629
'0:11.949',1412.498
'0:11.953',1412.259
'0:11.957',1412.754
'0:11.961',1413.702
'0:11.965',1414.870
'0:11.969',1416.141
'0:11.973',1417.450
'0:11.977',1418.758
'0:11.980',1420.050
'0:11.984',1421.265
'0:11.988',1422.276
'0:11.992',1422.859
'0:11.996',1422.823
'0:12.000',1422.109
'0:12.004',1420.905
'0:12.008',1419.524
'0:12.012',1418.111
'0:12.016',1416.532
'0:12.020',1414.510
'0:12.023',1411.941
'0:12.027',1409.012
'0:12.031',1406.140
'0:12.035',1403.732
'0:12.039',1401.992
'0:12.043',1400.861
'0:12.047',1400.027
'0:12.051',1399.011
'0:12.055',1397.411
'0:12.059',1395.138
'0:12.063',1392.475
'0:12.066',1389.869
'0:12.070',1387.717
'0:12.074',1386.237
'0:12.078',1385.507
'0:12.082',1385.549
'0:12.086',1386.304
'0:12.090',1387.639
'0:12.094',1389.322
'0:12.098',1391.052
'0:12.102',1392.527
'0:12.105',1393.601
'0:12.109',1394.289
'0:12.113',1394.711
'0:12.117',1394.945
'0:12.121',1394.992
'0:12.125',1394.825
'0:12.129',1394.398
'0:12.133',1393.700
'0:12.137',1392.736
'0:12.141',1391.599
'0:12.145',1390.380
'0:12.148',1389.113
'0:12.152',1387.680
'0:12.156',1385.960
'0:12.160',1383.980
'0:12.164',1381.859
'0:12.168',1379.753
'0:12.172',1377.840
'0:12.176',1376.313
'0:12.180',1375.297
'0:12.184',1374.844
'0:12.188',1374.922
'0:12.191',1375.526
'0:12.195',1376.683
'0:12.199',1378.398
'0:12.203',1380.577
'0:12.207',1382.995
'0:12.211',1385.298
'0:12.215',1387.044
'0:12.219',1387.826
'0:12.223',1387.487
'0:12.227',1386.252
'0:12.230',1384.642
'0:12.234',1383.198
'0:12.238',1382.343
'0:12.242',1382.323
'0:12.246',1383.182
'0:12.250',1384.814
'0:12.254',1386.951
'0:12.258',1389.306
'0:12.262',1391.683
'0:12.266',1394.059
'0:12.270',1396.399
'0:12.273',1398.489
'0:12.277',1400.027
'0:12.281',1400.829
'0:12.285',1400.908
'0:12.289',1400.350
'0:12.293',1399.203
'0:12.297',1397.551
'0:12.301',1395.597
'0:12.305',1393.575
'0:12.309',1391.688
'0:12.313',1390.010
'0:12.316',1388.446
'0:12.320',1386.872
'0:12.324',1385.215
'0:12.328',1383.526
'0:12.332',1381.921
'0:12.336',1380.509
'0:12.340',1379.373
'0:12.344',1378.565
'0:12.348',1378.127
'0:12.352',1378.054
'0:12.355',1378.356
'0:12.359',1379.008
'0:12.363',1380.003
'0:12.367',1381.317
'0:12.371',1382.938
'0:12.375',1384.782
'0:12.379',1386.680
'0:12.383',1388.353
'0:12.387',1389.546
'0:12.391',1390.151
'0:12.395',1390.229
'0:12.398',1389.906
'0:12.402',1389.223
'0:12.406',1388.222
'0:12.410',1387.003
'0:12.414',1385.684
'0:12.418',1384.339
'0:12.422',1383.031
'0:12.426',1381.775
'0:12.430',1380.571
'0:12.434',1379.425
'0:12.438',1378.257
'0:12.441',1376.835
'0:12.445',1374.906
'0:12.449',1372.394
'0:12.453',1369.434
'0:12.457',1366.323
'0:12.461',1363.404
'0:12.465',1360.845
'0:12.469',1358.682
'0:12.473',1356.848
'0:12.477',1355.201
'0:12.480',1353.559
'0:12.484',1351.766
'0:12.488',1349.801
'0:12.492',1347.753
'0:12.496',1345.799
'0:12.500',1344.027
'0:12.504',1342.359
'0:12.508',1340.618
'0:12.512',1338.659
'0:12.516',1336.522
'0:12.520',1334.422
'0:12.523',1332.551
'0:12.527',1330.893
'0:12.531',1329.205
'0:12.535',1327.104
'0:12.539',1324.217
'0:12.543',1320.345
'0:12.547',1315.487
'0:12.551',1309.775
'0:12.555',1303.354
'0:12.559',1296.345
'0:12.563',1288.887
'0:12.566',1281.225
'0:12.570',1273.731
'0:12.574',1266.846
'0:12.578',1260.926
'0:12.582',1256.162
'0:12.586',1252.639
'0:12.590',1250.388
'0:12.594',1249.298
'0:12.598',1249.142
'0:12.602',1249.674
'0:12.605',1250.690
'0:12.609',1252.045
'0:12.613',1253.754
'0:12.617',1255.896
'0:12.621',1258.481
'0:12.625',1261.473
'0:12.629',1264.975
'0:12.633',1269.202
'0:12.637',1274.231
'0:12.641',1279.891
'0:12.645',1285.843
'0:12.648',1291.717
'0:12.652',1297.236
'0:12.656',1302.187
'0:12.660',1306.408
'0:12.664',1309.796
'0:12.668',1312.392
'0:12.672',1314.320
'0:12.676',1315.711
'0:12.680',1316.676
'0:12.684',1317.311
'0:12.688',1317.744
'0:12.691',1318.213
'0:12.695',1319.021
'0:12.699',1320.381
'0:12.703',1322.346
'0:12.707',1324.879
'0:12.711',1327.896
'0:12.715',1331.248
'0:12.719',1334.677
'0:12.723',1337.924
'0:12.727',1340.816
'0:12.730',1343.203
'0:12.734',1344.981
'0:12.738',1346.153
'0:12.742',1346.820
'0:12.746',1347.117
'0:12.750',1347.159
'0:12.754',1346.977
'0:12.758',1346.481
'0:12.762',1345.627
'0:12.766',1344.444
'0:12.770',1342.995
'0:12.773',1341.306
'0:12.777',1339.347
'0:12.781',1337.095
'0:12.785',1334.703
'0:12.789',1332.436
'0:12.793',1330.534
'0:12.797',1329.158
'0:12.801',1328.360
'0:12.805',1328.147
'0:12.809',1328.438
'0:12.813',1329.106
'0:12.816',1329.986
'0:12.820',1330.982
'0:12.824',1332.170
'0:12.828',1333.692
'0:12.832',1335.667
'0:12.836',1338.122
'0:12.840',1340.999
'0:12.844',1344.095
'0:12.848',1347.070
'0:12.852',1349.598
'0:12.855',1351.584
'0:12.859',1353.215
'0:12.863',1354.706
'0:12.867',1356.081
'0:12.871',1357.197
'0:12.875',1357.958
'0:12.879',1358.416
'0:12.883',1358.687
'0:12.887',1358.891
'0:12.891',1359.073
'0:12.895',1359.235
'0:12.898',1359.349
'0:12.902',1359.407
'0:12.906',1359.401
'0:12.910',1359.417
'0:12.914',1359.594
'0:12.918',1360.089
'0:12.922',1360.960
'0:12.926',1362.101
'0:12.930',1363.347
'0:12.934',1364.551
'0:12.938',1365.572
'0:12.941',1366.281
'0:12.945',1366.588
'0:12.949',1366.484
'0:12.953',1366.067
'0:12.957',1365.483
'0:12.961',1364.806
'0:12.965',1364.045
'0:12.969',1363.248
'0:12.973',1362.523
'0:12.977',1362.002
'0:12.980',1361.747
'0:12.984',1361.715
'0:12.988',1361.840
'0:12.992',1362.028
'0:12.996',1362.169
'0:13.000',1362.200
'0:13.004',1362.153
'0:13.008',1362.138
'0:13.012',1362.320
'0:13.016',1362.836
'0:13.020',1363.696
'0:13.023',1364.816
'0:13.027',1366.083
'0:13.031',1367.391
'0:13.035',1368.637
'0:13.039',1369.773
'0:13.043',1370.810
'0:13.047',1371.711
'0:13.051',1372.389
'0:13.055',1372.754
'0:13.059',1372.728
'0:13.063',1372.326
'0:13.066',1371.644
'0:13.070',1370.799
'0:13.074',1369.872
'0:13.078',1368.918
'0:13.082',1368.001
'0:13.086',1367.167
'0:13.090',1366.458
'0:13.094',1365.880
'0:13.098',1365.358
'0:13.102',1364.827
'0:13.105',1364.233
'0:13.109',1363.467
'0:13.113',1362.471
'0:13.117',1361.361
'0:13.121',1360.449
'0:13.125',1360.006
'0:13.129',1360.131
'0:13.133',1360.710
'0:13.137',1361.585
'0:13.141',1362.690
'0:13.145',1363.967
'0:13.148',1365.338
'0:13.152',1366.672
'0:13.156',1367.808
'0:13.160',1368.564
'0:13.164',1368.876
'0:13.168',1368.835
'0:13.172',1368.584
'0:13.176',1368.246
'0:13.180',1367.902
'0:13.184',1367.636
'0:13.188',1367.490
'0:13.191',1367.480
'0:13.195',1367.579
'0:13.199',1367.719
'0:13.203',1367.782
'0:13.207',1367.740
'0:13.211',1367.657
'0:13.215',1367.693
'0:13.219',1367.933
'0:13.223',1368.366
'0:13.227',1368.960
'0:13.230',1369.684
'0:13.234',1370.414
'0:13.238',1370.982
'0:13.242',1371.321
'0:13.246',1371.477
'0:13.250',1371.550
'0:13.254',1371.602
'0:13.258',1371.597
'0:13.262',1371.456
'0:13.266',1371.237
'0:13.270',1371.091
'0:13.273',1371.164
'0:13.277',1371.566
'0:13.281',1372.405
'0:13.285',1373.812
'0:13.289',1375.797
'0:13.293',1378.132
'0:13.297',1380.431
'0:13.301',1382.343
'0:13.305',1383.652
'0:13.309',1384.246
'0:13.313',1384.048
'0:13.316',1383.021
'0:13.320',1381.265
'0:13.324',1379.175
'0:13.328',1377.293
'0:13.332',1376.042
'0:13.336',1375.547
'0:13.340',1375.678
'0:13.344',1376.121
'0:13.348',1376.600
'0:13.352',1376.975
'0:13.355',1377.257
'0:13.359',1377.424
'0:13.363',1377.470
'0:13.367',1377.429
'0:13.371',1377.335
'0:13.375',1377.111
'0:13.379',1376.647
'0:13.383',1375.761
'0:13.387',1374.369
'0:13.391',1372.592
'0:13.395',1370.716
'0:13.398',1369.074
'0:13.402',1367.912
'0:13.406',1367.339
'0:13.410',1367.302
'0:13.414',1367.610
'0:13.418',1367.923
'0:13.422',1367.902
'0:13.426',1367.396
'0:13.430',1366.526
'0:13.434',1365.556
'0:13.438',1364.754
'0:13.441',1364.337
'0:13.445',1364.452
'0:13.449',1365.124
'0:13.453',1366.312
'0:13.457',1367.891
'0:13.461',1369.658
'0:13.465',1371.409
'0:13.469',1373.040
'0:13.473',1374.526
'0:13.477',1375.782
'0:13.480',1376.689
'0:13.484',1377.184
'0:13.488',1377.262
'0:13.492',1376.881
'0:13.496',1376.016
'0:13.500',1374.818
'0:13.504',1373.624
'0:13.508',1372.769
'0:13.512',1372.467
'0:13.516',1372.842
'0:13.520',1373.916
'0:13.523',1375.631
'0:13.527',1377.799
'0:13.531',1380.233
'0:13.535',1382.781
'0:13.539',1385.356
'0:13.543',1387.837
'0:13.547',1390.005
'0:13.551',1391.558
'0:13.555',1392.324
'0:13.559',1392.256
'0:13.563',1391.318
'0:13.566',1389.510
'0:13.570',1387.044
'0:13.574',1384.360
'0:13.578',1381.926
'0:13.582',1380.050
'0:13.586',1378.810
'0:13.590',1378.143
'0:13.594',1377.955
'0:13.598',1378.190
'0:13.602',1378.753
'0:13.605',1379.529
'0:13.609',1380.384
'0:13.613',1381.155
'0:13.617',1381.593
'0:13.621',1381.452
'0:13.625',1380.702
'0:13.629',1379.607
'0:13.633',1378.674
'0:13.637',1378.403
'0:13.641',1379.076
'0:13.645',1380.660
'0:13.648',1382.833
'0:13.652',1385.111
'0:13.656',1387.107
'0:13.660',1388.660
'0:13.664',1389.734
'0:13.668',1390.338
'0:13.672',1390.484
'0:13.676',1390.166
'0:13.680',1389.374
'0:13.684',1388.113
'0:13.688',1386.539
'0:13.691',1384.871
'0:13.695',1383.240
'0:13.699',1381.593
'0:13.703',1379.831
'0:13.707',1377.997
'0:13.711',1376.272
'0:13.715',1374.745
'0:13.719',1373.327
'0:13.723',1371.982
'0:13.727',1370.799
'0:13.730',1369.840
'0:13.734',1369.043
'0:13.738',1368.319
'0:13.742',1367.657
'0:13.746',1367.083
'0:13.750',1366.656
'0:13.754',1366.463
'0:13.758',1366.484
'0:13.762',1366.547
'0:13.766',1366.500
'0:13.770',1366.270
'0:13.773',1365.853
'0:13.777',1365.249
'0:13.781',1364.530
'0:13.785',1363.831
'0:13.789',1363.237
'0:13.793',1362.779
'0:13.797',1362.419
'0:13.801',1362.101
'0:13.805',1361.825
'0:13.809',1361.658
'0:13.813',1361.684
'0:13.816',1361.919
'0:13.820',1362.315
'0:13.824',1362.794
'0:13.828',1363.321
'0:13.832',1363.878
'0:13.836',1364.478
'0:13.840',1365.129
'0:13.844',1365.822
'0:13.848',1366.531
'0:13.852',1367.240
'0:13.855',1367.923
'0:13.859',1368.569
'0:13.863',1369.205
'0:13.867',1369.856
'0:13.871',1370.492
'0:13.875',1371.029
'0:13.879',1371.425
'0:13.883',1371.774
'0:13.887',1372.175
'0:13.891',1372.545
'0:13.895',1372.712
'0:13.898',1372.587
'0:13.902',1372.201
'0:13.906',1371.659
'0:13.910',1371.107
'0:13.914',1370.659
'0:13.918',1370.372
'0:13.922',1370.252
'0:13.926',1370.195
'0:13.930',1370.038
'0:13.934',1369.689
'0:13.938',1369.090
'0:13.941',1368.230
'0:13.945',1367.188
'0:13.949',1366.093
'0:13.953',1365.061
'0:13.957',1364.186
'0:13.961',1363.576
'0:13.965',1363.321
'0:13.969',1363.373
'0:13.973',1363.638
'0:13.977',1364.092
'0:13.980',1364.759
'0:13.984',1365.624
'0:13.988',1366.578
'0:13.992',1367.474
'0:13.996',1368.095
'0:14.000',1368.110
'0:14.004',1367.276
'0:14.008',1365.635
'0:14.012',1363.539
'0:14.016',1361.528
'0:14.020',1360.063
'0:14.023',1359.365
'0:14.027',1359.344
'0:14.031',1359.751
'0:14.035',1360.355
'0:14.039',1361.116
'0:14.043',1362.007
'0:14.047',1362.857
'0:14.051',1363.399
'0:14.055',1363.508
'0:14.059',1363.175
'0:14.063',1362.429
'0:14.066',1361.439
'0:14.070',1360.652
'0:14.074',1360.631
'0:14.078',1361.767
'0:14.082',1364.092
'0:14.086',1367.266
'0:14.090',1370.779
'0:14.094',1374.182
'0:14.098',1377.215
'0:14.102',1379.738
'0:14.105',1381.723
'0:14.109',1383.172
'0:14.113',1384.079
'0:14.117',1384.402
'0:14.121',1384.058
'0:14.125',1382.948
'0:14.129',1380.973
'0:14.133',1378.075
'0:14.137',1374.255
'0:14.141',1369.632
'0:14.145',1364.504
'0:14.148',1359.375
'0:14.152',1354.852
'0:14.156',1351.412
'0:14.160',1349.291
'0:14.164',1348.478
'0:14.168',1348.780
'0:14.172',1349.843
'0:14.176',1351.313
'0:14.180',1352.923
'0:14.184',1354.554
'0:14.188',1356.165
'0:14.191',1357.760
'0:14.195',1359.276
'0:14.199',1360.642
'0:14.203',1361.887
'0:14.207',1363.123
'0:14.211',1364.353
'0:14.215',1365.504
'0:14.219',1366.521
'0:14.223',1367.401
'0:14.227',1368.152
'0:14.230',1368.814
'0:14.234',1369.455
'0:14.238',1370.138
'0:14.242',1370.914
'0:14.246',1371.769
'0:14.250',1372.681
'0:14.254',1373.650
'0:14.258',1374.594
'0:14.262',1375.339
'0:14.266',1375.782
'0:14.270',1375.881
'0:14.273',1375.704
'0:14.277',1375.349
'0:14.281',1374.911
'0:14.285',1374.442
'0:14.289',1373.942
'0:14.293',1373.390
'0:14.297',1372.764
'0:14.301',1372.097
'0:14.305',1371.472
'0:14.309',1370.919
'0:14.313',1370.403
'0:14.316',1370.059
'0:14.320',1370.164
'0:14.324',1370.888
'0:14.328',1372.123
'0:14.332',1373.510
'0:14.336',1374.552
'0:14.340',1374.906
'0:14.344',1374.583
'0:14.348',1373.906
'0:14.352',1373.343
'0:14.355',1373.291
'0:14.359',1373.911
'0:14.363',1375.104
'0:14.367',1376.511
'0:14.371',1377.663
'0:14.375',1378.242
'0:14.379',1378.237
'0:14.383',1377.867
'0:14.387',1377.340
'0:14.391',1376.678
'0:14.395',1375.787
'0:14.398',1374.682
'0:14.402',1373.556
'0:14.406',1372.592
'0:14.410',1371.826
'0:14.414',1371.190
'0:14.418',1370.601
'0:14.422',1370.018
'0:14.426',1369.523
'0:14.430',1369.220
'0:14.434',1369.137
'0:14.438',1369.246
'0:14.441',1369.502
'0:14.445',1369.846
'0:14.449',1370.190
'0:14.453',1370.471
'0:14.457',1370.664
'0:14.461',1370.779
'0:14.465',1370.872
'0:14.469',1371.008
'0:14.473',1371.227
'0:14.477',1371.597
'0:14.480',1372.128
'0:14.484',1372.723
'0:14.488',1373.249
'0:14.492',1373.556
'0:14.496',1373.546
'0:14.500',1373.212
'0:14.504',1372.650
'0:14.508',1371.998
'0:14.512',1371.383
'0:14.516',1370.924
'0:14.520',1370.706
'0:14.523',1370.742
'0:14.527',1370.977
'0:14.531',1371.284
'0:14.535',1371.519
'0:14.539',1371.566
'0:14.543',1371.409
'0:14.547',1371.039
'0:14.551',1370.450
'0:14.555',1369.648
'0:14.559',1368.683
'0:14.563',1367.698
'0:14.566',1366.927
'0:14.570',1366.536
'0:14.574',1366.609
'0:14.578',1367.115
'0:14.582',1367.928
'0:14.586',1368.798
'0:14.590',1369.476
'0:14.594',1369.882
'0:14.598',1370.091
'0:14.602',1370.153
'0:14.605',1370.148
'0:14.609',1370.205
'0:14.613',1370.435
'0:14.617',1370.872
'0:14.621',1371.576
'0:14.625',1372.509
'0:14.629',1373.468
'0:14.633',1374.166
'0:14.637',1374.437
'0:14.641',1374.296
'0:14.645',1373.827
'0:14.648',1373.166
'0:14.652',1372.462
'0:14.656',1371.826
'0:14.660',1371.284
'0:14.664',1370.820
'0:14.668',1370.487
'0:14.672',1370.398
'0:14.676',1370.607
'0:14.680',1371.055
'0:14.684',1371.644
'0:14.688',1372.253
'0:14.691',1372.754
'0:14.695',1373.051
'0:14.699',1373.139
'0:14.703',1373.046
'0:14.707',1372.764
'0:14.711',1372.217
'0:14.715',1371.409
'0:14.719',1370.450
'0:14.723',1369.444
'0:14.727',1368.402
'0:14.730',1367.427
'0:14.734',1366.792
'0:14.738',1366.776
'0:14.742',1367.474
'0:14.746',1368.736
'0:14.750',1370.304
'0:14.754',1371.894
'0:14.758',1373.332
'0:14.762',1374.536
'0:14.766',1375.422
'0:14.770',1375.891
'0:14.773',1375.933
'0:14.777',1375.631
'0:14.781',1375.042
'0:14.785',1374.250
'0:14.789',1373.442
'0:14.793',1372.775
'0:14.797',1372.222
'0:14.801',1371.597
'0:14.805',1370.789
'0:14.809',1369.893
'0:14.813',1369.027
'0:14.816',1368.319
'0:14.820',1367.917
'0:14.824',1368.032
'0:14.828',1368.793
'0:14.832',1370.216
'0:14.836',1372.134
'0:14.840',1374.250
'0:14.844',1376.188
'0:14.848',1377.601
'0:14.852',1378.294
'0:14.855',1378.226
'0:14.859',1377.601
'0:14.863',1376.736
'0:14.867',1375.954
'0:14.871',1375.469
'0:14.875',1375.396
'0:14.879',1375.782
'0:14.883',1376.558
'0:14.887',1377.601
'0:14.891',1378.680
'0:14.895',1379.513
'0:14.898',1379.894
'0:14.902',1379.847
'0:14.906',1379.644
'0:14.910',1379.639
'0:14.914',1380.087
'0:14.918',1381.051
'0:14.922',1382.422
'0:14.926',1384.100
'0:14.930',1386.096
'0:14.934',1388.446
'0:14.938',1391.125
'0:14.941',1394.012
'0:14.945',1396.895
'0:14.949',1399.464
'0:14.953',1401.340
'0:14.957',1402.143
'0:14.961',1401.632
'0:14.965',1399.808
'0:14.969',1396.968
'0:14.973',1393.611
'0:14.977',1390.286
'0:14.980',1387.435
'0:14.984',1385.345
'0:14.988',1384.084
'0:14.992',1383.526
'0:14.996',1383.407
'0:15.000',1383.563
'0:15.004',1383.949
'0:15.008',1384.517
'0:15.012',1385.121
'0:15.016',1385.637
'0:15.020',1386.018
'0:15.023',1386.263
'0:15.027',1386.310
'0:15.031',1386.085
'0:15.035',1385.637
'0:15.039',1385.064
'0:15.043',1384.485
'0:15.047',1384.037
'0:15.051',1383.771
'0:15.055',1383.568
'0:15.059',1383.271
'0:15.063',1382.844
'0:15.066',1382.380
'0:15.070',1382.052
'0:15.074',1382.046
'0:15.078',1382.500
'0:15.082',1383.422
'0:15.086',1384.631
'0:15.090',1385.835
'0:15.094',1386.779
'0:15.098',1387.394
'0:15.102',1387.774
'0:15.105',1387.993
'0:15.109',1388.061
'0:15.113',1387.988
'0:15.117',1387.805
'0:15.121',1387.566
'0:15.125',1387.300
'0:15.129',1387.060
'0:15.133',1386.852
'0:15.137',1386.638
'0:15.141',1386.367
'0:15.145',1386.111
'0:15.148',1386.023
'0:15.152',1386.184
'0:15.156',1386.560
'0:15.160',1387.091
'0:15.164',1387.706
'0:15.168',1388.259
'0:15.172',1388.509
'0:15.176',1388.295
'0:15.180',1387.618
'0:15.184',1386.581
'0:15.188',1385.345
'0:15.191',1384.167
'0:15.195',1383.255
'0:15.199',1382.729
'0:15.203',1382.599
'0:15.207',1382.844
'0:15.211',1383.375
'0:15.215',1384.027
'0:15.219',1384.595
'0:15.223',1384.949
'0:15.227',1385.106
'0:15.230',1385.179
'0:15.234',1385.137
'0:15.238',1384.756
'0:15.242',1383.855
'0:15.246',1382.479
'0:15.250',1380.827
'0:15.254',1379.013
'0:15.258',1377.017
'0:15.262',1374.839
'0:15.266',1372.603
'0:15.270',1370.523
'0:15.273',1368.772
'0:15.277',1367.422
'0:15.281',1366.442
'0:15.285',1365.744
'0:15.289',1365.244
'0:15.293',1364.827
'0:15.297',1364.431
'0:15.301',1364.186
'0:15.305',1364.368
'0:15.309',1365.244
'0:15.313',1366.901
'0:15.316',1369.153
'0:15.320',1371.638
'0:15.324',1374.015
'0:15.328',1375.985
'0:15.332',1377.267
'0:15.336',1377.663
'0:15.340',1377.126
'0:15.344',1375.766
'0:15.348',1373.827
'0:15.352',1371.654
'0:15.355',1369.507
'0:15.359',1367.349
'0:15.363',1364.952
'0:15.367',1362.205
'0:15.371',1359.281
'0:15.375',1356.639
'0:15.379',1354.726
'0:15.383',1353.778
'0:15.387',1353.705
'0:15.391',1354.216
'0:15.395',1355.003
'0:15.398',1355.831
'0:15.402',1356.514
'0:15.406',1356.811
'0:15.410',1356.592
'0:15.414',1356.029
'0:15.418',1355.508
'0:15.422',1355.352
'0:15.426',1355.649
'0:15.430',1356.342
'0:15.434',1357.327
'0:15.438',1358.442
'0:15.441',1359.506
'0:15.445',1360.402
'0:15.449',1361.043
'0:15.453',1361.345
'0:15.457',1361.324
'0:15.461',1361.033
'0:15.465',1360.371
'0:15.469',1359.120
'0:15.473',1357.134
'0:15.477',1354.554
'0:15.480',1351.787
'0:15.484',1349.353
'0:15.488',1347.665
'0:15.492',1346.867
'0:15.496',1346.815
'0:15.500',1347.128
'0:15.504',1347.367
'0:15.508',1347.315
'0:15.512',1347.086
'0:15.516',1346.992
'0:15.520',1347.279
'0:15.523',1348.014
'0:15.527',1349.061
'0:15.531',1350.109
'0:15.535',1350.859
'0:15.539',1351.177
'0:15.543',1351.167
'0:15.547',1350.984
'0:15.551',1350.750
'0:15.555',1350.484
'0:15.559',1350.119
'0:15.563',1349.483
'0:15.566',1348.478
'0:15.570',1347.227
'0:15.574',1346.023
'0:15.578',1345.111
'0:15.582',1344.511
'0:15.586',1344.126
'0:15.590',1343.912
'0:15.594',1343.980
'0:15.598',1344.418
'0:15.602',1345.205
'0:15.605',1346.216
'0:15.609',1347.394
'0:15.613',1348.848
'0:15.617',1350.802
'0:15.621',1353.481
'0:15.625',1356.941
'0:15.629',1361.022
'0:15.633',1365.332
'0:15.637',1369.319
'0:15.641',1372.535
'0:15.645',1374.703
'0:15.648',1375.683
'0:15.652',1375.339
'0:15.656',1373.624
'0:15.660',1370.685
'0:15.664',1366.844
'0:15.668',1362.612
'0:15.672',1358.640
'0:15.676',1355.592
'0:15.680',1353.887
'0:15.684',1353.622
'0:15.688',1354.549
'0:15.691',1356.285
'0:15.695',1358.495
'0:15.699',1360.965
'0:15.703',1363.440
'0:15.707',1365.577
'0:15.711',1367.094
'0:15.715',1367.797
'0:15.719',1367.641
'0:15.723',1366.687
'0:15.727',1365.093
'0:15.730',1363.091
'0:15.734',1360.965
'0:15.738',1358.990
'0:15.742',1357.405
'0:15.746',1356.436
'0:15.750',1356.128
'0:15.754',1356.274
'0:15.758',1356.524
'0:15.762',1356.665
'0:15.766',1356.717
'0:15.770',1356.775
'0:15.773',1356.915
'0:15.777',1357.160
'0:15.781',1357.483
'0:15.785',1357.827
'0:15.789',1358.093
'0:15.793',1358.140
'0:15.797',1357.838
'0:15.801',1357.129
'0:15.805',1356.029
'0:15.809',1354.476
'0:15.813',1352.407
'0:15.816',1349.942
'0:15.820',1347.451
'0:15.824',1345.403
'0:15.828',1344.167
'0:15.832',1343.902
'0:15.836',1344.532
'0:15.840',1345.794
'0:15.844',1347.352
'0:15.848',1349.030
'0:15.852',1350.786
'0:15.855',1352.511
'0:15.859',1353.893
'0:15.863',1354.581
'0:15.867',1354.377
'0:15.871',1353.392
'0:15.875',1352.027
'0:15.879',1350.865
'0:15.883',1350.422
'0:15.887',1350.938
'0:15.891',1352.261
'0:15.895',1353.877
'0:15.898',1355.081
'0:15.902',1355.326
'0:15.906',1354.419
'0:15.910',1352.538
'0:15.914',1350.151
'0:15.918',1347.753
'0:15.922',1345.684
'0:15.926',1344.053
'0:15.930',1342.880
'0:15.934',1342.145
'0:15.938',1341.859
'0:15.941',1342.041
'0:15.945',1342.666
'0:15.949',1343.610
'0:15.953',1344.683
'0:15.957',1345.741
'0:15.961',1346.732
'0:15.965',1347.576
'0:15.969',1348.196
'0:15.973',1348.639
'0:15.977',1349.061
'0:15.980',1349.541
'0:15.984',1350.072
'0:15.988',1350.651
'0:15.992',1351.318
'0:15.996',1352.037
'0:16.000',1352.709
'0:16.004',1353.267
'0:16.008',1353.747
'0:16.012',1354.273
'0:16.016',1354.893
'0:16.020',1355.529
'0:16.023',1356.128
'0:16.027',1356.676
'0:16.031',1357.171
'0:16.035',1357.609
'0:16.039',1358.010
'0:16.043',1358.406
'0:16.047',1358.797
'0:16.051',1359.209
'0:16.055',1359.704
'0:16.059',1360.319
'0:16.063',1361.027
'0:16.066',1361.767
'0:16.070',1362.591
'0:16.074',1363.722
'0:16.078',1365.379
'0:16.082',1367.532
'0:16.086',1369.835
'0:16.090',1371.701
'0:16.094',1372.551
'0:16.098',1372.035
'0:16.102',1370.231
'0:16.105',1367.594
'0:16.109',1364.780
'0:16.113',1362.377
'0:16.117',1360.762
'0:16.121',1360.126
'0:16.125',1360.511
'0:16.129',1361.794
'0:16.133',1363.743
'0:16.137',1366.130
'0:16.141',1368.829
'0:16.145',1371.727
'0:16.148',1374.630
'0:16.152',1377.262
'0:16.156',1379.300
'0:16.160',1380.488
'0:16.164',1380.780
'0:16.168',1380.358
'0:16.172',1379.612
'0:16.176',1378.977
'0:16.180',1378.805
'0:16.184',1379.279
'0:16.188',1380.425
'0:16.191',1382.130
'0:16.195',1384.188
'0:16.199',1386.429
'0:16.203',1388.780
'0:16.207',1391.156
'0:16.211',1393.335
'0:16.215',1395.018
'0:16.219',1396.055
'0:16.223',1396.597
'0:16.227',1396.952
'0:16.230',1397.358
'0:16.234',1397.859
'0:16.238',1398.390
'0:16.242',1398.927
'0:16.246',1399.412
'0:16.250',1399.698
'0:16.254',1399.594
'0:16.258',1399.115
'0:16.262',1398.468
'0:16.266',1397.900
'0:16.270',1397.536
'0:16.273',1397.317
'0:16.277',1397.082
'0:16.281',1396.806
'0:16.285',1396.582
'0:16.289',1396.478
'0:16.293',1396.431
'0:16.297',1396.384
'0:16.301',1396.311
'0:16.305',1396.186
'0:16.309',1395.951
'0:16.313',1395.602
'0:16.316',1395.190
'0:16.320',1394.758
'0:16.324',1394.268
'0:16.328',1393.637
'0:16.332',1392.819
'0:16.336',1391.829
'0:16.340',1390.828
'0:16.344',1390.109
'0:16.348',1389.984
'0:16.352',1390.651
'0:16.355',1392.121
'0:16.359',1394.179
'0:16.363',1396.353
'0:16.367',1398.036
'0:16.371',1398.750
'0:16.375',1398.343
'0:16.379',1397.061
'0:16.383',1395.373
'0:16.387',1393.747
'0:16.391',1392.511
'0:16.395',1391.855
'0:16.398',1391.954
'0:16.402',1392.949
'0:16.406',1394.857
'0:16.410',1397.442
'0:16.414',1400.298
'0:16.418',1402.951
'0:16.422',1404.999
'0:16.426',1406.156
'0:16.430',1406.281
'0:16.434',1405.358
'0:16.438',1403.534
'0:16.441',1401.163
'0:16.445',1398.766
'0:16.449',1396.863
'0:16.453',1395.805
'0:16.457',1395.774
'0:16.461',1396.822
'0:16.465',1398.854
'0:16.469',1401.528
'0:16.473',1404.290
'0:16.477',1406.547
'0:16.480',1407.844
'0:16.484',1407.980
'0:16.488',1406.948
'0:16.492',1404.941
'0:16.496',1402.403
'0:16.500',1399.860
'0:16.504',1397.770
'0:16.508',1396.389
'0:16.512',1395.784
'0:16.516',1395.816
'0:16.520',1396.175
'0:16.523',1396.519
'0:16.527',1396.670
'0:16.531',1396.551
'0:16.535',1396.087
'0:16.539',1395.201
'0:16.543',1393.960
'0:16.547',1392.506
'0:16.551',1390.974
'0:16.555',1389.483
'0:16.559',1388.108
'0:16.563',1386.867
'0:16.566',1385.762
'0:16.570',1384.809
'0:16.574',1384.042
'0:16.578',1383.526
'0:16.582',1383.443
'0:16.586',1383.964
'0:16.590',1385.199
'0:16.594',1387.123
'0:16.598',1389.551
'0:16.602',1392.074
'0:16.605',1394.158
'0:16.609',1395.268
'0:16.613',1395.096
'0:16.617',1393.580
'0:16.621',1390.979
'0:16.625',1387.810
'0:16.629',1384.689
'0:16.633',1382.124
'0:16.637',1380.425
'0:16.641',1379.680
'0:16.645',1379.790
'0:16.648',1380.509
'0:16.652',1381.515
'0:16.656',1382.463
'0:16.660',1383.031
'0:16.664',1383.052
'0:16.668',1382.536
'0:16.672',1381.598
'0:16.676',1380.363
'0:16.680',1378.987
'0:16.684',1377.642
'0:16.688',1376.491
'0:16.691',1375.589
'0:16.695',1374.979
'0:16.699',1374.719
'0:16.703',1374.833
'0:16.707',1375.209
'0:16.711',1375.709
'0:16.715',1376.220
'0:16.719',1376.610
'0:16.723',1376.657
'0:16.727',1376.199
'0:16.730',1375.339
'0:16.734',1374.396
'0:16.738',1373.655
'0:16.742',1373.254
'0:16.746',1373.181
'0:16.750',1373.353
'0:16.754',1373.598
'0:16.758',1373.760
'0:16.762',1373.765
'0:16.766',1373.562
'0:16.770',1373.155
'0:16.773',1372.723
'0:16.777',1372.483
'0:16.781',1372.556
'0:16.785',1373.009
'0:16.789',1373.953
'0:16.793',1375.381
'0:16.797',1377.038
'0:16.801',1378.560
'0:16.805',1379.790
'0:16.809',1380.759
'0:16.813',1381.530
'0:16.816',1382.114
'0:16.820',1382.510
'0:16.824',1382.713
'0:16.828',1382.729
'0:16.832',1382.573
'0:16.836',1382.328
'0:16.840',1382.109
'0:16.844',1381.979
'0:16.848',1381.900
'0:16.852',1381.827
'0:16.855',1381.754
'0:16.859',1381.697
'0:16.863',1381.645
'0:16.867',1381.624
'0:16.871',1381.739
'0:16.875',1382.145
'0:16.879',1383.031
'0:16.883',1384.522
'0:16.887',1386.617
'0:16.891',1389.098
'0:16.895',1391.573
'0:16.898',1393.596
'0:16.902',1394.878
'0:16.906',1395.347
'0:16.910',1395.024
'0:16.914',1394.018
'0:16.918',1392.480
'0:16.922',1390.640
'0:16.926',1388.790
'0:16.930',1387.227
'0:16.934',1386.122
'0:16.938',1385.413
'0:16.941',1384.902
'0:16.945',1384.350
'0:16.949',1383.662
'0:16.953',1382.854
'0:16.957',1381.968
'0:16.961',1380.967
'0:16.965',1379.816
'0:16.969',1378.513
'0:16.973',1377.116
'0:16.977',1375.740
'0:16.980',1374.562
'0:16.984',1373.692
'0:16.988',1373.113
'0:16.992',1372.696
'0:16.996',1372.290
'0:17.000',1371.795
'0:17.004',1371.190
'0:17.008',1370.560
'0:17.012',1370.007
'0:17.016',1369.596
'0:17.020',1369.330
'0:17.023',1369.168
'0:17.027',1369.132
'0:17.031',1369.304
'0:17.035',1369.752
'0:17.039',1370.471
'0:17.043',1371.550
'0:17.047',1373.082
'0:17.051',1374.958
'0:17.055',1376.798
'0:17.059',1378.096
'0:17.063',1378.497
'0:17.066',1377.934
'0:17.070',1376.678
'0:17.074',1375.177
'0:17.078',1373.822
'0:17.082',1372.749
'0:17.086',1371.753
'0:17.090',1370.466
'0:17.094',1368.652
'0:17.098',1366.422
'0:17.102',1364.076
'0:17.105',1361.908
'0:17.109',1360.068
'0:17.113',1358.667
'0:17.117',1357.859
'0:17.121',1357.817
'0:17.125',1358.635
'0:17.129',1360.287
'0:17.133',1362.612
'0:17.137',1365.285
'0:17.141',1367.912
'0:17.145',1370.117
'0:17.148',1371.607
'0:17.152',1372.243
'0:17.156',1372.144
'0:17.160',1371.612
'0:17.164',1370.909
'0:17.168',1370.179
'0:17.172',1369.486
'0:17.176',1368.871
'0:17.180',1368.371
'0:17.184',1368.016
'0:17.188',1367.771
'0:17.191',1367.532
'0:17.195',1367.177
'0:17.199',1366.625
'0:17.203',1365.734
'0:17.207',1364.353
'0:17.211',1362.523
'0:17.215',1360.496
'0:17.219',1358.614
'0:17.223',1357.145
'0:17.227',1356.227
'0:17.230',1355.810
'0:17.234',1355.711
'0:17.238',1355.774
'0:17.242',1355.894
'0:17.246',1355.956
'0:17.250',1355.743
'0:17.254',1355.096
'0:17.258',1354.127
'0:17.262',1353.163
'0:17.266',1352.564
'0:17.270',1352.522
'0:17.273',1353.095
'0:17.277',1354.205
'0:17.281',1355.701
'0:17.285',1357.410
'0:17.289',1359.177
'0:17.293',1360.861
'0:17.297',1362.268
'0:17.301',1363.284
'0:17.305',1363.910
'0:17.309',1364.217
'0:17.313',1364.238
'0:17.316',1364.024
'0:17.320',1363.633
'0:17.324',1363.044
'0:17.328',1362.184
'0:17.332',1361.027
'0:17.336',1359.672
'0:17.340',1358.276
'0:17.344',1357.067
'0:17.348',1356.306
'0:17.352',1356.212
'0:17.355',1356.879
'0:17.359',1358.255
'0:17.363',1360.183
'0:17.367',1362.419
'0:17.371',1364.691
'0:17.375',1366.693
'0:17.379',1368.183
'0:17.383',1369.038
'0:17.387',1369.340
'0:17.391',1369.257
'0:17.395',1368.965
'0:17.398',1368.595
'0:17.402',1368.199
'0:17.406',1367.709
'0:17.410',1367.089
'0:17.414',1366.526
'0:17.418',1366.354
'0:17.422',1366.833
'0:17.426',1368.011
'0:17.430',1369.632
'0:17.434',1371.164
'0:17.438',1372.024
'0:17.441',1371.816
'0:17.445',1370.440
'0:17.449',1368.089
'0:17.453',1365.186
'0:17.457',1362.247
'0:17.461',1359.719
'0:17.465',1357.926
'0:17.469',1357.056
'0:17.473',1357.192
'0:17.477',1358.286
'0:17.480',1360.167
'0:17.484',1362.581
'0:17.488',1365.186
'0:17.492',1367.688
'0:17.496',1369.908
'0:17.500',1371.810
'0:17.504',1373.431
'0:17.508',1374.739
'0:17.512',1375.719
'0:17.516',1376.465
'0:17.520',1377.147
'0:17.523',1377.929
'0:17.527',1378.893
'0:17.531',1379.977
'0:17.535',1380.962
'0:17.539',1381.546
'0:17.543',1381.525
'0:17.547',1380.910
'0:17.551',1379.920
'0:17.555',1378.852
'0:17.559',1377.924
'0:17.563',1377.173
'0:17.566',1376.470
'0:17.570',1375.636
'0:17.574',1374.599
'0:17.578',1373.384
'0:17.582',1372.009
'0:17.586',1370.481
'0:17.590',1368.876
'0:17.594',1367.360
'0:17.598',1366.213
'0:17.602',1365.718
'0:17.605',1365.973
'0:17.609',1366.875
'0:17.613',1368.214
'0:17.617',1369.731
'0:17.621',1371.211
'0:17.625',1372.452
'0:17.629',1373.296
'0:17.633',1373.697
'0:17.637',1373.702
'0:17.641',1373.317
'0:17.645',1372.540
'0:17.648',1371.545
'0:17.652',1370.617
'0:17.656',1369.960
'0:17.660',1369.632
'0:17.664',1369.627
'0:17.668',1369.877
'0:17.672',1370.299
'0:17.676',1370.852
'0:17.680',1371.612
'0:17.684',1372.639
'0:17.688',1373.953
'0:17.691',1375.485
'0:17.695',1377.100
'0:17.699',1378.643
'0:17.703',1379.941
'0:17.707',1380.868
'0:17.711',1381.348
'0:17.715',1381.431
'0:17.719',1381.317
'0:17.723',1381.322
'0:17.727',1381.734
'0:17.730',1382.630
'0:17.734',1383.813
'0:17.738',1384.913
'0:17.742',1385.533
'0:17.746',1385.481
'0:17.750',1384.850
'0:17.754',1383.834
'0:17.758',1382.468
'0:17.762',1380.597
'0:17.766',1378.111
'0:17.770',1375.099
'0:17.773',1371.899
'0:17.777',1368.918
'0:17.781',1366.479
'0:17.785',1364.754
'0:17.789',1363.738
'0:17.793',1363.305
'0:17.797',1363.253
'0:17.801',1363.414
'0:17.805',1363.743
'0:17.809',1364.353
'0:17.813',1365.421
'0:17.816',1367.089
'0:17.820',1369.418
'0:17.824',1372.389
'0:17.828',1375.855
'0:17.832',1379.576
'0:17.836',1383.214
'0:17.840',1386.424
'0:17.844',1388.988
'0:17.848',1390.760
'0:17.852',1391.636
'0:17.855',1391.594
'0:17.859',1390.609
'0:17.863',1388.696
'0:17.867',1386.080
'0:17.871',1383.250
'0:17.875',1380.785
'0:17.879',1379.107
'0:17.883',1378.393
'0:17.887',1378.617
'0:17.891',1379.592
'0:17.895',1381.014
'0:17.898',1382.515
'0:17.902',1383.735
'0:17.906',1384.392
'0:17.910',1384.407
'0:17.914',1383.964
'0:17.918',1383.339
'0:17.922',1382.776
'0:17.926',1382.489
'0:17.930',1382.739
'0:17.934',1383.745
'0:17.938',1385.512
'0:17.941',1387.816
'0:17.945',1390.192
'0:17.949',1392.084
'0:17.953',1393.038
'0:17.957',1392.855
'0:17.961',1391.709
'0:17.965',1390.093
'0:17.969',1388.634
'0:17.973',1387.790
'0:17.977',1387.711
'0:17.980',1388.227
'0:17.984',1389.020
'0:17.988',1389.791
'0:17.992',1390.411
'0:17.996',1390.839
'0:18.000',1390.979
'0:18.004',1390.708
'0:18.008',1390.067
'0:18.012',1389.275
'0:18.016',1388.540
'0:18.020',1388.040
'0:18.023',1387.972
'0:18.027',1388.472
'0:18.031',1389.489
'0:18.035',1390.812
'0:18.039',1392.272
'0:18.043',1393.825
'0:18.047',1395.461
'0:18.051',1397.014
'0:18.055',1398.250
'0:18.059',1399.026
'0:18.063',1399.354
'0:18.066',1399.323
'0:18.070',1399.037
'0:18.074',1398.588
'0:18.078',1398.083
'0:18.082',1397.635
'0:18.086',1397.364
'0:18.090',1397.332
'0:18.094',1397.504
'0:18.098',1397.713
'0:18.102',1397.676
'0:18.105',1397.124
'0:18.109',1395.925
'0:18.113',1394.039
'0:18.117',1391.427
'0:18.121',1388.175
'0:18.125',1384.543
'0:18.129',1380.900
'0:18.133',1377.585
'0:18.137',1374.812
'0:18.141',1372.655
'0:18.145',1371.112
'0:18.148',1370.179
'0:18.152',1369.851
'0:18.156',1370.106
'0:18.160',1370.867
'0:18.164',1372.040
'0:18.168',1373.530
'0:18.172',1375.198
'0:18.176',1376.861
'0:18.180',1378.289
'0:18.184',1379.300
'0:18.188',1379.847
'0:18.191',1380.024
'0:18.195',1379.967
'0:18.199',1379.758
'0:18.203',1379.461
'0:18.207',1379.055
'0:18.211',1378.482
'0:18.215',1377.778
'0:18.219',1377.106
'0:18.223',1376.616
'0:18.227',1376.386
'0:18.230',1376.412
'0:18.234',1376.574
'0:18.238',1376.704
'0:18.242',1376.710
'0:18.246',1376.673
'0:18.250',1376.762
'0:18.254',1377.027
'0:18.258',1377.335
'0:18.262',1377.465
'0:18.266',1377.257
'0:18.270',1376.689
'0:18.273',1375.933
'0:18.277',1375.182
'0:18.281',1374.422
'0:18.285',1373.473
'0:18.289',1372.181
'0:18.293',1370.596
'0:18.297',1368.908
'0:18.301',1367.266
'0:18.305',1365.817
'0:18.309',1364.775
'0:18.313',1364.368
'0:18.316',1364.670
'0:18.320',1365.551
'0:18.324',1366.703
'0:18.328',1367.829
'0:18.332',1368.767
'0:18.336',1369.512
'0:18.340',1370.085
'0:18.344',1370.445
'0:18.348',1370.565
'0:18.352',1370.382
'0:18.355',1369.882
'0:18.359',1369.147
'0:18.363',1368.277
'0:18.367',1367.396
'0:18.371',1366.766
'0:18.375',1366.687
'0:18.379',1367.370
'0:18.383',1368.814
'0:18.387',1370.815
'0:18.391',1372.983
'0:18.395',1374.917
'0:18.398',1376.360
'0:18.402',1377.210
'0:18.406',1377.377
'0:18.410',1376.829
'0:18.414',1375.657
'0:18.418',1374.093
'0:18.422',1372.467
'0:18.426',1371.024
'0:18.430',1369.861
'0:18.434',1368.960
'0:18.438',1368.282
'0:18.441',1367.745
'0:18.445',1367.281
'0:18.449',1366.844
'0:18.453',1366.437
'0:18.457',1366.140
'0:18.461',1366.005
'0:18.465',1366.083
'0:18.469',1366.343
'0:18.473',1366.724
'0:18.477',1367.167
'0:18.480',1367.620
'0:18.484',1368.027
'0:18.488',1368.449
'0:18.492',1369.048
'0:18.496',1369.898
'0:18.500',1370.872
'0:18.504',1371.738
'0:18.508',1372.420
'0:18.512',1372.983
'0:18.516',1373.431
'0:18.520',1373.582
'0:18.523',1373.280
'0:18.527',1372.603
'0:18.531',1371.790
'0:18.535',1371.034
'0:18.539',1370.341
'0:18.543',1369.622
'0:18.547',1368.855
'0:18.551',1368.053
'0:18.555',1367.245
'0:18.559',1366.515
'0:18.563',1365.968
'0:18.566',1365.614
'0:18.570',1365.405
'0:18.574',1365.270
'0:18.578',1365.103
'0:18.582',1364.764
'0:18.586',1364.128
'0:18.590',1363.159
'0:18.594',1361.955
'0:18.598',1360.730
'0:18.602',1359.824
'0:18.605',1359.500
'0:18.609',1359.808
'0:18.613',1360.532
'0:18.617',1361.283
'0:18.621',1361.668
'0:18.625',1361.528
'0:18.629',1361.069
'0:18.633',1360.762
'0:18.637',1361.069
'0:18.641',1362.304
'0:18.645',1364.571
'0:18.648',1367.756
'0:18.652',1371.524
'0:18.656',1375.370
'0:18.660',1378.742
'0:18.664',1381.197
'0:18.668',1382.479
'0:18.672',1382.552
'0:18.676',1381.551
'0:18.680',1379.732
'0:18.684',1377.429
'0:18.688',1374.995
'0:18.691',1372.769
'0:18.695',1370.951
'0:18.699',1369.637
'0:18.703',1368.788
'0:18.707',1368.230
'0:18.711',1367.709
'0:18.715',1367.083
'0:18.719',1366.396
'0:18.723',1365.734
'0:18.727',1365.108
'0:18.730',1364.483
'0:18.734',1363.904
'0:18.738',1363.467
'0:18.742',1363.248
'0:18.746',1363.279
'0:18.750',1363.440
'0:18.754',1363.571
'0:18.758',1363.534
'0:18.762',1363.315
'0:18.766',1363.039
'0:18.770',1362.867
'0:18.773',1362.904
'0:18.777',1363.143
'0:18.781',1363.451
'0:18.785',1363.696
'0:18.789',1363.769
'0:18.793',1363.586
'0:18.797',1363.070
'0:18.801',1362.200
'0:18.805',1361.017
'0:18.809',1359.646
'0:18.813',1358.296
'0:18.816',1357.171
'0:18.820',1356.389
'0:18.824',1355.977
'0:18.828',1355.878
'0:18.832',1355.993
'0:18.836',1356.186
'0:18.840',1356.326
'0:18.844',1356.431
'0:18.848',1356.592
'0:18.852',1356.884
'0:18.855',1357.311
'0:18.859',1357.822
'0:18.863',1358.343
'0:18.867',1358.828
'0:18.871',1359.276
'0:18.875',1359.657
'0:18.879',1359.917
'0:18.883',1360.131
'0:18.887',1360.433
'0:18.891',1360.902
'0:18.895',1361.502
'0:18.898',1362.127
'0:18.902',1362.607
'0:18.906',1362.825
'0:18.910',1362.789
'0:18.914',1362.607
'0:18.918',1362.403
'0:18.922',1362.216
'0:18.926',1361.986
'0:18.930',1361.653
'0:18.934',1361.298
'0:18.938',1361.059
'0:18.941',1361.043
'0:18.945',1361.283
'0:18.949',1361.726
'0:18.953',1362.210
'0:18.957',1362.560
'0:18.961',1362.685
'0:18.965',1362.653
'0:18.969',1362.638
'0:18.973',1362.763
'0:18.977',1363.070
'0:18.980',1363.560
'0:18.984',1364.222
'0:18.988',1364.983
'0:18.992',1365.718
'0:18.996',1366.296
'0:19.000',1366.614
'0:19.004',1366.708
'0:19.008',1366.693
'0:19.012',1366.609
'0:19.016',1366.411
'0:19.020',1366.052
'0:19.023',1365.536
'0:19.027',1364.921
'0:19.031',1364.311
'0:19.035',1363.831
'0:19.039',1363.586
'0:19.043',1363.654
'0:19.047',1364.071
'0:19.051',1364.853
'0:19.055',1366.010
'0:19.059',1367.438
'0:19.063',1368.861
'0:19.066',1369.924
'0:19.070',1370.336
'0:19.074',1370.049
'0:19.078',1369.278
'0:19.082',1368.366
'0:19.086',1367.579
'0:19.090',1366.953
'0:19.094',1366.396
'0:19.098',1365.895
'0:19.102',1365.551
'0:19.105',1365.494
'0:19.109',1365.822
'0:19.113',1366.640
'0:19.117',1367.959
'0:19.121',1369.616
'0:19.125',1371.367
'0:19.129',1372.978
'0:19.133',1374.218
'0:19.137',1374.885
'0:19.141',1374.932
'0:19.145',1374.406
'0:19.148',1373.457
'0:19.152',1372.410
'0:19.156',1371.644
'0:19.160',1371.472
'0:19.164',1371.993
'0:19.168',1373.113
'0:19.172',1374.588
'0:19.176',1376.079
'0:19.180',1377.361
'0:19.184',1378.429
'0:19.188',1379.430
'0:19.191',1380.431
'0:19.195',1381.390
'0:19.199',1382.255
'0:19.203',1382.964
'0:19.207',1383.526
'0:19.211',1384.110
'0:19.215',1384.923
'0:19.219',1386.018
'0:19.223',1387.289
'0:19.227',1388.603
'0:19.230',1389.822
'0:19.234',1390.828
'0:19.238',1391.558
'0:19.242',1392.022
'0:19.246',1392.277
'0:19.250',1392.412
'0:19.254',1392.538
'0:19.258',1392.725
'0:19.262',1392.991
'0:19.266',1393.356
'0:19.270',1393.809
'0:19.273',1394.294
'0:19.277',1394.779
'0:19.281',1395.248
'0:19.285',1395.711
'0:19.289',1396.207
'0:19.293',1396.749
'0:19.297',1397.280
'0:19.301',1397.718
'0:19.305',1397.999
'0:19.309',1398.083
'0:19.313',1398.010
'0:19.316',1397.864
'0:19.320',1397.728
'0:19.324',1397.744
'0:19.328',1398.078
'0:19.332',1398.729
'0:19.336',1399.594
'0:19.340',1400.496
'0:19.344',1401.137
'0:19.348',1401.126
'0:19.352',1400.214
'0:19.355',1398.411
'0:19.359',1395.915
'0:19.363',1393.001
'0:19.367',1389.984
'0:19.371',1387.128
'0:19.375',1384.678
'0:19.379',1382.844
'0:19.383',1381.801
'0:19.387',1381.650
'0:19.391',1382.396
'0:19.395',1383.985
'0:19.398',1386.278
'0:19.402',1389.046
'0:19.406',1391.912
'0:19.410',1394.398
'0:19.414',1396.102
'0:19.418',1396.842
'0:19.422',1396.769
'0:19.426',1396.274
'0:19.430',1395.868
'0:19.434',1395.956
'0:19.438',1396.691
'0:19.441',1397.916
'0:19.445',1399.255
'0:19.449',1400.329
'0:19.453',1400.981
'0:19.457',1401.262
'0:19.461',1401.241
'0:19.465',1400.928
'0:19.469',1400.407
'0:19.473',1399.787
'0:19.477',1399.089
'0:19.480',1398.260
'0:19.484',1397.374
'0:19.488',1396.587
'0:19.492',1395.967
'0:19.496',1395.513
'0:19.500',1395.222
'0:19.504',1395.107
'0:19.508',1395.185
'0:19.512',1395.477
'0:19.516',1395.941
'0:19.520',1396.493
'0:19.523',1397.113
'0:19.527',1397.754
'0:19.531',1398.255
'0:19.535',1398.385
'0:19.539',1397.958
'0:19.543',1396.853
'0:19.547',1395.159
'0:19.551',1393.220
'0:19.555',1391.506
'0:19.559',1390.364
'0:19.563',1389.984
'0:19.566',1390.354
'0:19.570',1391.349
'0:19.574',1392.809
'0:19.578',1394.581
'0:19.582',1396.452
'0:19.586',1398.072
'0:19.590',1399.078
'0:19.594',1399.266
'0:19.598',1398.698
'0:19.602',1397.702
'0:19.605',1396.686
'0:19.609',1395.883
'0:19.613',1395.237
'0:19.617',1394.565
'0:19.621',1393.768
'0:19.625',1392.887
'0:19.629',1392.016
'0:19.633',1391.172
'0:19.637',1390.307
'0:19.641',1389.457
'0:19.645',1388.749
'0:19.648',1388.264
'0:19.652',1387.899
'0:19.656',1387.482
'0:19.660',1386.982
'0:19.664',1386.560
'0:19.668',1386.398
'0:19.672',1386.482
'0:19.676',1386.643
'0:19.680',1386.758
'0:19.684',1386.841
'0:19.688',1386.893
'0:19.691',1386.841
'0:19.695',1386.622
'0:19.699',1386.221
'0:19.703',1385.632
'0:19.707',1384.824
'0:19.711',1383.787
'0:19.715',1382.578
'0:19.719',1381.358
'0:19.723',1380.347
'0:19.727',1379.685
'0:19.730',1379.409
'0:19.734',1379.446
'0:19.738',1379.654
'0:19.742',1379.910
'0:19.746',1380.087
'0:19.750',1380.134
'0:19.754',1380.113
'0:19.758',1380.149
'0:19.762',1380.259
'0:19.766',1380.316
'0:19.770',1380.186
'0:19.773',1379.784
'0:19.777',1379.117
'0:19.781',1378.242
'0:19.785',1377.283
'0:19.789',1376.397
'0:19.793',1375.756
'0:19.797',1375.511
'0:19.801',1375.735
'0:19.805',1376.397
'0:19.809',1377.356
'0:19.813',1378.440
'0:19.816',1379.560
'0:19.820',1380.676
'0:19.824',1381.749
'0:19.828',1382.687
'0:19.832',1383.438
'0:19.836',1383.980
'0:19.840',1384.350
'0:19.844',1384.579
'0:19.848',1384.657
'0:19.852',1384.626
'0:19.855',1384.631
'0:19.859',1384.710
'0:19.863',1384.772
'0:19.867',1384.720
'0:19.871',1384.579
'0:19.875',1384.511
'0:19.879',1384.652
'0:19.883',1384.996
'0:19.887',1385.392
'0:19.891',1385.736
'0:19.895',1386.039
'0:19.898',1386.330
'0:19.902',1386.601
'0:19.906',1386.789
'0:19.910',1386.888
'0:19.914',1386.997
'0:19.918',1387.227
'0:19.922',1387.628
'0:19.926',1388.212
'0:19.930',1388.858
'0:19.934',1389.364
'0:19.938',1389.582
'0:19.941',1389.468
'0:19.945',1388.973
'0:19.949',1388.024
'0:19.953',1386.664
'0:19.957',1385.095
'0:19.961',1383.594
'0:19.965',1382.323
'0:19.969',1381.233
'0:19.973',1380.290
'0:19.977',1379.508
'0:19.980',1378.867
'0:19.984',1378.356
'0:19.988',1378.070
'0:19.992',1378.138
'0:19.996',1378.575
'0:20.000',1379.216
'0:20.004',1379.769
'0:20.008',1380.009
'0:20.012',1379.857
'0:20.016',1379.352
'0:20.020',1378.575
'0:20.023',1377.637
'0:20.027',1376.668
'0:20.031',1375.844
'0:20.035',1375.224
'0:20.039',1374.823
'0:20.043',1374.739
'0:20.047',1375.104
'0:20.051',1375.891
'0:20.055',1376.855
'0:20.059',1377.674
'0:20.063',1378.080
'0:20.066',1378.002
'0:20.070',1377.596
'0:20.074',1377.241
'0:20.078',1377.293
'0:20.082',1377.846
'0:20.086',1378.721
'0:20.090',1379.597
'0:20.094',1380.154
'0:20.098',1380.170
'0:20.102',1379.566
'0:20.105',1378.409
'0:20.109',1376.902
'0:20.113',1375.281
'0:20.117',1373.765
'0:20.121',1372.509
'0:20.125',1371.623
'0:20.129',1371.112
'0:20.133',1370.919
'0:20.137',1370.919
'0:20.141',1370.966
'0:20.145',1370.951
'0:20.148',1370.810
'0:20.152',1370.518
'0:20.156',1370.028
'0:20.160',1369.356
'0:20.164',1368.532
'0:20.168',1367.615
'0:20.172',1366.604
'0:20.176',1365.390
'0:20.180',1363.842
'0:20.184',1361.981
'0:20.188',1360.001
'0:20.191',1358.072
'0:20.195',1356.300
'0:20.199',1354.779
'0:20.203',1353.627
'0:20.207',1352.902
'0:20.211',1352.584
'0:20.215',1352.683
'0:20.219',1353.309
'0:20.223',1354.601
'0:20.227',1356.519
'0:20.230',1358.729
'0:20.234',1360.673
'0:20.238',1361.783
'0:20.242',1361.642
'0:20.246',1360.126
'0:20.250',1357.410
'0:20.254',1354.018
'0:20.258',1350.672
'0:20.262',1348.035
'0:20.266',1346.534
'0:20.270',1346.320
'0:20.273',1347.326
'0:20.277',1349.249
'0:20.281',1351.584
'0:20.285',1353.820
'0:20.289',1355.649
'0:20.293',1356.988
'0:20.297',1357.749
'0:20.301',1357.807
'0:20.305',1357.166
'0:20.309',1356.045
'0:20.313',1354.732
'0:20.316',1353.371
'0:20.320',1352.006
'0:20.324',1350.729
'0:20.328',1349.734
'0:20.332',1349.181
'0:20.336',1349.108
'0:20.340',1349.442
'0:20.344',1349.984
'0:20.348',1350.458
'0:20.352',1350.703
'0:20.355',1350.823
'0:20.359',1351.104
'0:20.363',1351.740
'0:20.367',1352.673
'0:20.371',1353.559
'0:20.375',1353.945
'0:20.379',1353.585
'0:20.383',1352.600
'0:20.387',1351.433
'0:20.391',1350.599
'0:20.395',1350.432
'0:20.398',1350.969
'0:20.402',1352.011
'0:20.406',1353.246
'0:20.410',1354.377
'0:20.414',1355.295
'0:20.418',1356.071
'0:20.422',1356.801
'0:20.426',1357.416
'0:20.430',1357.749
'0:20.434',1357.760
'0:20.438',1357.655
'0:20.441',1357.807
'0:20.445',1358.463
'0:20.449',1359.625
'0:20.453',1361.064
'0:20.457',1362.481
'0:20.461',1363.659
'0:20.465',1364.566
'0:20.469',1365.233
'0:20.473',1365.718
'0:20.477',1366.046
'0:20.480',1366.218
'0:20.484',1366.213
'0:20.488',1366.046
'0:20.492',1365.697
'0:20.496',1365.166
'0:20.500',1364.514
'0:20.504',1363.899
'0:20.508',1363.508
'0:20.512',1363.493
'0:20.516',1363.920
'0:20.520',1364.775
'0:20.523',1366.025
'0:20.527',1367.573
'0:20.531',1369.288
'0:20.535',1371.055
'0:20.539',1372.733
'0:20.543',1374.187
'0:20.547',1375.401
'0:20.551',1376.459
'0:20.555',1377.424
'0:20.559',1378.268
'0:20.563',1378.977
'0:20.566',1379.607
'0:20.570',1380.253
'0:20.574',1380.931
'0:20.578',1381.510
'0:20.582',1381.885
'0:20.586',1382.031
'0:20.590',1382.057
'0:20.594',1382.114
'0:20.598',1382.349
'0:20.602',1382.833
'0:20.605',1383.594
'0:20.609',1384.543
'0:20.613',1385.424
'0:20.617',1385.981
'0:20.621',1386.080
'0:20.625',1385.757
'0:20.629',1385.116
'0:20.633',1384.261
'0:20.637',1383.323
'0:20.641',1382.510
'0:20.645',1381.958
'0:20.648',1381.682
'0:20.652',1381.702
'0:20.656',1382.057
'0:20.660',1382.646
'0:20.664',1383.271
'0:20.668',1383.761
'0:20.672',1383.996
'0:20.676',1383.844
'0:20.680',1383.219
'0:20.684',1382.229
'0:20.688',1381.150
'0:20.691',1380.264
'0:20.695',1379.748
'0:20.699',1379.644
'0:20.703',1379.821
'0:20.707',1379.967
'0:20.711',1379.837
'0:20.715',1379.456
'0:20.719',1379.081
'0:20.723',1378.956
'0:20.727',1379.185
'0:20.730',1379.680
'0:20.734',1380.285
'0:20.738',1380.874
'0:20.742',1381.410
'0:20.746',1381.890
'0:20.750',1382.317
'0:20.754',1382.661
'0:20.758',1382.875
'0:20.762',1383.057
'0:20.766',1383.370
'0:20.770',1383.797
'0:20.773',1384.235
'0:20.777',1384.610
'0:20.781',1384.918
'0:20.785',1385.121
'0:20.789',1385.241
'0:20.793',1385.366
'0:20.797',1385.585
'0:20.801',1385.997
'0:20.805',1386.711
'0:20.809',1387.680
'0:20.813',1388.712
'0:20.816',1389.546
'0:20.820',1390.031
'0:20.824',1390.140
'0:20.828',1389.947
'0:20.832',1389.546
'0:20.836',1388.931
'0:20.840',1388.045
'0:20.844',1386.846
'0:20.848',1385.460
'0:20.852',1384.115
'0:20.855',1382.979
'0:20.859',1381.994
'0:20.863',1381.014
'0:20.867',1380.045
'0:20.871',1379.347
'0:20.875',1379.237
'0:20.879',1379.863
'0:20.883',1381.072
'0:20.887',1382.474
'0:20.891',1383.657
'0:20.895',1384.371
'0:20.898',1384.673
'0:20.902',1384.819
'0:20.906',1385.038
'0:20.910',1385.371
'0:20.914',1385.783
'0:20.918',1386.242
'0:20.922',1386.633
'0:20.926',1386.737
'0:20.930',1386.419
'0:20.934',1385.731
'0:20.938',1384.840
'0:20.941',1383.839
'0:20.945',1382.724
'0:20.949',1381.473
'0:20.953',1380.181
'0:20.957',1378.992
'0:20.961',1377.976
'0:20.965',1377.147
'0:20.969',1376.569
'0:20.973',1376.313
'0:20.977',1376.439
'0:20.980',1376.928
'0:20.984',1377.700
'0:20.988',1378.664
'0:20.992',1379.722
'0:20.996',1380.827
'0:21.000',1381.999
'0:21.004',1383.313
'0:21.008',1384.788
'0:21.012',1386.388
'0:21.016',1388.102
'0:21.020',1389.968
'0:21.023',1391.980
'0:21.027',1394.065
'0:21.031',1396.118
'0:21.035',1397.994
'0:21.039',1399.485
'0:21.043',1400.350
'0:21.047',1400.459
'0:21.051',1399.870
'0:21.055',1398.844
'0:21.059',1397.671
'0:21.063',1396.509
'0:21.066',1395.425
'0:21.070',1394.429
'0:21.074',1393.486
'0:21.078',1392.553
'0:21.082',1391.730
'0:21.086',1391.276
'0:21.090',1391.386
'0:21.094',1392.032
'0:21.098',1392.975
'0:21.102',1393.966
'0:21.105',1394.893
'0:21.109',1395.795
'0:21.113',1396.790
'0:21.117',1397.926
'0:21.121',1399.162
'0:21.125',1400.366
'0:21.129',1401.335
'0:21.133',1401.814
'0:21.137',1401.512
'0:21.141',1400.246
'0:21.145',1398.057
'0:21.148',1395.326
'0:21.152',1392.616
'0:21.156',1390.442
'0:21.160',1389.160
'0:21.164',1388.889
'0:21.168',1389.541
'0:21.172',1390.839
'0:21.176',1392.465
'0:21.180',1394.231
'0:21.184',1396.066
'0:21.188',1397.989
'0:21.191',1400.022
'0:21.195',1402.033
'0:21.199',1403.727
'0:21.203',1404.759
'0:21.207',1404.921
'0:21.211',1404.102
'0:21.215',1402.304
'0:21.219',1399.683
'0:21.223',1396.504
'0:21.227',1393.126
'0:21.230',1389.890
'0:21.234',1387.060
'0:21.238',1384.788
'0:21.242',1383.182
'0:21.246',1382.328
'0:21.250',1382.260
'0:21.254',1382.953
'0:21.258',1384.350
'0:21.262',1386.294
'0:21.266',1388.504
'0:21.270',1390.588
'0:21.273',1392.194
'0:21.277',1393.085
'0:21.281',1393.173
'0:21.285',1392.553
'0:21.289',1391.453
'0:21.293',1390.046
'0:21.297',1388.457
'0:21.301',1386.815
'0:21.305',1385.267
'0:21.309',1384.011
'0:21.313',1383.255
'0:21.316',1383.104
'0:21.320',1383.453
'0:21.324',1384.105
'0:21.328',1384.845
'0:21.332',1385.512
'0:21.336',1385.992
'0:21.340',1386.268
'0:21.344',1386.351
'0:21.348',1386.226
'0:21.352',1385.820
'0:21.355',1385.137
'0:21.359',1384.282
'0:21.363',1383.360
'0:21.367',1382.495
'0:21.371',1381.853
'0:21.375',1381.473
'0:21.379',1381.218
'0:21.383',1380.905
'0:21.387',1380.436
'0:21.391',1379.753
'0:21.395',1378.919
'0:21.398',1378.117
'0:21.402',1377.476
'0:21.406',1376.975
'0:21.410',1376.569
'0:21.414',1376.339
'0:21.418',1376.449
'0:21.422',1377.095
'0:21.426',1378.445
'0:21.430',1380.493
'0:21.434',1383.104
'0:21.438',1386.075
'0:21.441',1389.202
'0:21.445',1392.251
'0:21.449',1394.956
'0:21.453',1397.046
'0:21.457',1398.375
'0:21.461',1398.917
'0:21.465',1398.708
'0:21.469',1397.812
'0:21.473',1396.280
'0:21.477',1394.195
'0:21.480',1391.730
'0:21.484',1389.223
'0:21.488',1387.060
'0:21.492',1385.486
'0:21.496',1384.480
'0:21.500',1383.870
'0:21.504',1383.542
'0:21.508',1383.464
'0:21.512',1383.568
'0:21.516',1383.657
'0:21.520',1383.521
'0:21.523',1383.099
'0:21.527',1382.495
'0:21.531',1381.812
'0:21.535',1381.108
'0:21.539',1380.379
'0:21.543',1379.571
'0:21.547',1378.617
'0:21.551',1377.481
'0:21.555',1376.188
'0:21.559',1374.771
'0:21.563',1373.311
'0:21.566',1371.899
'0:21.570',1370.607
'0:21.574',1369.481
'0:21.578',1368.532
'0:21.582',1367.709
'0:21.586',1367.010
'0:21.590',1366.495
'0:21.594',1366.250
'0:21.598',1366.323
'0:21.602',1366.677
'0:21.605',1367.167
'0:21.609',1367.605
'0:21.613',1367.834
'0:21.617',1367.829
'0:21.621',1367.672
'0:21.625',1367.474
'0:21.629',1367.360
'0:21.633',1367.401
'0:21.637',1367.605
'0:21.641',1367.886
'0:21.645',1368.141
'0:21.648',1368.329
'0:21.652',1368.564
'0:21.656',1368.939
'0:21.660',1369.392
'0:21.664',1369.783
'0:21.668',1370.049
'0:21.672',1370.195
'0:21.676',1370.273
'0:21.680',1370.310
'0:21.684',1370.273
'0:21.688',1370.117
'0:21.691',1369.809
'0:21.695',1369.387
'0:21.699',1368.944
'0:21.703',1368.600
'0:21.707',1368.449
'0:21.711',1368.595
'0:21.715',1369.100
'0:21.719',1369.861
'0:21.723',1370.560
'0:21.727',1370.898
'0:21.730',1370.815
'0:21.734',1370.502
'0:21.738',1370.268
'0:21.742',1370.341
'0:21.746',1370.810
'0:21.750',1371.623
'0:21.754',1372.665
'0:21.758',1373.671
'0:21.762',1374.250
'0:21.766',1374.020
'0:21.770',1372.827
'0:21.773',1370.841
'0:21.777',1368.491
'0:21.781',1366.234
'0:21.785',1364.436
'0:21.789',1363.274
'0:21.793',1362.789
'0:21.797',1362.930
'0:21.801',1363.607
'0:21.805',1364.785
'0:21.809',1366.437
'0:21.813',1368.449
'0:21.816',1370.601
'0:21.820',1372.597
'0:21.824',1374.140
'0:21.828',1375.068
'0:21.832',1375.480
'0:21.836',1375.678
'0:21.840',1375.891
'0:21.844',1376.162
'0:21.848',1376.491
'0:21.852',1377.022
'0:21.855',1377.992
'0:21.859',1379.571
'0:21.863',1381.728
'0:21.867',1384.261
'0:21.871',1386.836
'0:21.875',1389.181
'0:21.879',1391.229
'0:21.883',1393.069
'0:21.887',1394.773
'0:21.891',1396.373
'0:21.895',1397.900
'0:21.898',1399.427
'0:21.902',1401.007
'0:21.906',1402.581
'0:21.910',1403.972
'0:21.914',1405.030
'0:21.918',1405.791
'0:21.922',1406.484
'0:21.926',1407.292
'0:21.930',1408.225
'0:21.934',1409.137
'0:21.938',1409.934
'0:21.941',1410.622
'0:21.945',1411.196
'0:21.949',1411.612
'0:21.953',1411.842
'0:21.957',1411.873
'0:21.961',1411.685
'0:21.965',1411.258
'0:21.969',1410.549
'0:21.973',1409.512
'0:21.977',1408.037
'0:21.980',1406.015
'0:21.984',1403.498
'0:21.988',1400.699
'0:21.992',1397.885
'0:21.996',1395.263
'0:22.000',1392.970
'0:22.004',1391.156
'0:22.008',1389.937
'0:22.012',1389.259
'0:22.016',1388.931
'0:22.020',1388.712
'0:22.023',1388.504
'0:22.027',1388.306
'0:22.031',1388.139
'0:22.035',1387.956
'0:22.039',1387.706
'0:22.043',1387.388
'0:22.047',1386.971
'0:22.051',1386.388
'0:22.055',1385.606
'0:22.059',1384.715
'0:22.063',1383.797
'0:22.066',1382.891
'0:22.070',1381.999
'0:22.074',1381.155
'0:22.078',1380.472
'0:22.082',1380.055
'0:22.086',1379.941
'0:22.090',1380.087
'0:22.094',1380.321
'0:22.098',1380.379
'0:22.102',1380.019
'0:22.105',1379.149
'0:22.109',1377.846
'0:22.113',1376.402
'0:22.117',1375.141
'0:22.121',1374.255
'0:22.125',1373.728
'0:22.129',1373.468
'0:22.133',1373.405
'0:22.137',1373.494
'0:22.141',1373.619
'0:22.145',1373.635
'0:22.148',1373.494
'0:22.152',1373.249
'0:22.156',1372.936
'0:22.160',1372.577
'0:22.164',1372.191
'0:22.168',1371.831
'0:22.172',1371.555
'0:22.176',1371.352
'0:22.180',1371.154
'0:22.184',1370.914
'0:22.188',1370.617
'0:22.191',1370.237
'0:22.195',1369.762
'0:22.199',1369.272
'0:22.203',1368.908
'0:22.207',1368.777
'0:22.211',1368.923
'0:22.215',1369.267
'0:22.219',1369.710
'0:22.223',1370.242
'0:22.227',1370.878
'0:22.230',1371.566
'0:22.234',1372.181
'0:22.238',1372.624
'0:22.242',1372.832
'0:22.246',1372.806
'0:22.250',1372.644
'0:22.254',1372.498
'0:22.258',1372.420
'0:22.262',1372.410
'0:22.266',1372.509
'0:22.270',1372.723
'0:22.273',1373.009
'0:22.277',1373.275
'0:22.281',1373.452
'0:22.285',1373.494
'0:22.289',1373.384
'0:22.293',1373.207
'0:22.297',1373.067
'0:22.301',1373.087
'0:22.305',1373.364
'0:22.309',1374.020
'0:22.313',1375.141
'0:22.316',1376.631
'0:22.320',1378.164
'0:22.324',1379.305
'0:22.328',1379.732
'0:22.332',1379.315
'0:22.336',1378.143
'0:22.340',1376.428
'0:22.344',1374.536
'0:22.348',1372.900
'0:22.352',1371.894
'0:22.355',1371.701
'0:22.359',1372.300
'0:22.363',1373.551
'0:22.367',1375.229
'0:22.371',1377.048
'0:22.375',1378.742
'0:22.379',1380.108
'0:22.383',1381.072
'0:22.387',1381.781
'0:22.391',1382.526
'0:22.395',1383.495
'0:22.398',1384.610
'0:22.402',1385.596
'0:22.406',1386.278
'0:22.410',1386.669
'0:22.414',1386.841
'0:22.418',1386.711
'0:22.422',1386.070
'0:22.426',1384.829
'0:22.430',1383.172
'0:22.434',1381.457
'0:22.438',1379.977
'0:22.441',1378.904
'0:22.445',1378.377
'0:22.449',1378.539
'0:22.453',1379.472
'0:22.457',1381.082
'0:22.461',1383.099
'0:22.465',1385.147
'0:22.469',1386.945
'0:22.473',1388.425
'0:22.477',1389.671
'0:22.480',1390.781
'0:22.484',1391.652
'0:22.488',1391.985
'0:22.492',1391.427
'0:22.496',1389.822
'0:22.500',1387.341
'0:22.504',1384.392
'0:22.508',1381.452
'0:22.512',1378.935
'0:22.516',1377.142
'0:22.520',1376.246
'0:22.523',1376.298
'0:22.527',1377.215
'0:22.531',1378.815
'0:22.535',1380.827
'0:22.539',1382.844
'0:22.543',1384.345
'0:22.547',1384.892
'0:22.551',1384.423
'0:22.555',1383.255
'0:22.559',1381.848
'0:22.563',1380.577
'0:22.566',1379.670
'0:22.570',1379.227
'0:22.574',1379.258
'0:22.578',1379.717
'0:22.582',1380.467
'0:22.586',1381.358
'0:22.590',1382.312
'0:22.594',1383.344
'0:22.598',1384.501
'0:22.602',1385.747
'0:22.605',1386.935
'0:22.609',1387.883
'0:22.613',1388.582
'0:22.617',1389.197
'0:22.621',1389.869
'0:22.625',1390.588
'0:22.629',1391.203
'0:22.633',1391.542
'0:22.637',1391.448
'0:22.641',1390.760
'0:22.645',1389.431
'0:22.648',1387.602
'0:22.652',1385.559
'0:22.656',1383.589
'0:22.660',1381.900
'0:22.664',1380.571
'0:22.668',1379.670
'0:22.672',1379.227
'0:22.676',1379.258
'0:22.680',1379.727
'0:22.684',1380.571
'0:22.688',1381.728
'0:22.691',1383.146
'0:22.695',1384.782
'0:22.699',1386.544
'0:22.703',1388.300
'0:22.707',1389.885
'0:22.711',1391.078
'0:22.715',1391.693
'0:22.719',1391.693
'0:22.723',1391.177
'0:22.727',1390.255
'0:22.730',1388.999
'0:22.734',1387.529
'0:22.738',1385.966
'0:22.742',1384.392
'0:22.746',1382.969
'0:22.750',1381.874
'0:22.754',1381.202
'0:22.758',1380.926
'0:22.762',1380.962
'0:22.766',1381.202
'0:22.770',1381.551
'0:22.773',1381.885
'0:22.777',1382.104
'0:22.781',1382.151
'0:22.785',1381.958
'0:22.789',1381.494
'0:22.793',1380.796
'0:22.797',1379.993
'0:22.801',1379.331
'0:22.805',1379.024
'0:22.809',1379.138
'0:22.813',1379.581
'0:22.816',1380.227
'0:22.820',1380.978
'0:22.824',1381.775
'0:22.828',1382.562
'0:22.832',1383.235
'0:22.836',1383.761
'0:22.840',1384.173
'0:22.844',1384.558
'0:22.848',1384.923
'0:22.852',1385.132
'0:22.855',1385.022
'0:22.859',1384.621
'0:22.863',1384.074
'0:22.867',1383.469
'0:22.871',1382.781
'0:22.875',1382.010
'0:22.879',1381.192
'0:22.883',1380.363
'0:22.887',1379.576
'0:22.891',1378.836
'0:22.895',1378.044
'0:22.898',1377.085
'0:22.902',1376.022
'0:22.906',1375.099
'0:22.910',1374.604
'0:22.914',1374.588
'0:22.918',1374.854
'0:22.922',1375.104
'0:22.926',1375.214
'0:22.930',1375.235
'0:22.934',1375.245
'0:22.938',1375.276
'0:22.941',1375.396
'0:22.945',1375.688
'0:22.949',1376.199
'0:22.953',1376.981
'0:22.957',1378.075
'0:22.961',1379.498
'0:22.965',1381.218
'0:22.969',1383.136
'0:22.973',1385.132
'0:22.977',1387.107
'0:22.980',1388.999
'0:22.984',1390.792
'0:22.988',1392.397
'0:22.992',1393.585
'0:22.996',1394.075
'0:23.000',1393.721
'0:23.004',1392.657
'0:23.008',1391.282
'0:23.012',1390.119
'0:23.016',1389.556
'0:23.020',1389.728
'0:23.023',1390.484
'0:23.027',1391.547
'0:23.031',1392.621
'0:23.035',1393.434
'0:23.039',1393.840
'0:23.043',1393.887
'0:23.047',1393.658
'0:23.051',1393.173
'0:23.055',1392.381
'0:23.059',1391.282
'0:23.063',1389.932
'0:23.066',1388.452
'0:23.070',1387.018
'0:23.074',1385.726
'0:23.078',1384.538
'0:23.082',1383.438
'0:23.086',1382.385
'0:23.090',1381.296
'0:23.094',1380.134
'0:23.098',1378.997
'0:23.102',1378.023
'0:23.105',1377.314
'0:23.109',1376.923
'0:23.113',1376.809
'0:23.117',1376.819
'0:23.121',1376.772
'0:23.125',1376.553
'0:23.129',1376.136
'0:23.133',1375.521
'0:23.137',1374.745
'0:23.141',1373.937
'0:23.145',1373.228
'0:23.148',1372.644
'0:23.152',1372.181
'0:23.156',1371.831
'0:23.160',1371.592
'0:23.164',1371.493
'0:23.168',1371.592
'0:23.172',1371.821
'0:23.176',1371.988
'0:23.180',1371.977
'0:23.184',1371.831
'0:23.188',1371.628
'0:23.191',1371.347
'0:23.195',1370.940
'0:23.199',1370.471
'0:23.203',1370.049
'0:23.207',1369.788
'0:23.211',1369.752
'0:23.215',1369.919
'0:23.219',1370.226
'0:23.223',1370.648
'0:23.227',1371.133
'0:23.230',1371.612
'0:23.234',1372.040
'0:23.238',1372.446
'0:23.242',1372.832
'0:23.246',1373.108
'0:23.250',1373.202
'0:23.254',1373.119
'0:23.258',1372.967
'0:23.262',1372.874
'0:23.266',1372.936
'0:23.270',1373.233
'0:23.273',1373.796
'0:23.277',1374.557
'0:23.281',1375.407
'0:23.285',1376.251
'0:23.289',1377.038
'0:23.293',1377.757
'0:23.297',1378.336
'0:23.301',1378.695
'0:23.305',1378.820
'0:23.309',1378.773
'0:23.313',1378.622
'0:23.316',1378.382
'0:23.320',1378.096
'0:23.324',1377.788
'0:23.328',1377.330
'0:23.332',1376.522
'0:23.336',1375.308
'0:23.340',1373.838
'0:23.344',1372.316
'0:23.348',1370.904
'0:23.352',1369.757
'0:23.355',1369.001
'0:23.359',1368.652
'0:23.363',1368.631
'0:23.367',1368.788
'0:23.371',1368.923
'0:23.375',1368.908
'0:23.379',1368.725
'0:23.383',1368.423
'0:23.387',1368.006
'0:23.391',1367.365
'0:23.395',1366.260
'0:23.398',1364.545
'0:23.402',1362.356
'0:23.406',1359.980
'0:23.410',1357.650
'0:23.414',1355.425
'0:23.418',1353.241
'0:23.422',1351.167
