'sample interval','wrist_ppg'
'0.00390625 sec','mV'
0,1166.400
1,1179.777
2,1192.271
3,1203.308
4,1212.535
5,1219.907
6,1225.382
7,1229.179
8,1231.651
9,1233.373
10,1234.874
11,1236.640
12,1238.891
13,1241.849
14,1245.690
15,1250.590
16,1256.771
17,1264.497
18,1274.077
19,1285.644
20,1299.286
21,1314.959
22,1332.618
23,1351.999
24,1372.661
25,1394.073
26,1415.838
27,1437.603
28,1458.971
29,1479.411
30,1498.263
31,1514.818
32,1528.284
33,1538.129
34,1543.912
35,1545.325
36,1542.190
37,1534.155
38,1521.087
39,1502.678
40,1478.661
41,1448.684
42,1412.571
43,1370.409
44,1322.817
45,1270.678
46,1215.095
47,1157.393
48,1098.853
49,1040.709
50,983.979
51,929.279
52,876.963
53,827.031
54,779.395
55,734.011
56,691.098
57,651.012
58,614.104
59,580.639
60,550.707
61,524.350
62,501.702
63,482.762
64,467.354
65,455.170
66,446.119
67,440.027
68,436.848
69,436.539
70,439.232
71,444.971
72,454.022
73,466.295
74,481.703
75,500.024
76,521.083
77,544.438
78,569.646
79,596.312
80,624.258
81,653.352
82,683.417
83,714.276
84,745.931
85,778.556
86,812.286
87,847.384
88,883.983
89,922.259
90,961.904
91,1002.300
92,1042.652
93,1082.253
94,1120.441
95,1156.864
96,1191.299
97,1223.616
98,1253.460
99,1280.435
100,1304.363
101,1324.936
102,1342.154
103,1355.928
104,1366.303
105,1373.367
106,1377.120
107,1377.649
108,1375.177
109,1370.056
110,1362.551
111,1352.882
112,1341.006
113,1326.791
114,1310.191
115,1291.428
116,1270.722
117,1248.295
118,1224.278
119,1198.849
120,1172.227
121,1144.811
122,1116.821
123,1088.831
124,1061.282
125,1034.705
126,1009.540
127,986.142
128,964.774
129,945.614
130,928.881
131,914.798
132,903.540
133,895.329
134,890.516
135,889.457
136,892.547
137,900.185
138,912.591
139,929.985
140,952.368
141,979.564
142,1011.351
143,1047.376
144,1087.065
145,1129.580
146,1173.993
147,1219.245
148,1264.276
149,1308.027
150,1349.704
151,1388.422
152,1423.299
153,1453.452
154,1477.910
155,1496.144
156,1507.931
157,1513.626
158,1513.715
159,1508.858
160,1499.940
161,1488.109
162,1474.599
163,1460.604
164,1447.227
165,1434.998
166,1424.182
167,1414.557
168,1405.816
169,1397.428
170,1389.172
171,1380.828
172,1372.352
173,1363.478
174,1353.986
175,1343.832
176,1333.148
177,1322.376
178,1312.177
179,1303.259
180,1296.240
181,1291.737
182,1290.059
183,1291.472
184,1296.063
185,1303.657
186,1313.988
187,1326.791
188,1341.845
189,1359.019
190,1378.047
191,1398.576
192,1420.208
193,1442.680
194,1465.946
195,1489.963
196,1514.730
197,1540.248
198,1566.428
199,1593.358
200,1620.995
201,1649.118
202,1677.196
203,1704.745
204,1731.189
205,1756.354
206,1780.106
207,1802.666
208,1824.166
209,1844.651
210,1864.208
211,1882.795
212,1900.543
213,1917.407
214,1933.389
215,1948.444
216,1962.306
217,1974.888
218,1985.970
219,1995.285
220,2002.614
221,2007.779
222,2010.649
223,2011.178
224,2009.280
225,2005.174
226,1998.949
227,1990.782
228,1980.848
229,1969.370
230,1956.479
231,1942.439
232,1927.208
233,1910.873
234,1893.391
235,1875.025
236,1855.909
237,1836.351
238,1816.749
239,1797.412
240,1778.561
241,1760.372
242,1742.845
243,1725.892
244,1709.380
245,1693.354
246,1677.814
247,1662.715
248,1648.102
249,1633.887
250,1619.891
251,1605.852
252,1591.460
253,1576.538
254,1561.174
255,1545.546
256,1529.873
257,1514.421
258,1499.455
259,1485.107
260,1471.641
261,1459.236
262,1448.154
263,1438.530
264,1430.363
265,1423.740
266,1418.575
267,1414.867
268,1412.571
269,1411.688
270,1412.173
271,1414.204
272,1417.604
273,1422.151
274,1427.449
275,1433.276
276,1439.457
277,1445.682
278,1451.421
279,1456.145
280,1459.191
281,1459.942
282,1457.955
283,1452.834
284,1444.358
285,1432.349
286,1416.765
287,1397.869
288,1376.193
289,1352.485
290,1327.497
291,1302.200
292,1277.389
293,1253.813
294,1231.916
295,1212.181
296,1194.964
297,1180.439
298,1168.607
299,1159.512
300,1152.978
301,1148.564
302,1145.826
303,1144.061
304,1142.559
305,1140.705
306,1138.012
307,1134.127
308,1128.785
309,1121.986
310,1113.995
311,1105.254
312,1096.160
313,1087.242
314,1079.030
315,1072.055
316,1067.066
317,1064.638
318,1065.300
319,1069.538
320,1077.750
321,1090.111
322,1106.711
323,1127.461
324,1151.919
325,1179.732
326,1210.548
327,1243.968
328,1279.640
329,1316.945
330,1355.134
331,1393.234
332,1430.407
333,1465.902
334,1499.234
335,1530.005
336,1557.731
337,1581.880
338,1601.791
339,1616.934
340,1626.823
341,1631.105
342,1629.472
343,1621.834
344,1608.413
345,1589.694
346,1566.693
347,1540.733
348,1513.450
349,1486.387
350,1461.399
351,1439.987
352,1423.564
353,1412.968
354,1408.509
355,1409.745
356,1415.661
357,1424.976
358,1436.278
359,1448.508
360,1461.178
361,1474.069
362,1487.446
363,1502.104
364,1519.012
365,1539.541
366,1564.750
367,1595.433
368,1631.723
369,1673.355
370,1719.402
371,1768.627
372,1819.707
373,1871.184
374,1921.866
375,1970.385
376,2015.461
377,2056.166
378,2091.705
379,2121.638
380,2145.698
381,2163.888
382,2176.161
383,2182.651
384,2183.534
385,2178.986
386,2169.185
387,2154.484
388,2135.059
389,2111.219
390,2083.405
391,2051.971
392,2017.315
393,1980.010
394,1940.497
395,1899.306
396,1856.836
397,1813.129
398,1768.230
399,1722.139
400,1674.724
401,1625.896
402,1575.346
403,1522.942
404,1468.639
405,1412.350
406,1354.339
407,1294.827
408,1234.300
409,1173.331
410,1112.627
411,1053.159
412,996.075
413,943.141
414,896.521
415,858.730
416,831.843
417,817.230
418,815.288
419,825.354
420,846.147
421,875.727
422,911.884
423,952.059
424,993.647
425,1034.352
426,1072.099
427,1105.387
428,1133.421
429,1155.804
430,1172.845
431,1185.074
432,1193.374
433,1199.025
434,1203.440
435,1208.031
436,1213.991
437,1222.291
438,1233.814
439,1248.869
440,1267.632
441,1290.147
442,1316.372
443,1346.260
444,1379.724
445,1416.412
446,1455.924
447,1497.821
448,1541.352
449,1585.544
450,1629.295
451,1671.368
452,1710.572
453,1745.582
454,1775.161
455,1798.074
456,1813.394
457,1820.369
458,1818.647
459,1808.052
460,1788.936
461,1761.961
462,1728.452
463,1690.132
464,1649.250
465,1608.413
466,1570.269
467,1537.599
468,1512.832
469,1497.689
470,1493.142
471,1498.969
472,1514.377
473,1537.864
474,1567.399
475,1601.084
476,1636.844
477,1672.870
478,1707.570
479,1739.357
480,1766.950
481,1789.112
482,1805.006
483,1813.879
484,1815.557
485,1810.038
486,1797.633
487,1779.046
488,1755.206
489,1727.260
490,1696.180
491,1662.848
492,1627.926
493,1591.990
494,1555.744
495,1519.940
496,1485.195
497,1451.995
498,1420.606
499,1391.071
500,1363.610
501,1338.269
502,1315.312
503,1294.915
504,1277.168
505,1262.157
506,1249.752
507,1239.862
508,1232.446
509,1227.501
510,1224.940
511,1224.675
512,1226.795
513,1231.342
514,1238.538
515,1248.251
516,1260.303
517,1274.210
518,1289.662
519,1306.482
520,1324.274
521,1342.772
522,1361.535
523,1380.122
524,1398.178
525,1415.264
526,1430.937
527,1445.064
528,1457.426
529,1467.889
530,1476.056
531,1481.884
532,1485.283
533,1486.431
534,1485.371
535,1482.149
536,1476.674
537,1468.860
538,1458.838
539,1447.007
540,1433.806
541,1419.811
542,1405.375
543,1390.894
544,1376.678
545,1363.080
546,1350.587
547,1339.373
548,1329.528
549,1321.007
550,1313.678
551,1307.498
552,1302.244
553,1297.829
554,1294.077
555,1290.721
556,1287.543
557,1284.364
558,1281.274
559,1278.448
560,1276.064
561,1274.386
562,1273.503
563,1273.459
564,1274.386
565,1276.329
566,1279.243
567,1282.995
568,1287.631
569,1293.017
570,1299.021
571,1305.599
572,1312.707
573,1320.257
574,1328.247
575,1336.591
576,1345.333
577,1354.427
578,1363.831
579,1373.720
580,1384.139
581,1395.265
582,1407.141
583,1419.502
584,1431.952
585,1443.916
586,1454.865
587,1464.578
588,1472.966
589,1480.162
590,1486.122
591,1490.713
592,1493.715
593,1494.952
594,1494.201
595,1491.596
596,1487.358
597,1481.663
598,1474.467
599,1465.725
600,1455.395
601,1443.695
602,1431.025
603,1417.913
604,1404.668
605,1391.424
606,1378.179
607,1364.935
608,1351.690
609,1338.534
610,1325.731
611,1313.546
612,1302.200
613,1292.002
614,1283.128
615,1275.711
616,1269.574
617,1264.497
618,1260.127
619,1256.418
620,1253.284
621,1250.546
622,1247.942
623,1245.425
624,1242.865
625,1240.039
626,1236.904
627,1233.417
628,1229.576
629,1225.558
630,1221.762
631,1218.583
632,1216.155
633,1214.389
634,1213.064
635,1211.961
636,1211.034
637,1210.239
638,1209.886
639,1210.371
640,1212.049
641,1215.184
642,1219.775
643,1225.823
644,1233.240
645,1241.893
646,1251.827
647,1262.996
648,1275.269
649,1288.426
650,1302.112
651,1315.930
652,1329.439
653,1342.331
654,1354.427
655,1365.597
656,1375.751
657,1384.934
658,1393.190
659,1400.430
660,1406.611
661,1411.864
662,1416.456
663,1420.871
664,1425.330
665,1430.009
666,1434.822
667,1439.590
668,1444.181
669,1448.508
670,1452.569
671,1456.101
672,1458.971
673,1461.134
674,1462.723
675,1463.695
676,1464.224
677,1464.269
678,1463.827
679,1462.679
680,1460.737
681,1458.044
682,1454.644
683,1450.538
684,1445.682
685,1440.119
686,1433.850
687,1427.051
688,1419.855
689,1412.483
690,1405.110
691,1398.002
692,1391.380
693,1385.331
694,1380.078
695,1375.574
696,1371.822
697,1368.731
698,1366.127
699,1364.008
700,1362.418
701,1361.270
702,1360.564
703,1360.167
704,1360.167
705,1360.741
706,1362.109
707,1364.582
708,1368.246
709,1373.279
710,1379.504
711,1386.523
712,1393.984
713,1401.622
714,1409.392
715,1417.339
716,1425.330
717,1433.321
718,1441.135
719,1448.817
720,1456.498
721,1464.180
722,1471.818
723,1479.191
724,1486.166
725,1492.568
726,1498.174
727,1502.898
728,1506.695
729,1509.918
730,1512.920
731,1516.055
732,1519.498
733,1523.207
734,1527.003
735,1530.933
736,1534.862
737,1538.747
738,1542.411
739,1545.722
740,1548.548
741,1550.932
742,1552.830
743,1554.155
744,1554.861
745,1555.038
746,1554.905
747,1554.508
748,1553.978
749,1553.316
750,1552.477
751,1551.373
752,1550.049
753,1548.459
754,1546.649
755,1544.619
756,1542.455
757,1540.160
758,1537.820
759,1535.480
760,1533.228
761,1530.933
762,1528.637
763,1526.253
764,1523.781
765,1521.132
766,1518.218
767,1514.995
768,1511.375
769,1507.269
770,1502.810
771,1498.219
772,1493.671
773,1489.433
774,1485.725
775,1482.723
776,1480.427
777,1478.837
778,1478.043
779,1477.999
780,1478.705
781,1479.941
782,1481.663
783,1483.561
784,1485.548
785,1487.491
786,1489.345
787,1491.022
788,1492.612
789,1494.025
790,1495.172
791,1495.923
792,1496.188
793,1495.923
794,1495.172
795,1494.069
796,1492.523
797,1490.758
798,1488.771
799,1486.608
800,1484.179
801,1481.531
802,1478.837
803,1476.233
804,1474.025
805,1472.304
806,1471.112
807,1470.405
808,1469.920
809,1469.213
810,1467.845
811,1465.372
812,1461.796
813,1457.205
814,1452.084
815,1446.786
816,1441.665
817,1436.720
818,1431.731
819,1426.301
820,1419.855
821,1412.041
822,1402.417
823,1390.629
824,1376.413
825,1359.593
826,1340.167
827,1318.093
828,1293.547
829,1266.925
830,1238.626
831,1208.959
832,1177.922
833,1145.164
834,1110.375
835,1073.114
836,1032.895
837,989.541
838,943.009
839,893.474
840,841.291
841,786.680
842,730.258
843,672.644
844,615.031
845,558.874
846,505.896
847,457.598
848,415.392
849,380.515
850,353.893
851,336.057
852,327.183
853,327.095
854,335.528
855,351.730
856,374.731
857,403.163
858,435.479
859,470.092
860,505.675
861,541.347
862,576.357
863,610.219
864,642.491
865,672.821
866,700.855
867,726.594
868,750.345
869,772.552
870,793.787
871,814.625
872,835.728
873,857.582
874,880.495
875,904.379
876,929.235
877,954.885
878,981.330
879,1008.481
880,1036.294
881,1064.593
882,1093.069
883,1121.236
884,1148.608
885,1174.523
886,1198.540
887,1220.349
888,1239.951
889,1257.169
890,1271.782
891,1283.702
892,1292.929
893,1299.419
894,1303.171
895,1304.275
896,1302.862
897,1298.845
898,1292.178
899,1282.775
900,1270.457
901,1255.138
902,1236.640
903,1214.830
904,1189.489
905,1160.528
906,1127.858
907,1091.259
908,1050.289
909,1004.552
910,953.649
911,897.315
912,835.375
913,768.005
914,695.646
915,619.269
916,540.155
917,459.982
918,380.647
919,304.094
920,232.265
921,167.057
922,110.283
923,63.265
924,26.577
925,-0.177
926,-17.792
927,-27.195
928,-29.050
929,-23.487
930,-10.154
931,11.699
932,43.000
933,84.500
934,136.507
935,198.932
936,271.159
937,352.127
938,440.380
939,534.239
940,631.807
941,731.141
942,830.386
943,927.998
944,1022.564
945,1112.936
946,1198.275
947,1277.742
948,1350.631
949,1416.456
950,1474.952
951,1526.032
952,1569.474
953,1605.190
954,1633.224
955,1653.797
956,1667.307
957,1674.238
958,1675.254
959,1670.971
960,1662.230
961,1649.692
962,1633.887
963,1615.432
964,1594.992
965,1573.094
966,1550.270
967,1526.738
968,1502.633
969,1478.175
970,1453.629
971,1429.612
972,1406.567
973,1385.155
974,1365.729
975,1348.688
976,1334.031
977,1321.758
978,1311.824
979,1304.187
980,1298.756
981,1295.489
982,1294.165
983,1294.651
984,1296.681
985,1300.125
986,1304.849
987,1310.809
988,1317.917
989,1326.217
990,1335.576
991,1345.907
992,1357.032
993,1368.820
994,1380.961
995,1393.322
996,1405.772
997,1418.001
998,1429.833
999,1440.914
1000,1450.892
1001,1459.545
1002,1466.476
1003,1471.553
1004,1474.511
1005,1475.438
1006,1474.246
1007,1471.067
1008,1466.167
1009,1459.765
1010,1452.304
1011,1444.093
1012,1435.572
1013,1427.096
1014,1418.884
1015,1411.202
1016,1404.227
1017,1398.134
1018,1393.146
1019,1389.349
1020,1386.479
1021,1384.272
1022,1382.550
1023,1381.225
1024,1380.298
1025,1379.769
1026,1379.283
1027,1378.753
1028,1378.003
1029,1377.208
1030,1376.281
1031,1375.089
1032,1373.500
1033,1371.557
1034,1369.394
1035,1367.363
1036,1365.553
1037,1364.228
1038,1363.478
1039,1363.566
1040,1364.626
1041,1366.657
1042,1369.659
1043,1373.764
1044,1379.018
1045,1385.552
1046,1393.234
1047,1401.975
1048,1411.511
1049,1421.754
1050,1432.570
1051,1443.960
1052,1456.013
1053,1468.683
1054,1481.751
1055,1495.040
1056,1508.284
1057,1521.176
1058,1533.537
1059,1545.325
1060,1556.406
1061,1566.737
1062,1576.140
1063,1584.440
1064,1591.372
1065,1596.978
1066,1601.217
1067,1604.219
1068,1606.205
1069,1607.265
1070,1607.530
1071,1606.956
1072,1605.411
1073,1602.806
1074,1599.230
1075,1595.036
1076,1590.621
1077,1586.206
1078,1581.703
1079,1576.935
1080,1571.549
1081,1565.368
1082,1558.172
1083,1549.651
1084,1539.586
1085,1527.798
1086,1514.377
1087,1499.587
1088,1483.650
1089,1467.050
1090,1449.788
1091,1431.731
1092,1412.615
1093,1392.042
1094,1369.482
1095,1344.450
1096,1316.327
1097,1284.541
1098,1248.648
1099,1208.650
1100,1164.634
1101,1116.644
1102,1064.770
1103,1009.055
1104,949.631
1105,886.808
1106,821.027
1107,752.994
1108,683.726
1109,614.236
1110,545.718
1111,479.363
1112,416.496
1113,358.573
1114,307.052
1115,263.212
1116,228.247
1117,203.436
1118,189.882
1119,188.734
1120,200.963
1121,227.232
1122,267.716
1123,322.504
1124,391.199
1125,473.138
1126,567.306
1127,672.512
1128,787.474
1129,910.781
1130,1040.974
1131,1176.686
1132,1316.592
1133,1459.103
1134,1602.674
1135,1745.758
1136,1886.857
1137,2024.467
1138,2156.824
1139,2281.896
1140,2397.432
1141,2501.181
1142,2590.890
1143,2664.751
1144,2722.143
1145,2763.687
1146,2791.368
1147,2807.924
1148,2816.003
1149,2818.210
1150,2816.709
1151,2813.133
1152,2808.718
1153,2804.259
1154,2800.286
1155,2796.975
1156,2794.414
1157,2792.604
1158,2791.368
1159,2790.662
1160,2790.264
1161,2790.132
1162,2790.176
1163,2790.264
1164,2790.441
1165,2790.750
1166,2791.147
1167,2791.810
1168,2792.737
1169,2794.061
1170,2795.783
1171,2797.946
1172,2800.463
1173,2803.244
1174,2805.849
1175,2807.791
1176,2808.321
1177,2806.246
1178,2800.286
1179,2788.808
1180,2770.133
1181,2742.628
1182,2705.146
1183,2657.245
1184,2599.102
1185,2531.820
1186,2456.768
1187,2375.888
1188,2291.079
1189,2204.416
1190,2117.841
1191,2033.076
1192,1951.357
1193,1873.612
1194,1800.282
1195,1731.587
1196,1667.483
1197,1607.883
1198,1552.698
1199,1501.706
1200,1454.909
1201,1412.173
1202,1373.323
1203,1338.004
1204,1305.908
1205,1276.506
1206,1249.443
1207,1224.101
1208,1200.261
1209,1177.657
1210,1156.290
1211,1135.981
1212,1116.733
1213,1098.323
1214,1080.796
1215,1064.152
1216,1048.523
1217,1034.087
1218,1021.151
1219,1010.203
1220,1001.682
1221,996.075
1222,993.647
1223,994.574
1224,998.768
1225,1005.832
1226,1015.236
1227,1026.317
1228,1038.678
1229,1051.835
1230,1065.476
1231,1079.339
1232,1093.157
1233,1106.711
1234,1119.646
1235,1131.655
1236,1142.074
1237,1150.330
1238,1155.804
1239,1157.923
1240,1156.025
1241,1149.535
1242,1137.791
1243,1120.397
1244,1097.087
1245,1067.507
1246,1031.438
1247,988.349
1248,937.579
1249,878.508
1250,810.608
1251,734.099
1252,649.687
1253,559.316
1254,465.986
1255,373.628
1256,286.964
1257,210.720
1258,149.442
1259,107.016
1260,86.487
1261,89.533
1262,116.463
1263,165.910
1264,234.958
1265,319.458
1266,414.288
1267,513.931
1268,613.044
1269,707.213
1270,793.214
1271,869.060
1272,933.958
1273,987.996
1274,1032.277
1275,1068.346
1276,1098.323
1277,1124.238
1278,1147.857
1279,1170.594
1280,1193.242
1281,1216.287
1282,1239.686
1283,1263.217
1284,1286.395
1285,1308.513
1286,1328.777
1287,1346.657
1288,1361.977
1289,1374.956
1290,1386.126
1291,1396.103
1292,1405.419
1293,1414.822
1294,1424.623
1295,1435.175
1296,1446.874
1297,1460.074
1298,1475.261
1299,1492.656
1300,1512.302
1301,1534.067
1302,1557.686
1303,1582.983
1304,1609.693
1305,1637.683
1306,1666.556
1307,1695.959
1308,1725.759
1309,1756.001
1310,1786.728
1311,1818.029
1312,1849.904
1313,1882.442
1314,1915.376
1315,1948.311
1316,1980.672
1317,2011.841
1318,2041.243
1319,2068.483
1320,2092.985
1321,2114.309
1322,2132.057
1323,2145.919
1324,2155.941
1325,2162.298
1326,2165.256
1327,2165.168
1328,2162.519
1329,2157.707
1330,2151.217
1331,2143.359
1332,2134.396
1333,2124.507
1334,2113.823
1335,2102.389
1336,2090.160
1337,2076.915
1338,2062.390
1339,2046.453
1340,2029.235
1341,2010.913
1342,1991.797
1343,1972.372
1344,1952.947
1345,1934.095
1346,1916.215
1347,1899.351
1348,1883.413
1349,1867.917
1350,1852.465
1351,1836.748
1352,1820.369
1353,1803.019
1354,1784.300
1355,1764.036
1356,1742.006
1357,1718.077
1358,1692.162
1359,1664.172
1360,1634.151
1361,1602.232
1362,1568.812
1363,1534.155
1364,1498.793
1365,1463.165
1366,1427.714
1367,1392.836
1368,1358.931
1369,1326.128
1370,1294.562
1371,1264.497
1372,1236.066
1373,1209.400
1374,1184.500
1375,1161.190
1376,1139.072
1377,1117.571
1378,1096.071
1379,1074.085
1380,1051.217
1381,1027.244
1382,1001.859
1383,974.398
1384,944.201
1385,910.604
1386,872.945
1387,830.828
1388,784.251
1389,733.834
1390,680.724
1391,626.509
1392,573.311
1393,523.290
1394,478.833
1395,442.057
1396,414.906
1397,398.704
1398,394.245
1399,401.882
1400,421.396
1401,451.991
1402,492.519
1403,541.568
1404,597.416
1405,658.120
1406,721.561
1407,785.841
1408,849.238
1409,910.207
1410,967.511
1411,1019.871
1412,1066.448
1413,1106.755
1414,1140.882
1415,1169.225
1416,1192.359
1417,1210.945
1418,1225.603
1419,1236.772
1420,1245.116
1421,1251.164
1422,1255.668
1423,1259.199
1424,1262.422
1425,1265.954
1426,1270.369
1427,1276.285
1428,1284.276
1429,1295.224
1430,1310.235
1431,1330.411
1432,1356.547
1433,1389.128
1434,1428.111
1435,1473.098
1436,1523.383
1437,1577.730
1438,1634.725
1439,1692.692
1440,1750.129
1441,1805.359
1442,1856.968
1443,1903.633
1444,1944.294
1445,1978.023
1446,2004.203
1447,2022.392
1448,2032.414
1449,2034.268
1450,2028.131
1451,2014.048
1452,1992.239
1453,1962.924
1454,1926.458
1455,1883.236
1456,1833.570
1457,1777.678
1458,1715.561
1459,1647.396
1460,1573.271
1461,1493.451
1462,1408.200
1463,1317.740
1464,1222.380
1465,1122.295
1466,1017.929
1467,909.942
1468,799.571
1469,688.714
1470,579.756
1471,475.434
1472,378.528
1473,291.600
1474,216.989
1475,156.373
1476,111.077
1477,81.674
1478,67.988
1479,69.269
1480,84.235
1481,111.121
1482,147.897
1483,192.443
1484,242.507
1485,295.926
1486,350.935
1487,406.077
1488,460.423
1489,513.313
1490,564.393
1491,613.662
1492,661.033
1493,706.594
1494,750.478
1495,792.595
1496,832.947
1497,871.533
1498,908.573
1499,944.245
1500,978.857
1501,1012.587
1502,1045.654
1503,1077.970
1504,1109.316
1505,1139.425
1506,1167.945
1507,1194.831
1508,1220.172
1509,1244.321
1510,1267.632
1511,1290.545
1512,1313.237
1513,1335.929
1514,1358.710
1515,1381.755
1516,1404.933
1517,1427.934
1518,1450.450
1519,1472.171
1520,1493.053
1521,1512.920
1522,1531.771
1523,1549.607
1524,1566.693
1525,1583.116
1526,1598.921
1527,1614.240
1528,1629.118
1529,1643.467
1530,1657.241
1531,1670.353
1532,1682.582
1533,1693.708
1534,1703.553
1535,1711.897
1536,1718.740
1537,1724.126
1538,1728.276
1539,1731.234
1540,1733.000
1541,1733.485
1542,1732.514
1543,1729.953
1544,1725.627
1545,1719.446
1546,1711.455
1547,1701.743
1548,1690.352
1549,1677.328
1550,1662.760
1551,1646.822
1552,1629.737
1553,1611.768
1554,1593.314
1555,1574.772
1556,1556.583
1557,1538.879
1558,1521.838
1559,1505.415
1560,1489.433
1561,1473.893
1562,1458.750
1563,1444.269
1564,1430.716
1565,1418.133
1566,1406.611
1567,1396.059
1568,1386.612
1569,1378.312
1570,1371.204
1571,1365.288
1572,1360.520
1573,1356.988
1574,1354.913
1575,1354.427
1576,1355.840
1577,1359.284
1578,1364.979
1579,1372.970
1580,1383.345
1581,1395.750
1582,1409.701
1583,1424.712
1584,1440.296
1585,1456.101
1586,1471.950
1587,1487.535
1588,1502.722
1589,1517.202
1590,1530.756
1591,1543.029
1592,1553.801
1593,1562.984
1594,1570.445
1595,1575.920
1596,1579.187
1597,1580.246
1598,1579.275
1599,1576.670
1600,1572.829
1601,1568.150
1602,1562.940
1603,1557.510
1604,1551.991
1605,1546.694
1606,1541.837
1607,1537.776
1608,1534.553
1609,1532.080
1610,1530.403
1611,1529.476
1612,1529.343
1613,1530.005
1614,1531.462
1615,1533.626
1616,1536.539
1617,1540.160
1618,1544.619
1619,1550.181
1620,1556.980
1621,1565.103
1622,1574.419
1623,1584.794
1624,1595.963
1625,1607.618
1626,1619.450
1627,1631.061
1628,1642.142
1629,1652.429
1630,1661.700
1631,1669.912
1632,1676.843
1633,1682.273
1634,1686.158
1635,1688.630
1636,1689.911
1637,1690.308
1638,1690.220
1639,1690.132
1640,1690.617
1641,1692.162
1642,1695.253
1643,1700.241
1644,1707.394
1645,1716.797
1646,1728.541
1647,1742.580
1648,1758.871
1649,1777.236
1650,1797.456
1651,1819.177
1652,1842.090
1653,1865.842
1654,1890.035
1655,1914.184
1656,1937.892
1657,1960.805
1658,1982.791
1659,2003.894
1660,2024.246
1661,2043.892
1662,2063.053
1663,2081.948
1664,2100.623
1665,2119.033
1666,2136.825
1667,2153.513
1668,2168.523
1669,2181.282
1670,2191.348
1671,2198.412
1672,2202.429
1673,2203.444
1674,2201.502
1675,2196.646
1676,2188.875
1677,2177.883
1678,2163.314
1679,2144.462
1680,2120.622
1681,2090.690
1682,2053.517
1683,2008.132
1684,1953.741
1685,1890.256
1686,1818.338
1687,1739.269
1688,1655.122
1689,1568.724
1690,1483.296
1691,1402.373
1692,1329.351
1693,1267.455
1694,1219.378
1695,1187.061
1696,1171.609
1697,1173.154
1698,1191.255
1699,1224.499
1700,1271.164
1701,1329.219
1702,1396.589
1703,1471.023
1704,1550.270
1705,1632.076
1706,1714.325
1707,1795.293
1708,1873.215
1709,1946.413
1710,2013.474
1711,2073.251
1712,2124.993
1713,2168.214
1714,2202.915
1715,2229.183
1716,2247.416
1717,2257.924
1718,2261.279
1719,2258.056
1720,2248.917
1721,2234.392
1722,2214.835
1723,2190.332
1724,2161.150
1725,2127.377
1726,2089.321
1727,2047.380
1728,2001.951
1729,1953.653
1730,1903.191
1731,1851.052
1732,1797.765
1733,1743.860
1734,1689.734
1735,1635.697
1736,1582.012
1737,1528.681
1738,1475.968
1739,1424.049
1740,1373.367
1741,1324.274
1742,1276.991
1743,1231.607
1744,1188.165
1745,1146.930
1746,1108.124
1747,1071.966
1748,1038.458
1749,1007.819
1750,980.226
1751,955.900
1752,935.150
1753,918.153
1754,905.174
1755,896.300
1756,891.532
1757,890.384
1758,892.327
1759,896.741
1760,903.099
1761,910.825
1762,919.345
1763,928.263
1764,937.270
1765,946.099
1766,954.929
1767,963.759
1768,972.897
1769,982.478
1770,992.676
1771,1003.448
1772,1014.662
1773,1026.096
1774,1037.531
1775,1048.877
1776,1060.223
1777,1071.745
1778,1083.357
1779,1095.012
1780,1106.711
1781,1118.543
1782,1130.816
1783,1143.663
1784,1157.084
1785,1171.168
1786,1185.913
1787,1201.233
1788,1217.214
1789,1233.682
1790,1250.635
1791,1268.029
1792,1285.909
1793,1304.275
1794,1323.170
1795,1342.463
1796,1362.109
1797,1382.064
1798,1402.196
1799,1422.460
1800,1442.945
1801,1463.606
1802,1484.577
1803,1505.856
1804,1527.710
1805,1550.181
1806,1573.271
1807,1596.714
1808,1620.112
1809,1642.981
1810,1664.790
1811,1685.099
1812,1703.641
1813,1720.152
1814,1734.589
1815,1746.906
1816,1757.060
1817,1765.007
1818,1770.879
1819,1774.896
1820,1777.325
1821,1778.517
1822,1778.826
1823,1778.296
1824,1776.971
1825,1774.941
1826,1772.424
1827,1769.863
1828,1767.744
1829,1766.376
1830,1765.934
1831,1766.552
1832,1768.142
1833,1770.614
1834,1773.837
1835,1777.810
1836,1782.534
1837,1788.008
1838,1794.366
1839,1801.650
1840,1809.906
1841,1819.045
1842,1828.890
1843,1839.176
1844,1849.375
1845,1859.131
1846,1868.005
1847,1875.687
1848,1882.044
1849,1886.857
1850,1890.079
1851,1891.669
1852,1891.580
1853,1890.079
1854,1887.386
1855,1883.722
1856,1879.175
1857,1873.700
1858,1867.255
1859,1859.882
1860,1851.715
1861,1842.973
1862,1833.967
1863,1824.696
1864,1815.204
1865,1805.579
1866,1795.955
1867,1786.552
1868,1777.545
1869,1769.157
1870,1761.828
1871,1755.736
1872,1750.968
1873,1747.480
1874,1745.185
1875,1744.037
1876,1743.948
1877,1744.743
1878,1746.288
1879,1748.319
1880,1750.703
1881,1753.131
1882,1755.250
1883,1756.972
1884,1758.341
1885,1759.577
1886,1760.901
1887,1762.491
1888,1764.433
1889,1766.641
1890,1769.025
1891,1771.188
1892,1772.866
1893,1773.881
1894,1774.234
1895,1773.837
1896,1772.689
1897,1770.570
1898,1767.082
1899,1761.873
1900,1754.456
1901,1744.611
1902,1732.117
1903,1716.974
1904,1699.447
1905,1679.977
1906,1659.360
1907,1638.301
1908,1617.684
1909,1598.126
1910,1580.114
1911,1563.779
1912,1549.078
1913,1536.054
1914,1524.663
1915,1514.818
1916,1506.519
1917,1499.631
1918,1493.936
1919,1489.345
1920,1485.813
1921,1483.561
1922,1482.899
1923,1484.224
1924,1487.800
1925,1493.583
1926,1501.441
1927,1510.933
1928,1521.617
1929,1533.096
1930,1545.060
1931,1557.201
1932,1569.077
1933,1580.202
1934,1590.135
1935,1598.347
1936,1604.395
1937,1607.971
1938,1609.163
1939,1608.148
1940,1605.102
1941,1600.245
1942,1593.579
1943,1585.014
1944,1574.463
1945,1561.748
1946,1546.782
1947,1529.652
1948,1510.359
1949,1489.080
1950,1465.946
1951,1441.223
1952,1415.440
1953,1388.996
1954,1362.198
1955,1335.267
1956,1308.381
1957,1281.759
1958,1255.668
1959,1230.326
1960,1206.045
1961,1182.911
1962,1161.058
1963,1140.529
1964,1121.501
1965,1104.062
1966,1088.345
1967,1074.262
1968,1061.768
1969,1050.996
1970,1042.166
1971,1035.279
1972,1030.334
1973,1027.156
1974,1025.522
1975,1025.213
1976,1026.008
1977,1027.641
1978,1029.849
1979,1032.409
1980,1035.147
1981,1037.928
1982,1040.533
1983,1042.784
1984,1044.550
1985,1045.654
1986,1045.875
1987,1045.168
1988,1043.446
1989,1040.930
1990,1037.795
1991,1034.175
1992,1030.202
1993,1026.052
1994,1021.770
1995,1017.443
1996,1013.205
1997,1009.320
1998,1006.318
1999,1004.508
2000,1004.199
2001,1005.611
2002,1008.746
2003,1013.602
2004,1020.136
2005,1028.215
2006,1037.840
2007,1049.053
2008,1061.768
2009,1075.940
2010,1091.656
2011,1109.051
2012,1128.344
2013,1149.491
2014,1172.271
2015,1196.376
2016,1221.717
2017,1248.162
2018,1275.755
2019,1304.363
2020,1333.898
2021,1364.449
2022,1396.015
2023,1428.641
2024,1462.017
2025,1495.967
2026,1529.961
2027,1563.558
2028,1596.051
2029,1627.044
2030,1656.181
2031,1683.200
2032,1707.967
2033,1730.351
2034,1750.438
2035,1768.230
2036,1784.079
2037,1798.163
2038,1810.833
2039,1822.223
2040,1832.554
2041,1841.781
2042,1849.904
2043,1856.703
2044,1862.045
2045,1865.621
2046,1867.343
2047,1867.122
2048,1865.224
2049,1861.913
2050,1857.542
2051,1852.553
2052,1847.211
2053,1841.825
2054,1836.660
2055,1831.759
2056,1827.080
2057,1822.312
2058,1817.190
2059,1811.584
2060,1805.447
2061,1799.001
2062,1792.423
2063,1785.889
2064,1779.532
2065,1773.263
2066,1767.038
2067,1760.813
2068,1754.456
2069,1747.833
2070,1740.902
2071,1733.485
2072,1725.538
2073,1717.018
2074,1707.879
2075,1697.946
2076,1687.174
2077,1675.430
2078,1662.715
2079,1649.029
2080,1634.460
2081,1619.141
2082,1603.203
2083,1586.780
2084,1570.048
2085,1553.272
2086,1536.804
2087,1520.823
2088,1505.591
2089,1491.331
2090,1478.131
2091,1466.211
2092,1455.527
2093,1446.035
2094,1437.780
2095,1430.760
2096,1425.021
2097,1420.518
2098,1417.162
2099,1414.911
2100,1413.542
2101,1412.880
2102,1412.615
2103,1412.394
2104,1411.909
2105,1410.937
2106,1409.216
2107,1406.522
2108,1402.770
2109,1397.914
2110,1391.954
2111,1384.801
2112,1376.369
2113,1366.612
2114,1355.796
2115,1344.141
2116,1331.868
2117,1319.109
2118,1305.908
2119,1292.222
2120,1277.874
2121,1262.775
2122,1246.838
2123,1230.061
2124,1212.490
2125,1194.478
2126,1176.377
2127,1158.409
2128,1140.882
2129,1124.017
2130,1108.035
2131,1093.246
2132,1079.869
2133,1068.125
2134,1058.236
2135,1050.245
2136,1044.153
2137,1039.694
2138,1036.692
2139,1035.014
2140,1034.573
2141,1035.411
2142,1037.575
2143,1041.107
2144,1045.963
2145,1052.099
2146,1059.561
2147,1068.214
2148,1077.706
2149,1087.639
2150,1097.528
2151,1107.064
2152,1115.894
2153,1123.752
2154,1130.595
2155,1136.467
2156,1141.279
2157,1144.988
2158,1147.504
2159,1148.784
2160,1148.961
2161,1147.990
2162,1146.135
2163,1143.840
2164,1141.456
2165,1139.116
2166,1136.732
2167,1134.348
2168,1131.831
2169,1129.183
2170,1126.225
2171,1122.869
2172,1119.205
2173,1115.452
2174,1111.744
2175,1108.168
2176,1104.945
2177,1102.208
2178,1100.045
2179,1098.455
2180,1097.572
2181,1097.396
2182,1098.102
2183,1099.780
2184,1102.605
2185,1106.579
2186,1111.788
2187,1118.278
2188,1126.048
2189,1135.275
2190,1146.047
2191,1158.585
2192,1173.066
2193,1189.666
2194,1208.385
2195,1229.134
2196,1251.562
2197,1275.358
2198,1300.125
2199,1325.731
2200,1351.911
2201,1378.356
2202,1404.668
2203,1430.495
2204,1455.439
2205,1479.279
2206,1501.839
2207,1523.207
2208,1543.559
2209,1563.028
2210,1581.659
2211,1599.318
2212,1615.742
2213,1630.620
2214,1643.643
2215,1654.725
2216,1663.996
2217,1671.457
2218,1677.152
2219,1681.214
2220,1683.774
2221,1684.966
2222,1684.569
2223,1682.715
2224,1679.403
2225,1674.856
2226,1669.161
2227,1662.406
2228,1654.857
2229,1646.778
2230,1638.390
2231,1630.046
2232,1621.922
2233,1614.373
2234,1607.662
2235,1602.100
2236,1597.950
2237,1595.566
2238,1594.948
2239,1596.140
2240,1598.833
2241,1602.850
2242,1608.060
2243,1614.152
2244,1621.039
2245,1628.545
2246,1636.580
2247,1645.144
2248,1654.062
2249,1663.157
2250,1672.075
2251,1680.507
2252,1688.057
2253,1694.414
2254,1699.491
2255,1703.332
2256,1706.113
2257,1707.967
2258,1708.895
2259,1708.939
2260,1708.056
2261,1706.422
2262,1704.127
2263,1701.345
2264,1698.167
2265,1694.723
2266,1690.926
2267,1686.688
2268,1681.920
2269,1676.490
2270,1670.353
2271,1663.598
2272,1656.314
2273,1648.500
2274,1640.200
2275,1631.458
2276,1622.275
2277,1612.872
2278,1603.557
2279,1594.594
2280,1586.118
2281,1577.995
2282,1570.136
2283,1562.278
2284,1554.375
2285,1546.120
2286,1537.290
2287,1527.710
2288,1517.114
2289,1505.326
2290,1492.259
2291,1478.175
2292,1463.562
2293,1448.905
2294,1434.513
2295,1420.562
2296,1407.052
2297,1393.896
2298,1380.916
2299,1368.025
2300,1354.957
2301,1341.624
2302,1328.071
2303,1314.297
2304,1300.346
2305,1286.395
2306,1272.841
2307,1259.906
2308,1247.721
2309,1236.331
2310,1225.603
2311,1215.404
2312,1205.427
2313,1195.449
2314,1185.383
2315,1175.406
2316,1165.693
2317,1156.422
2318,1147.548
2319,1139.116
2320,1130.904
2321,1122.869
2322,1115.099
2323,1107.638
2324,1100.619
2325,1093.952
2326,1087.683
2327,1081.900
2328,1076.514
2329,1071.304
2330,1066.050
2331,1060.664
2332,1055.146
2333,1049.539
2334,1043.976
2335,1038.458
2336,1033.204
2337,1028.480
2338,1024.551
2339,1021.725
2340,1019.959
2341,1019.253
2342,1019.474
2343,1020.489
2344,1022.167
2345,1024.330
2346,1026.935
2347,1029.893
2348,1033.160
2349,1036.736
2350,1040.577
2351,1044.550
2352,1048.523
2353,1052.276
2354,1055.587
2355,1058.413
2356,1060.708
2357,1062.651
2358,1064.240
2359,1065.609
2360,1066.668
2361,1067.331
2362,1067.463
2363,1067.066
2364,1066.139
2365,1064.814
2366,1063.225
2367,1061.680
2368,1060.444
2369,1059.649
2370,1059.428
2371,1059.870
2372,1061.017
2373,1062.960
2374,1065.830
2375,1069.715
2376,1074.748
2377,1081.061
2378,1088.875
2379,1098.367
2380,1109.581
2381,1122.428
2382,1136.820
2383,1152.581
2384,1169.446
2385,1187.061
2386,1205.074
2387,1223.086
2388,1240.745
2389,1258.007
2390,1274.784
2391,1291.207
2392,1307.454
2393,1323.788
2394,1340.344
2395,1357.076
2396,1373.985
2397,1390.894
2398,1407.847
2399,1424.844
2400,1441.974
2401,1459.015
2402,1475.659
2403,1491.729
2404,1506.872
2405,1520.911
2406,1533.581
2407,1544.751
2408,1554.199
2409,1561.748
2410,1567.355
2411,1571.196
2412,1573.492
2413,1574.463
2414,1574.242
2415,1572.918
2416,1570.578
2417,1567.311
2418,1563.249
2419,1558.569
2420,1553.581
2421,1548.415
2422,1543.250
2423,1538.129
2424,1532.963
2425,1527.842
2426,1522.809
2427,1517.953
2428,1513.406
2429,1509.256
2430,1505.591
2431,1502.501
2432,1500.117
2433,1498.528
2434,1497.556
2435,1497.203
2436,1497.424
2437,1498.219
2438,1499.676
2439,1501.883
2440,1504.973
2441,1508.903
2442,1513.759
2443,1519.851
2444,1527.357
2445,1536.098
2446,1545.899
2447,1556.494
2448,1567.752
2449,1579.716
2450,1592.343
2451,1605.587
2452,1619.406
2453,1633.489
2454,1647.573
2455,1661.303
2456,1674.282
2457,1686.335
2458,1697.593
2459,1708.056
2460,1717.857
2461,1726.951
2462,1735.428
2463,1743.286
2464,1750.703
2465,1757.679
2466,1764.124
2467,1769.996
2468,1775.029
2469,1779.090
2470,1782.137
2471,1784.212
2472,1785.404
2473,1785.624
2474,1784.830
2475,1783.020
2476,1780.327
2477,1776.883
2478,1772.821
2479,1768.230
2480,1763.241
2481,1757.988
2482,1752.601
2483,1747.039
2484,1741.211
2485,1735.075
2486,1728.673
2487,1722.139
2488,1715.517
2489,1708.939
2490,1702.493
2491,1696.312
2492,1690.441
2493,1685.099
2494,1680.286
2495,1676.048
2496,1672.251
2497,1668.720
2498,1665.320
2499,1661.788
2500,1658.036
2501,1654.062
2502,1649.824
2503,1645.365
2504,1640.641
2505,1635.520
2506,1629.825
2507,1623.556
2508,1616.625
2509,1609.208
2510,1601.305
2511,1593.138
2512,1584.705
2513,1576.273
2514,1567.885
2515,1559.629
2516,1551.638
2517,1544.000
2518,1536.848
2519,1530.447
2520,1524.973
2521,1520.381
2522,1516.584
2523,1513.317
2524,1510.448
2525,1507.975
2526,1506.033
2527,1504.664
2528,1503.870
2529,1503.649
2530,1504.090
2531,1505.150
2532,1506.783
2533,1508.814
2534,1510.977
2535,1512.876
2536,1514.509
2537,1515.746
2538,1516.673
2539,1517.335
2540,1517.732
2541,1517.776
2542,1517.379
2543,1516.673
2544,1515.834
2545,1515.083
2546,1514.642
2547,1514.730
2548,1515.525
2549,1516.938
2550,1518.659
2551,1520.337
2552,1521.661
2553,1522.324
2554,1522.279
2555,1521.397
2556,1519.631
2557,1516.938
2558,1513.361
2559,1509.256
2560,1504.885
2561,1500.470
2562,1496.055
2563,1491.596
2564,1487.049
2565,1482.325
2566,1477.425
2567,1472.304
2568,1466.873
2569,1461.222
2570,1455.306
2571,1449.081
2572,1442.636
2573,1436.014
2574,1429.303
2575,1422.637
2576,1416.147
2577,1409.878
2578,1403.918
2579,1398.267
2580,1392.836
2581,1387.539
2582,1382.417
2583,1377.605
2584,1373.190
2585,1369.305
2586,1366.038
2587,1363.610
2588,1362.021
2589,1361.050
2590,1360.387
2591,1359.814
2592,1359.240
2593,1358.842
2594,1358.798
2595,1359.151
2596,1359.814
2597,1360.696
2598,1361.933
2599,1363.434
2600,1365.155
2601,1367.054
2602,1369.129
2603,1371.336
2604,1373.720
2605,1376.457
2606,1379.724
2607,1383.521
2608,1387.715
2609,1392.086
2610,1396.103
2611,1399.459
2612,1401.975
2613,1403.565
2614,1404.359
2615,1404.315
2616,1403.520
2617,1401.887
2618,1399.370
2619,1396.192
2620,1392.527
2621,1388.466
2622,1384.007
2623,1378.886
2624,1372.970
2625,1366.127
2626,1358.489
2627,1350.145
2628,1341.271
2629,1331.868
2630,1321.934
2631,1311.471
2632,1300.522
2633,1289.264
2634,1277.918
2635,1266.351
2636,1254.476
2637,1242.335
2638,1230.238
2639,1218.450
2640,1207.281
2641,1197.039
2642,1188.076
2643,1180.836
2644,1175.627
2645,1172.669
2646,1172.139
2647,1174.126
2648,1178.540
2649,1185.251
2650,1194.081
2651,1204.676
2652,1216.640
2653,1229.488
2654,1242.688
2655,1256.109
2656,1269.618
2657,1283.084
2658,1296.505
2659,1309.705
2660,1322.376
2661,1334.207
2662,1344.891
2663,1354.339
2664,1362.639
2665,1369.879
2666,1375.884
2667,1380.519
2668,1383.742
2669,1385.464
2670,1385.596
2671,1384.051
2672,1380.740
2673,1375.442
2674,1368.069
2675,1358.357
2676,1346.304
2677,1331.956
2678,1315.400
2679,1296.946
2680,1276.903
2681,1255.844
2682,1234.256
2683,1212.711
2684,1191.608
2685,1171.212
2686,1151.831
2687,1133.509
2688,1116.070
2689,1099.294
2690,1082.871
2691,1066.801
2692,1051.084
2693,1035.985
2694,1021.902
2695,1009.143
2696,997.841
2697,988.173
2698,980.226
2699,974.443
2700,970.955
2701,969.895
2702,971.131
2703,974.707
2704,980.712
2705,989.144
2706,999.872
2707,1012.454
2708,1026.361
2709,1041.151
2710,1056.603
2711,1072.761
2712,1089.846
2713,1108.035
2714,1127.417
2715,1147.813
2716,1169.048
2717,1190.814
2718,1212.844
2719,1234.741
2720,1256.065
2721,1276.285
2722,1295.269
2723,1313.016
2724,1329.793
2725,1345.863
2726,1361.359
2727,1376.237
2728,1390.320
2729,1403.388
2730,1415.220
2731,1425.506
2732,1434.027
2733,1440.649
2734,1445.373
2735,1448.375
2736,1449.876
2737,1450.053
2738,1448.993
2739,1446.874
2740,1443.916
2741,1440.296
2742,1436.234
2743,1431.908
2744,1427.537
2745,1423.343
2746,1419.635
2747,1416.544
2748,1414.248
2749,1412.703
2750,1411.909
2751,1411.688
2752,1411.953
2753,1412.571
2754,1413.542
2755,1414.778
2756,1416.279
2757,1418.133
2758,1420.341
2759,1422.857
2760,1425.727
2761,1428.906
2762,1432.305
2763,1436.014
2764,1440.075
2765,1444.534
2766,1449.346
2767,1454.423
2768,1459.721
2769,1465.328
2770,1471.244
2771,1477.248
2772,1483.032
2773,1488.374
2774,1493.009
2775,1496.850
2776,1499.499
2777,1500.691
2778,1500.249
2779,1498.086
2780,1494.201
2781,1488.771
2782,1481.928
2783,1473.716
2784,1464.224
2785,1453.408
2786,1441.311
2787,1428.023
2788,1413.586
2789,1398.090
2790,1381.579
2791,1364.273
2792,1346.348
2793,1328.071
2794,1309.617
2795,1291.339
2796,1273.768
2797,1257.433
2798,1242.600
2799,1229.443
2800,1217.965
2801,1208.076
2802,1199.555
2803,1192.226
2804,1185.913
2805,1180.704
2806,1176.642
2807,1173.861
2808,1172.536
2809,1172.624
2810,1173.993
2811,1176.510
2812,1179.997
2813,1184.677
2814,1190.637
2815,1197.877
2816,1206.221
2817,1215.404
2818,1225.205
2819,1235.536
2820,1246.308
2821,1257.522
2822,1269.177
2823,1281.185
2824,1293.503
2825,1306.217
2826,1319.329
2827,1332.839
2828,1346.790
2829,1361.138
2830,1375.972
2831,1391.291
2832,1407.052
2833,1423.078
2834,1439.148
2835,1454.953
2836,1470.140
2837,1484.400
2838,1497.556
2839,1509.388
2840,1519.675
2841,1528.019
2842,1533.890
2843,1536.893
2844,1536.937
2845,1533.935
2846,1527.886
2847,1518.836
2848,1506.872
2849,1492.347
2850,1475.571
2851,1456.807
2852,1436.411
2853,1414.646
2854,1391.865
2855,1368.687
2856,1345.774
2857,1323.833
2858,1303.304
2859,1284.541
2860,1267.632
2861,1252.665
2862,1239.553
2863,1228.560
2864,1219.819
2865,1213.638
2866,1210.018
2867,1208.959
2868,1210.239
2869,1213.550
2870,1218.583
2871,1224.984
2872,1232.490
2873,1241.010
2874,1250.370
2875,1260.745
2876,1272.223
2877,1284.938
2878,1298.977
2879,1314.120
2880,1330.013
2881,1346.304
2882,1362.639
2883,1378.797
2884,1394.602
2885,1409.966
2886,1424.844
2887,1439.281
2888,1453.276
2889,1466.962
2890,1480.471
2891,1493.892
2892,1507.401
2893,1520.999
2894,1534.553
2895,1547.886
2896,1560.909
2897,1573.271
2898,1584.749
2899,1595.168
2900,1604.660
2901,1613.490
2902,1621.922
2903,1630.001
2904,1637.772
2905,1645.233
2906,1652.561
2907,1659.846
2908,1667.219
2909,1674.856
2910,1682.891
2911,1691.412
2912,1700.639
2913,1710.572
2914,1721.212
2915,1732.337
2916,1743.993
2917,1756.177
2918,1769.157
2919,1783.240
2920,1798.604
2921,1815.292
2922,1833.216
2923,1852.112
2924,1871.581
2925,1891.095
2926,1910.079
2927,1928.135
2928,1944.912
2929,1960.055
2930,1973.387
2931,1984.866
2932,1994.314
2933,2001.598
2934,2006.587
2935,2009.148
2936,2009.236
2937,2006.719
2938,2001.598
2939,1993.828
2940,1983.453
2941,1970.429
2942,1954.889
2943,1937.009
2944,1916.966
2945,1895.024
2946,1871.537
2947,1846.858
2948,1821.208
2949,1794.851
2950,1768.098
2951,1740.946
2952,1713.486
2953,1685.452
2954,1656.755
2955,1627.441
2956,1597.597
2957,1567.355
2958,1536.981
2959,1506.916
2960,1477.469
2961,1448.817
2962,1421.091
2963,1394.161
2964,1367.849
2965,1341.933
2966,1316.416
2967,1291.428
2968,1267.146
2969,1243.792
2970,1221.673
2971,1200.924
2972,1181.896
2973,1164.854
2974,1149.932
2975,1137.262
2976,1126.754
2977,1118.145
2978,1111.391
2979,1106.490
2980,1103.223
2981,1101.413
2982,1100.795
2983,1101.148
2984,1102.340
2985,1104.327
2986,1107.108
2987,1110.552
2988,1114.746
2989,1119.735
2990,1125.695
2991,1132.626
2992,1140.484
2993,1148.961
2994,1157.746
2995,1166.532
2996,1174.964
2997,1182.955
2998,1190.107
2999,1195.935
3000,1199.952
3001,1202.116
3002,1202.557
3003,1201.674
3004,1200.041
3005,1198.054
3006,1195.935
3007,1193.772
3008,1191.343
3009,1188.385
3010,1184.500
3011,1179.379
3012,1172.978
3013,1165.472
3014,1157.084
3015,1148.343
3016,1139.557
3017,1131.081
3018,1123.090
3019,1115.717
3020,1109.095
3021,1103.267
3022,1098.235
3023,1093.952
3024,1090.420
3025,1087.639
3026,1085.652
3027,1084.284
3028,1083.533
3029,1083.312
3030,1083.754
3031,1084.858
3032,1086.756
3033,1089.493
3034,1093.069
3035,1097.396
3036,1102.384
3037,1107.859
3038,1113.731
3039,1119.735
3040,1125.651
3041,1131.213
3042,1136.467
3043,1141.323
3044,1145.782
3045,1149.756
3046,1153.288
3047,1156.378
3048,1159.292
3049,1162.294
3050,1165.649
3051,1169.402
3052,1173.684
3053,1178.673
3054,1184.589
3055,1191.652
3056,1200.041
3057,1209.665
3058,1220.305
3059,1231.607
3060,1243.306
3061,1255.359
3062,1267.852
3063,1280.920
3064,1294.739
3065,1309.352
3066,1324.936
3067,1341.669
3068,1359.460
3069,1378.135
3070,1397.295
3071,1416.544
3072,1435.528
3073,1454.114
3074,1471.906
3075,1488.638
3076,1504.134
3077,1518.439
3078,1531.860
3079,1544.839
3080,1557.775
3081,1571.063
3082,1584.794
3083,1599.142
3084,1614.020
3085,1629.383
3086,1645.056
3087,1660.905
3088,1676.534
3089,1691.544
3090,1705.319
3091,1717.239
3092,1726.686
3093,1733.088
3094,1736.090
3095,1735.207
3096,1730.130
3097,1720.638
3098,1706.908
3099,1689.028
3100,1667.263
3101,1641.745
3102,1612.828
3103,1580.864
3104,1546.384
3105,1509.918
3106,1472.039
3107,1433.365
3108,1394.293
3109,1355.134
3110,1316.107
3111,1277.124
3112,1238.008
3113,1198.716
3114,1159.248
3115,1119.867
3116,1080.708
3117,1041.901
3118,1003.625
3119,966.054
3120,929.544
3121,894.490
3122,861.202
3123,829.901
3124,801.072
3125,774.892
3126,751.537
3127,731.097
3128,713.526
3129,698.824
3130,686.816
3131,677.457
3132,670.746
3133,666.773
3134,665.492
3135,666.728
3136,670.349
3137,676.265
3138,684.476
3139,695.072
3140,708.228
3141,724.077
3142,742.796
3143,764.429
3144,789.064
3145,816.347
3146,845.838
3147,876.875
3148,908.617
3149,940.492
3150,971.882
3151,1002.565
3152,1032.233
3153,1060.885
3154,1088.478
3155,1115.408
3156,1142.074
3157,1168.960
3158,1196.376
3159,1224.411
3160,1252.930
3161,1281.892
3162,1311.030
3163,1340.079
3164,1368.864
3165,1397.075
3166,1424.403
3167,1450.318
3168,1474.423
3169,1496.364
3170,1515.834
3171,1532.698
3172,1546.561
3173,1557.289
3174,1564.706
3175,1568.679
3176,1569.297
3177,1566.693
3178,1561.086
3179,1552.786
3180,1542.146
3181,1529.564
3182,1515.525
3183,1500.382
3184,1484.488
3185,1468.507
3186,1452.922
3187,1438.177
3188,1424.579
3189,1412.306
3190,1401.578
3191,1392.704
3192,1385.949
3193,1381.402
3194,1379.195
3195,1379.283
3196,1381.579
3197,1385.861
3198,1391.821
3199,1399.326
3200,1408.200
3201,1418.487
3202,1430.407
3203,1444.049
3204,1459.677
3205,1477.204
3206,1496.541
3207,1517.423
3208,1539.630
3209,1562.896
3210,1586.824
3211,1610.797
3212,1634.196
3213,1656.535
3214,1677.638
3215,1697.548
3216,1716.356
3217,1734.147
3218,1750.968
3219,1767.038
3220,1782.446
3221,1797.412
3222,1812.069
3223,1826.506
3224,1840.766
3225,1854.672
3226,1868.049
3227,1880.808
3228,1892.861
3229,1904.163
3230,1914.714
3231,1924.294
3232,1932.683
3233,1939.614
3234,1944.779
3235,1947.914
3236,1948.797
3237,1947.252
3238,1943.366
3239,1937.142
3240,1928.709
3241,1918.025
3242,1905.178
3243,1890.079
3244,1872.729
3245,1853.171
3246,1831.583
3247,1808.096
3248,1783.064
3249,1756.796
3250,1729.688
3251,1702.316
3252,1675.077
3253,1648.235
3254,1621.878
3255,1595.919
3256,1570.401
3257,1545.325
3258,1520.778
3259,1496.982
3260,1473.893
3261,1451.554
3262,1429.965
3263,1409.127
3264,1389.437
3265,1371.248
3266,1355.001
3267,1340.786
3268,1328.777
3269,1318.888
3270,1311.118
3271,1305.290
3272,1301.361
3273,1299.065
3274,1298.447
3275,1299.330
3276,1301.714
3277,1305.423
3278,1310.279
3279,1316.107
3280,1322.641
3281,1329.748
3282,1337.298
3283,1345.289
3284,1353.589
3285,1362.242
3286,1371.292
3287,1380.961
3288,1391.247
3289,1402.063
3290,1413.056
3291,1423.475
3292,1432.570
3293,1439.810
3294,1444.932
3295,1447.934
3296,1449.081
3297,1448.728
3298,1447.051
3299,1444.269
3300,1440.517
3301,1436.014
3302,1430.937
3303,1425.418
3304,1419.546
3305,1413.321
3306,1406.787
3307,1399.989
3308,1392.925
3309,1385.596
3310,1377.914
3311,1369.747
3312,1361.094
3313,1351.955
3314,1342.419
3315,1332.751
3316,1323.082
3317,1313.546
3318,1304.319
3319,1295.489
3320,1287.322
3321,1279.817
3322,1273.062
3323,1267.058
3324,1261.848
3325,1257.389
3326,1253.681
3327,1250.900
3328,1249.134
3329,1248.383
3330,1248.471
3331,1249.354
3332,1251.032
3333,1253.857
3334,1258.052
3335,1263.747
3336,1270.855
3337,1279.110
3338,1288.161
3339,1297.653
3340,1307.409
3341,1317.564
3342,1328.071
3343,1338.975
3344,1350.189
3345,1361.844
3346,1374.073
3347,1387.141
3348,1401.092
3349,1416.103
3350,1432.349
3351,1449.788
3352,1468.463
3353,1488.197
3354,1508.903
3355,1530.359
3356,1552.433
3357,1574.684
3358,1596.802
3359,1618.390
3360,1639.052
3361,1658.433
3362,1676.181
3363,1692.030
3364,1705.848
3365,1717.415
3366,1726.510
3367,1732.955
3368,1736.664
3369,1737.547
3370,1735.428
3371,1729.953
3372,1720.594
3373,1706.996
3374,1688.807
3375,1665.717
3376,1637.595
3377,1604.572
3378,1567.046
3379,1525.546
3380,1480.648
3381,1432.879
3382,1382.727
3383,1331.029
3384,1278.581
3385,1226.353
3386,1174.964
3387,1125.253
3388,1077.970
3389,1033.955
3390,993.868
3391,958.108
3392,926.983
3393,900.980
3394,880.407
3395,865.617
3396,856.787
3397,853.829
3398,856.390
3399,863.895
3400,875.859
3401,891.929
3402,911.928
3403,935.769
3404,963.317
3405,994.574
3406,1029.363
3407,1067.551
3408,1108.918
3409,1153.243
3410,1200.306
3411,1249.708
3412,1301.008
3413,1353.500
3414,1406.567
3415,1459.368
3416,1511.066
3417,1560.777
3418,1607.618
3419,1650.707
3420,1689.558
3421,1723.773
3422,1753.087
3423,1777.369
3424,1796.706
3425,1811.186
3426,1820.943
3427,1825.932
3428,1826.285
3429,1822.091
3430,1813.659
3431,1801.209
3432,1785.050
3433,1765.581
3434,1743.154
3435,1718.166
3436,1690.926
3437,1661.788
3438,1631.193
3439,1599.495
3440,1567.178
3441,1534.641
3442,1502.369
3443,1470.802
3444,1440.296
3445,1410.981
3446,1382.947
3447,1356.282
3448,1331.073
3449,1307.321
3450,1284.982
3451,1264.056
3452,1244.542
3453,1226.397
3454,1209.533
3455,1194.081
3456,1180.130
3457,1167.768
3458,1157.173
3459,1148.255
3460,1141.014
3461,1135.540
3462,1131.699
3463,1129.359
3464,1128.211
3465,1127.902
3466,1128.344
3467,1129.580
3468,1131.831
3469,1135.275
3470,1139.911
3471,1145.694
3472,1152.360
3473,1159.821
3474,1168.121
3475,1177.260
3476,1187.105
3477,1197.568
3478,1208.429
3479,1219.598
3480,1230.856
3481,1241.937
3482,1252.798
3483,1263.217
3484,1273.062
3485,1282.245
3486,1290.677
3487,1298.403
3488,1305.290
3489,1311.294
3490,1316.372
3491,1320.698
3492,1324.407
3493,1327.585
3494,1330.322
3495,1332.706
3496,1334.737
3497,1336.415
3498,1337.607
3499,1338.181
3500,1338.181
3501,1337.739
3502,1337.254
3503,1336.856
3504,1336.680
3505,1336.591
3506,1336.636
3507,1336.768
3508,1336.856
3509,1336.680
3510,1335.973
3511,1334.561
3512,1332.662
3513,1330.587
3514,1328.733
3515,1327.409
3516,1326.835
3517,1327.320
3518,1328.821
3519,1331.250
3520,1334.340
3521,1337.960
3522,1342.198
3523,1346.878
3524,1351.955
3525,1357.430
3526,1363.301
3527,1369.614
3528,1376.546
3529,1384.051
3530,1392.130
3531,1400.827
3532,1410.143
3533,1420.076
3534,1430.451
3535,1441.002
3536,1451.466
3537,1461.620
3538,1471.244
3539,1480.383
3540,1489.036
3541,1497.247
3542,1505.194
3543,1512.832
3544,1520.160
3545,1527.047
3546,1533.449
3547,1539.232
3548,1544.045
3549,1547.797
3550,1550.314
3551,1551.682
3552,1552.124
3553,1551.859
3554,1551.329
3555,1550.711
3556,1550.049
3557,1549.519
3558,1549.210
3559,1549.166
3560,1549.298
3561,1549.519
3562,1549.960
3563,1550.888
3564,1552.609
3565,1555.258
3566,1559.011
3567,1563.956
3568,1570.225
3569,1577.818
3570,1586.780
3571,1596.890
3572,1608.104
3573,1620.112
3574,1632.739
3575,1645.586
3576,1658.477
3577,1671.236
3578,1683.642
3579,1695.385
3580,1706.202
3581,1715.870
3582,1724.346
3583,1731.499
3584,1737.105
3585,1741.035
3586,1743.154
3587,1743.419
3588,1741.873
3589,1738.474
3590,1733.176
3591,1725.848
3592,1716.444
3593,1705.098
3594,1691.897
3595,1677.064
3596,1660.729
3597,1643.467
3598,1625.675
3599,1607.795
3600,1590.091
3601,1572.741
3602,1555.611
3603,1538.526
3604,1521.220
3605,1503.384
3606,1484.798
3607,1465.328
3608,1445.020
3609,1424.094
3610,1402.902
3611,1381.976
3612,1361.756
3613,1342.419
3614,1324.009
3615,1306.394
3616,1289.750
3617,1274.386
3618,1260.568
3619,1248.427
3620,1237.832
3621,1228.737
3622,1220.879
3623,1214.080
3624,1208.164
3625,1203.087
3626,1198.804
3627,1195.361
3628,1192.668
3629,1190.814
3630,1189.798
3631,1189.401
3632,1189.622
3633,1190.372
3634,1191.564
3635,1193.109
3636,1195.052
3637,1197.259
3638,1199.643
3639,1202.204
3640,1204.809
3641,1207.237
3642,1209.268
3643,1210.504
3644,1210.636
3645,1209.444
3646,1206.928
3647,1203.087
3648,1198.010
3649,1191.697
3650,1184.191
3651,1175.406
3652,1165.428
3653,1154.170
3654,1141.809
3655,1128.520
3656,1114.614
3657,1100.486
3658,1086.535
3659,1072.893
3660,1059.605
3661,1046.404
3662,1033.072
3663,1019.474
3664,1005.788
3665,992.367
3666,979.696
3667,968.173
3668,957.931
3669,949.013
3670,941.420
3671,935.106
3672,930.029
3673,926.012
3674,922.877
3675,920.626
3676,919.257
3677,918.551
3678,918.639
3679,919.610
3680,921.774
3681,925.350
3682,930.647
3683,938.020
3684,947.556
3685,959.123
3686,972.412
3687,987.069
3688,1002.918
3689,1019.827
3690,1037.884
3691,1057.132
3692,1077.485
3693,1099.029
3694,1121.766
3695,1145.694
3696,1170.594
3697,1196.200
3698,1222.247
3699,1248.516
3700,1274.916
3701,1301.361
3702,1327.674
3703,1353.589
3704,1378.753
3705,1402.682
3706,1424.888
3707,1445.196
3708,1463.562
3709,1480.250
3710,1495.305
3711,1508.638
3712,1519.851
3713,1528.460
3714,1534.111
3715,1536.760
3716,1536.584
3717,1533.935
3718,1529.167
3719,1522.412
3720,1513.847
3721,1503.605
3722,1492.170
3723,1479.941
3724,1467.359
3725,1454.777
3726,1442.415
3727,1430.583
3728,1419.546
3729,1409.613
3730,1400.960
3731,1393.808
3732,1388.201
3733,1384.360
3734,1382.506
3735,1382.947
3736,1386.126
3737,1392.351
3738,1402.108
3739,1415.617
3740,1433.011
3741,1454.114
3742,1478.793
3743,1506.563
3744,1536.804
3745,1568.944
3746,1602.365
3747,1636.535
3748,1670.883
3749,1704.789
3750,1737.547
3751,1768.627
3752,1797.589
3753,1823.901
3754,1847.035
3755,1866.637
3756,1882.486
3757,1894.627
3758,1903.103
3759,1908.224
3760,1910.211
3761,1909.461
3762,1906.370
3763,1901.293
3764,1894.450
3765,1885.885
3766,1875.643
3767,1863.855
3768,1850.611
3769,1836.086
3770,1820.457
3771,1803.769
3772,1786.154
3773,1767.700
3774,1748.540
3775,1728.805
3776,1708.586
3777,1687.924
3778,1666.954
3779,1645.807
3780,1624.660
3781,1603.645
3782,1583.028
3783,1562.940
3784,1543.647
3785,1525.458
3786,1508.461
3787,1492.568
3788,1477.601
3789,1463.474
3790,1450.185
3791,1437.912
3792,1426.742
3793,1417.074
3794,1409.171
3795,1403.211
3796,1399.150
3797,1396.898
3798,1396.368
3799,1397.340
3800,1399.591
3801,1402.902
3802,1406.920
3803,1411.202
3804,1415.529
3805,1419.546
3806,1422.946
3807,1425.462
3808,1426.831
3809,1427.007
3810,1426.345
3811,1425.109
3812,1423.387
3813,1421.445
3814,1419.326
3815,1417.206
3816,1414.999
3817,1412.659
3818,1410.098
3819,1407.494
3820,1405.154
3821,1403.432
3822,1402.593
3823,1402.549
3824,1402.946
3825,1403.476
3826,1403.918
3827,1404.094
3828,1404.006
3829,1403.653
3830,1403.167
3831,1402.549
3832,1401.754
3833,1400.871
3834,1399.944
3835,1399.106
3836,1398.311
3837,1397.516
3838,1396.633
3839,1395.794
3840,1395.132
3841,1394.911
3842,1395.353
3843,1396.677
3844,1398.929
3845,1402.152
3846,1406.125
3847,1410.319
3848,1414.425
3849,1418.089
3850,1421.445
3851,1424.535
3852,1427.625
3853,1430.760
3854,1433.894
3855,1436.941
3856,1439.810
3857,1442.415
3858,1444.755
3859,1446.697
3860,1448.110
3861,1448.949
3862,1449.302
3863,1449.081
3864,1448.419
3865,1447.360
3866,1445.947
3867,1444.181
3868,1442.106
3869,1439.810
3870,1437.294
3871,1434.513
3872,1431.510
3873,1428.243
3874,1424.932
3875,1421.665
3876,1418.487
3877,1415.529
3878,1412.792
3879,1410.540
3880,1409.039
3881,1408.244
3882,1408.288
3883,1409.304
3884,1411.600
3885,1415.220
3886,1420.253
3887,1426.566
3888,1434.248
3889,1443.166
3890,1453.099
3891,1463.650
3892,1474.334
3893,1484.798
3894,1494.643
3895,1503.605
3896,1511.640
3897,1518.792
3898,1525.149
3899,1530.800
3900,1535.921
3901,1540.822
3902,1545.634
3903,1550.579
3904,1555.744
3905,1561.130
3906,1566.340
3907,1571.063
3908,1575.081
3909,1578.304
3910,1580.732
3911,1582.410
3912,1583.425
3913,1583.513
3914,1582.586
3915,1580.688
3916,1577.774
3917,1573.977
3918,1569.209
3919,1563.382
3920,1556.494
3921,1548.548
3922,1539.674
3923,1529.917
3924,1519.410
3925,1508.196
3926,1496.320
3927,1483.782
3928,1470.582
3929,1456.675
3930,1442.062
3931,1426.698
3932,1410.584
3933,1393.808
3934,1376.634
3935,1359.504
3936,1342.861
3937,1327.100
3938,1312.442
3939,1299.330
3940,1287.984
3941,1278.669
3942,1271.517
3943,1266.616
3944,1264.012
3945,1263.526
3946,1265.027
3947,1268.117
3948,1272.400
3949,1277.433
3950,1282.598
3951,1287.543
3952,1292.002
3953,1296.107
3954,1299.992
3955,1303.745
3956,1307.454
3957,1311.074
3958,1314.341
3959,1316.901
3960,1318.314
3961,1318.226
3962,1316.416
3963,1312.840
3964,1307.498
3965,1300.478
3966,1291.825
3967,1281.715
3968,1270.237
3969,1257.654
3970,1244.321
3971,1230.724
3972,1217.303
3973,1204.235
3974,1191.741
3975,1179.821
3976,1168.651
3977,1158.320
3978,1148.873
3979,1140.352
3980,1132.935
3981,1126.843
3982,1122.030
3983,1118.587
3984,1116.335
3985,1115.011
3986,1114.393
3987,1114.216
3988,1114.305
3989,1114.569
3990,1115.099
3991,1116.115
3992,1117.836
3993,1120.353
3994,1123.664
3995,1127.681
3996,1132.361
3997,1137.527
3998,1143.045
3999,1148.784
4000,1154.612
4001,1160.528
4002,1166.664
4003,1173.331
4004,1180.704
4005,1189.004
4006,1198.275
4007,1208.605
4008,1220.040
4009,1232.534
4010,1245.690
4011,1259.067
4012,1272.179
4013,1284.629
4014,1296.372
4015,1307.409
4016,1317.784
4017,1327.541
4018,1336.636
4019,1345.068
4020,1352.838
4021,1359.902
4022,1366.303
4023,1371.998
4024,1376.987
4025,1381.270
4026,1384.890
4027,1387.936
4028,1390.541
4029,1392.660
4030,1394.338
4031,1395.574
4032,1396.457
4033,1397.119
4034,1397.649
4035,1398.046
4036,1398.399
4037,1398.841
4038,1399.415
4039,1400.165
4040,1401.136
4041,1402.284
4042,1403.609
4043,1405.066
4044,1406.611
4045,1408.156
4046,1409.569
4047,1410.805
4048,1411.776
4049,1412.659
4050,1413.630
4051,1415.131
4052,1417.383
4053,1420.562
4054,1424.888
4055,1430.451
4056,1437.250
4057,1445.152
4058,1453.982
4059,1463.518
4060,1473.540
4061,1484.135
4062,1495.526
4063,1507.799
4064,1520.867
4065,1534.332
4066,1547.753
4067,1560.512
4068,1571.991
4069,1581.747
4070,1589.473
4071,1595.036
4072,1598.435
4073,1599.848
4074,1599.495
4075,1597.552
4076,1594.241
4077,1589.694
4078,1583.911
4079,1576.891
4080,1568.812
4081,1559.761
4082,1549.784
4083,1538.791
4084,1526.783
4085,1513.582
4086,1499.102
4087,1483.296
4088,1466.299
4089,1448.419
4090,1430.009
4091,1411.379
4092,1392.792
4093,1374.427
4094,1356.193
4095,1338.048
4096,1320.080
4097,1302.377
4098,1285.203
4099,1268.735
4100,1253.107
4101,1238.450
4102,1224.720
4103,1211.872
4104,1199.908
4105,1188.871
4106,1178.849
4107,1170.020
4108,1162.603
4109,1156.864
4110,1152.890
4111,1150.815
4112,1150.639
4113,1152.184
4114,1155.451
4115,1160.307
4116,1166.709
4117,1174.435
4118,1183.441
4119,1193.418
4120,1204.146
4121,1215.184
4122,1226.353
4123,1237.390
4124,1248.339
4125,1259.067
4126,1269.398
4127,1279.110
4128,1287.940
4129,1295.710
4130,1302.244
4131,1307.454
4132,1311.162
4133,1313.414
4134,1314.120
4135,1313.281
4136,1311.074
4137,1307.763
4138,1303.613
4139,1298.845
4140,1293.768
4141,1288.646
4142,1283.702
4143,1279.066
4144,1274.828
4145,1270.722
4146,1266.616
4147,1262.378
4148,1257.787
4149,1252.930
4150,1248.030
4151,1243.527
4152,1239.818
4153,1237.214
4154,1235.801
4155,1235.536
4156,1236.375
4157,1238.229
4158,1241.054
4159,1244.630
4160,1248.692
4161,1252.886
4162,1256.992
4163,1260.745
4164,1263.923
4165,1266.351
4166,1268.206
4167,1269.751
4168,1271.429
4169,1273.680
4170,1276.726
4171,1280.744
4172,1285.733
4173,1291.339
4174,1297.123
4175,1302.597
4176,1307.542
4177,1311.868
4178,1315.621
4179,1318.711
4180,1321.272
4181,1323.524
4182,1325.687
4183,1327.850
4184,1330.190
4185,1332.751
4186,1335.664
4187,1339.108
4188,1343.081
4189,1347.584
4190,1352.397
4191,1357.297
4192,1362.065
4193,1366.436
4194,1370.321
4195,1373.632
4196,1376.457
4197,1379.018
4198,1381.667
4199,1384.581
4200,1387.892
4201,1391.821
4202,1396.368
4203,1401.534
4204,1407.141
4205,1413.277
4206,1419.988
4207,1427.228
4208,1434.910
4209,1442.857
4210,1451.112
4211,1459.633
4212,1468.463
4213,1477.778
4214,1487.755
4215,1498.528
4216,1510.095
4217,1522.456
4218,1535.480
4219,1548.989
4220,1562.631
4221,1576.140
4222,1589.208
4223,1601.747
4224,1613.667
4225,1625.101
4226,1636.050
4227,1646.292
4228,1655.652
4229,1663.907
4230,1671.015
4231,1676.755
4232,1680.905
4233,1683.333
4234,1683.995
4235,1682.803
4236,1679.757
4237,1674.944
4238,1668.455
4239,1660.464
4240,1651.237
4241,1640.818
4242,1629.560
4243,1617.596
4244,1605.323
4245,1593.049
4246,1581.041
4247,1569.695
4248,1559.276
4249,1549.916
4250,1541.572
4251,1534.023
4252,1526.959
4253,1520.381
4254,1514.509
4255,1509.565
4256,1505.724
4257,1503.119
4258,1501.618
4259,1501.132
4260,1501.221
4261,1501.221
4262,1500.426
4263,1498.351
4264,1494.554
4265,1489.036
4266,1481.972
4267,1473.584
4268,1464.048
4269,1453.408
4270,1441.841
4271,1429.568
4272,1416.853
4273,1403.741
4274,1390.188
4275,1376.148
4276,1361.447
4277,1345.907
4278,1329.351
4279,1311.559
4280,1292.576
4281,1272.311
4282,1251.120
4283,1229.267
4284,1206.839
4285,1183.971
4286,1160.881
4287,1138.012
4288,1115.806
4289,1094.747
4290,1075.366
4291,1058.148
4292,1043.535
4293,1031.659
4294,1022.520
4295,1015.854
4296,1011.571
4297,1009.717
4298,1010.203
4299,1012.896
4300,1017.575
4301,1024.065
4302,1031.924
4303,1040.886
4304,1050.731
4305,1061.238
4306,1072.275
4307,1083.754
4308,1095.630
4309,1107.771
4310,1120.088
4311,1132.714
4312,1145.871
4313,1159.821
4314,1174.435
4315,1189.533
4316,1204.764
4317,1219.731
4318,1234.344
4319,1248.692
4320,1262.864
4321,1276.859
4322,1290.589
4323,1303.878
4324,1316.460
4325,1328.159
4326,1338.931
4327,1348.776
4328,1357.694
4329,1365.597
4330,1372.308
4331,1377.517
4332,1381.270
4333,1383.654
4334,1384.757
4335,1384.757
4336,1383.830
4337,1382.373
4338,1380.652
4339,1378.753
4340,1376.766
4341,1374.603
4342,1372.219
4343,1369.659
4344,1366.877
4345,1364.052
4346,1361.270
4347,1358.931
4348,1357.297
4349,1356.591
4350,1356.944
4351,1358.489
4352,1361.315
4353,1365.420
4354,1370.895
4355,1377.826
4356,1386.214
4357,1395.927
4358,1406.522
4359,1417.515
4360,1428.376
4361,1438.839
4362,1448.596
4363,1457.470
4364,1465.372
4365,1472.215
4366,1478.087
4367,1483.032
4368,1487.137
4369,1490.404
4370,1492.965
4371,1494.863
4372,1496.276
4373,1497.336
4374,1498.219
4375,1499.322
4376,1500.823
4377,1502.854
4378,1505.459
4379,1508.461
4380,1511.728
4381,1515.172
4382,1518.703
4383,1522.279
4384,1525.900
4385,1529.476
4386,1532.875
4387,1536.010
4388,1538.879
4389,1541.440
4390,1543.647
4391,1545.413
4392,1546.649
4393,1547.223
4394,1546.914
4395,1545.678
4396,1543.559
4397,1540.645
4398,1537.025
4399,1532.743
4400,1527.842
4401,1522.279
4402,1516.187
4403,1509.565
4404,1502.369
4405,1494.554
4406,1486.166
4407,1477.204
4408,1467.889
4409,1458.220
4410,1448.375
4411,1438.530
4412,1429.171
4413,1420.606
4414,1413.101
4415,1406.655
4416,1401.269
4417,1396.633
4418,1392.307
4419,1387.804
4420,1382.727
4421,1376.899
4422,1370.365
4423,1363.169
4424,1355.708
4425,1348.335
4426,1341.183
4427,1334.340
4428,1327.850
4429,1321.890
4430,1316.504
4431,1311.868
4432,1308.072
4433,1305.334
4434,1303.922
4435,1303.701
4436,1304.628
4437,1306.482
4438,1309.175
4439,1312.531
4440,1316.460
4441,1320.521
4442,1324.274
4443,1327.453
4444,1330.013
4445,1332.265
4446,1334.781
4447,1337.960
4448,1342.242
4449,1347.893
4450,1355.001
4451,1363.434
4452,1372.970
4453,1383.168
4454,1393.455
4455,1403.211
4456,1411.776
4457,1418.707
4458,1423.829
4459,1427.272
4460,1429.259
4461,1430.142
4462,1430.142
4463,1429.568
4464,1428.420
4465,1426.610
4466,1423.873
4467,1420.076
4468,1415.131
4469,1408.951
4470,1401.534
4471,1393.101
4472,1383.786
4473,1373.809
4474,1363.345
4475,1352.661
4476,1342.154
4477,1332.221
4478,1322.950
4479,1314.429
4480,1306.615
4481,1299.551
4482,1293.238
4483,1287.675
4484,1282.863
4485,1278.890
4486,1275.887
4487,1274.033
4488,1273.459
4489,1274.298
4490,1276.682
4491,1280.479
4492,1285.600
4493,1291.737
4494,1298.756
4495,1306.394
4496,1314.429
4497,1322.685
4498,1330.852
4499,1338.799
4500,1346.481
4501,1354.030
4502,1361.491
4503,1368.908
4504,1376.325
4505,1383.874
4506,1391.556
4507,1399.282
4508,1406.699
4509,1413.630
4510,1420.076
4511,1425.992
4512,1431.466
4513,1436.632
4514,1441.620
4515,1446.653
4516,1451.995
4517,1457.602
4518,1463.386
4519,1469.301
4520,1475.306
4521,1481.310
4522,1487.093
4523,1492.391
4524,1496.982
4525,1500.912
4526,1504.355
4527,1507.401
4528,1510.006
4529,1512.081
4530,1513.450
4531,1513.891
4532,1513.406
4533,1512.214
4534,1510.448
4535,1508.240
4536,1505.680
4537,1502.810
4538,1499.852
4539,1496.762
4540,1493.715
4541,1490.890
4542,1488.285
4543,1486.122
4544,1484.400
4545,1483.164
4546,1482.458
4547,1482.193
4548,1482.414
4549,1483.208
4550,1484.488
4551,1486.122
4552,1488.020
4553,1489.830
4554,1491.331
4555,1492.523
4556,1493.406
4557,1494.289
4558,1495.305
4559,1496.806
4560,1498.969
4561,1501.883
4562,1505.547
4563,1510.139
4564,1515.701
4565,1522.412
4566,1530.226
4567,1539.056
4568,1548.768
4569,1559.143
4570,1569.871
4571,1580.688
4572,1591.195
4573,1601.040
4574,1610.091
4575,1617.993
4576,1624.527
4577,1629.383
4578,1632.518
4579,1633.975
4580,1633.975
4581,1632.695
4582,1630.134
4583,1626.161
4584,1620.598
4585,1613.181
4586,1603.866
4587,1592.784
4588,1579.893
4589,1565.192
4590,1548.636
4591,1530.314
4592,1510.183
4593,1488.153
4594,1464.357
4595,1439.104
4596,1412.968
4597,1386.523
4598,1360.255
4599,1334.340
4600,1308.866
4601,1283.834
4602,1259.199
4603,1234.918
4604,1210.813
4605,1186.973
4606,1163.662
4607,1141.279
4608,1120.441
4609,1101.634
4610,1085.476
4611,1072.319
4612,1062.518
4613,1056.161
4614,1053.291
4615,1053.689
4616,1057.177
4617,1063.490
4618,1072.319
4619,1083.312
4620,1096.204
4621,1110.508
4622,1125.783
4623,1141.412
4624,1157.040
4625,1172.448
4626,1187.723
4627,1202.999
4628,1218.318
4629,1233.593
4630,1248.780
4631,1263.703
4632,1278.360
4633,1292.576
4634,1306.306
4635,1319.506
4636,1332.309
4637,1345.024
4638,1357.915
4639,1371.248
4640,1385.111
4641,1399.326
4642,1413.498
4643,1427.272
4644,1440.075
4645,1451.775
4646,1462.326
4647,1472.039
4648,1481.310
4649,1490.493
4650,1499.896
4651,1509.521
4652,1519.189
4653,1528.637
4654,1537.731
4655,1546.340
4656,1554.287
4657,1561.439
4658,1567.620
4659,1572.697
4660,1576.494
4661,1579.010
4662,1580.114
4663,1579.805
4664,1577.995
4665,1574.639
4666,1569.960
4667,1564.044
4668,1556.936
4669,1548.857
4670,1540.027
4671,1530.579
4672,1520.469
4673,1509.785
4674,1498.572
4675,1487.137
4676,1475.703
4677,1464.533
4678,1453.761
4679,1443.563
4680,1433.983
4681,1424.888
4682,1416.191
4683,1407.803
4684,1399.724
4685,1391.998
4686,1384.757
4687,1378.356
4688,1373.102
4689,1369.217
4690,1366.568
4691,1365.067
4692,1364.714
4693,1365.509
4694,1367.495
4695,1370.497
4696,1374.471
4697,1379.283
4698,1384.978
4699,1391.424
4700,1398.532
4701,1406.125
4702,1414.204
4703,1422.725
4704,1431.731
4705,1441.179
4706,1451.112
4707,1461.752
4708,1473.319
4709,1485.901
4710,1499.543
4711,1514.112
4712,1529.432
4713,1545.060
4714,1560.600
4715,1575.699
4716,1590.091
4717,1603.424
4718,1615.300
4719,1625.322
4720,1633.092
4721,1638.390
4722,1641.083
4723,1641.127
4724,1638.655
4725,1633.931
4726,1627.132
4727,1618.479
4728,1608.104
4729,1596.140
4730,1582.719
4731,1568.061
4732,1552.433
4733,1536.230
4734,1519.719
4735,1503.031
4736,1486.387
4737,1469.875
4738,1453.540
4739,1437.338
4740,1421.312
4741,1405.463
4742,1389.923
4743,1374.736
4744,1360.034
4745,1345.863
4746,1332.265
4747,1319.241
4748,1306.880
4749,1295.136
4750,1284.055
4751,1273.592
4752,1263.747
4753,1254.431
4754,1245.734
4755,1237.920
4756,1231.033
4757,1225.073
4758,1219.687
4759,1214.610
4760,1209.797
4761,1205.515
4762,1201.983
4763,1199.378
4764,1197.568
4765,1196.244
4766,1195.184
4767,1194.390
4768,1193.904
4769,1193.816
4770,1194.213
4771,1195.228
4772,1196.862
4773,1199.246
4774,1202.469
4775,1206.619
4776,1211.696
4777,1217.656
4778,1224.455
4779,1232.225
4780,1240.834
4781,1250.237
4782,1260.391
4783,1271.252
4784,1282.730
4785,1294.739
4786,1307.056
4787,1319.374
4788,1331.382
4789,1342.949
4790,1354.074
4791,1365.023
4792,1376.060
4793,1387.185
4794,1398.223
4795,1409.039
4796,1419.414
4797,1429.259
4798,1438.442
4799,1446.742
4800,1453.938
4801,1459.942
4802,1464.842
4803,1468.992
4804,1472.701
4805,1476.144
4806,1479.235
4807,1481.531
4808,1482.590
4809,1482.104
4810,1480.250
4811,1477.292
4812,1473.540
4813,1469.169
4814,1464.313
4815,1458.882
4816,1452.746
4817,1445.770
4818,1437.780
4819,1428.994
4820,1419.635
4821,1410.098
4822,1400.739
4823,1391.777
4824,1383.345
4825,1375.530
4826,1368.290
4827,1361.403
4828,1354.913
4829,1348.688
4830,1342.816
4831,1337.298
4832,1332.309
4833,1327.894
4834,1324.186
4835,1321.316
4836,1319.550
4837,1319.020
4838,1319.859
4839,1322.111
4840,1325.863
4841,1331.250
4842,1338.093
4843,1346.128
4844,1355.266
4845,1365.376
4846,1376.369
4847,1388.113
4848,1400.562
4849,1413.675
4850,1427.449
4851,1441.709
4852,1456.145
4853,1470.405
4854,1484.047
4855,1496.894
4856,1509.079
4857,1520.602
4858,1531.639
4859,1542.014
4860,1551.771
4861,1560.821
4862,1569.121
4863,1576.405
4864,1582.586
4865,1587.266
4866,1590.224
4867,1591.416
4868,1590.665
4869,1587.972
4870,1583.381
4871,1576.847
4872,1568.547
4873,1558.481
4874,1546.694
4875,1533.272
4876,1518.174
4877,1501.574
4878,1483.650
4879,1464.666
4880,1444.623
4881,1423.387
4882,1401.004
4883,1377.561
4884,1353.412
4885,1328.954
4886,1304.584
4887,1280.832
4888,1258.272
4889,1237.478
4890,1218.936
4891,1202.999
4892,1189.798
4893,1179.070
4894,1170.417
4895,1163.486
4896,1157.923
4897,1153.729
4898,1151.257
4899,1150.815
4900,1152.714
4901,1157.128
4902,1163.927
4903,1173.022
4904,1184.147
4905,1196.906
4906,1210.901
4907,1225.603
4908,1240.613
4909,1255.491
4910,1269.751
4911,1282.995
4912,1294.960
4913,1305.511
4914,1314.606
4915,1322.287
4916,1328.601
4917,1333.369
4918,1336.503
4919,1337.828
4920,1337.519
4921,1335.753
4922,1332.795
4923,1328.954
4924,1324.362
4925,1319.285
4926,1313.723
4927,1307.674
4928,1301.052
4929,1293.900
4930,1286.086
4931,1277.477
4932,1268.162
4933,1258.316
4934,1248.295
4935,1238.538
4936,1229.090
4937,1219.952
4938,1210.989
4939,1202.248
4940,1193.948
4941,1186.266
4942,1179.379
4943,1173.331
4944,1168.121
4945,1163.574
4946,1159.689
4947,1156.290
4948,1153.420
4949,1150.948
4950,1148.784
4951,1146.709
4952,1144.634
4953,1142.383
4954,1139.999
4955,1137.659
4956,1135.540
4957,1133.774
4958,1132.538
4959,1131.876
4960,1131.876
4961,1132.714
4962,1134.480
4963,1137.350
4964,1141.323
4965,1146.400
4966,1152.537
4967,1159.645
4968,1167.592
4969,1176.201
4970,1185.339
4971,1195.096
4972,1205.603
4973,1216.861
4974,1229.002
4975,1241.982
4976,1255.447
4977,1269.177
4978,1282.907
4979,1296.593
4980,1310.191
4981,1323.524
4982,1336.415
4983,1348.732
4984,1360.564
4985,1371.822
4986,1382.417
4987,1392.174
4988,1400.783
4989,1408.112
4990,1414.028
4991,1418.531
4992,1421.445
4993,1422.813
4994,1422.504
4995,1420.562
4996,1417.030
4997,1412.041
4998,1405.860
4999,1398.620
5000,1390.497
5001,1381.490
5002,1371.778
5003,1361.624
5004,1351.205
5005,1340.741
5006,1330.411
5007,1320.477
5008,1311.074
5009,1302.200
5010,1293.812
5011,1285.733
5012,1277.962
5013,1270.546
5014,1263.438
5015,1256.639
5016,1250.061
5017,1243.747
5018,1237.655
5019,1231.827
5020,1226.397
5021,1221.497
5022,1217.479
5023,1214.742
5024,1213.682
5025,1214.389
5026,1216.861
5027,1220.790
5028,1226.221
5029,1233.108
5030,1241.540
5031,1251.341
5032,1262.290
5033,1274.033
5034,1286.351
5035,1298.977
5036,1311.824
5037,1324.848
5038,1338.137
5039,1351.734
5040,1365.509
5041,1379.371
5042,1393.101
5043,1406.346
5044,1418.840
5045,1430.230
5046,1440.075
5047,1447.978
5048,1453.496
5049,1456.498
5050,1457.028
5051,1455.306
5052,1451.466
5053,1445.682
5054,1437.956
5055,1428.464
5056,1417.295
5057,1404.536
5058,1390.364
5059,1375.177
5060,1359.372
5061,1343.170
5062,1326.614
5063,1309.749
5064,1292.664
5065,1275.490
5066,1258.405
5067,1241.673
5068,1225.558
5069,1210.151
5070,1195.582
5071,1181.851
5072,1168.651
5073,1155.848
5074,1143.398
5075,1131.434
5076,1120.176
5077,1109.846
5078,1100.442
5079,1092.010
5080,1084.372
5081,1077.308
5082,1070.509
5083,1063.534
5084,1056.029
5085,1047.729
5086,1038.413
5087,1027.862
5088,1015.810
5089,1001.991
5090,986.407
5091,969.189
5092,950.779
5093,931.751
5094,912.811
5095,894.622
5096,878.111
5097,863.895
5098,852.593
5099,844.558
5100,839.834
5101,838.333
5102,839.746
5103,843.763
5104,849.856
5105,857.494
5106,866.058
5107,875.109
5108,884.247
5109,893.254
5110,901.863
5111,910.207
5112,918.462
5113,926.895
5114,935.813
5115,945.437
5116,955.944
5117,967.555
5118,980.447
5119,994.618
5120,1009.982
5121,1026.538
5122,1044.153
5123,1062.651
5124,1081.900
5125,1101.899
5126,1122.958
5127,1145.297
5128,1169.225
5129,1194.610
5130,1221.276
5131,1248.648
5132,1276.108
5133,1303.215
5134,1329.351
5135,1353.809
5136,1375.884
5137,1394.779
5138,1409.878
5139,1420.694
5140,1427.007
5141,1428.641
5142,1425.683
5143,1418.222
5144,1406.522
5145,1390.982
5146,1371.998
5147,1350.145
5148,1325.819
5149,1299.463
5150,1271.473
5151,1242.202
5152,1212.226
5153,1182.381
5154,1153.773
5155,1127.593
5156,1104.945
5157,1086.888
5158,1074.218
5159,1067.640
5160,1067.640
5161,1074.174
5162,1087.065
5163,1105.740
5164,1129.403
5165,1157.040
5166,1187.547
5167,1219.996
5168,1253.548
5169,1287.587
5170,1321.316
5171,1354.251
5172,1385.729
5173,1415.264
5174,1442.371
5175,1466.520
5176,1487.137
5177,1504.090
5178,1517.467
5179,1527.577
5180,1534.818
5181,1539.453
5182,1541.793
5183,1541.925
5184,1540.027
5185,1536.142
5186,1530.579
5187,1523.692
5188,1515.878
5189,1507.622
5190,1499.411
5191,1491.641
5192,1484.488
5193,1478.175
5194,1473.054
5195,1469.390
5196,1467.403
5197,1467.050
5198,1468.154
5199,1470.317
5200,1473.098
5201,1476.056
5202,1479.014
5203,1481.840
5204,1484.400
5205,1486.740
5206,1488.859
5207,1490.934
5208,1493.097
5209,1495.570
5210,1498.395
5211,1501.486
5212,1504.753
5213,1508.196
5214,1511.640
5215,1514.863
5216,1517.600
5217,1519.586
5218,1520.558
5219,1520.249
5220,1518.615
5221,1515.525
5222,1511.110
5223,1505.503
5224,1498.925
5225,1491.508
5226,1483.517
5227,1475.261
5228,1467.138
5229,1459.456
5230,1452.569
5231,1446.742
5232,1442.062
5233,1438.574
5234,1436.146
5235,1434.645
5236,1433.894
5237,1433.541
5238,1433.232
5239,1432.747
5240,1431.908
5241,1430.760
5242,1429.126
5243,1427.007
5244,1424.403
5245,1421.356
5246,1417.736
5247,1413.586
5248,1408.774
5249,1403.344
5250,1397.207
5251,1390.585
5252,1383.874
5253,1377.605
5254,1372.175
5255,1367.849
5256,1364.626
5257,1362.330
5258,1360.873
5259,1360.211
5260,1360.432
5261,1361.491
5262,1363.125
5263,1365.067
5264,1367.230
5265,1369.438
5266,1371.469
5267,1373.190
5268,1374.603
5269,1376.016
5270,1377.605
5271,1379.592
5272,1382.153
5273,1385.155
5274,1388.466
5275,1391.865
5276,1395.088
5277,1398.046
5278,1400.695
5279,1403.211
5280,1405.949
5281,1409.260
5282,1413.277
5283,1418.045
5284,1423.520
5285,1429.524
5286,1435.969
5287,1442.812
5288,1449.832
5289,1456.896
5290,1463.959
5291,1470.979
5292,1477.910
5293,1484.798
5294,1491.641
5295,1498.484
5296,1505.282
5297,1511.993
5298,1518.527
5299,1524.840
5300,1530.800
5301,1536.274
5302,1541.307
5303,1545.943
5304,1550.181
5305,1554.110
5306,1557.863
5307,1561.616
5308,1565.633
5309,1570.136
5310,1575.390
5311,1581.571
5312,1588.723
5313,1596.978
5314,1606.338
5315,1616.713
5316,1628.147
5317,1640.597
5318,1654.062
5319,1668.455
5320,1683.509
5321,1698.873
5322,1714.369
5323,1729.777
5324,1744.964
5325,1759.842
5326,1774.278
5327,1788.097
5328,1801.297
5329,1813.835
5330,1825.711
5331,1836.660
5332,1846.417
5333,1854.717
5334,1861.471
5335,1866.592
5336,1870.301
5337,1872.641
5338,1873.612
5339,1873.347
5340,1872.023
5341,1869.859
5342,1867.034
5343,1863.590
5344,1859.617
5345,1855.114
5346,1850.037
5347,1844.342
5348,1837.940
5349,1830.656
5350,1822.577
5351,1813.659
5352,1804.034
5353,1793.659
5354,1782.534
5355,1770.526
5356,1757.502
5357,1743.419
5358,1728.232
5359,1712.029
5360,1694.855
5361,1677.064
5362,1659.095
5363,1641.348
5364,1624.262
5365,1608.104
5366,1592.961
5367,1578.834
5368,1565.545
5369,1553.007
5370,1541.043
5371,1529.785
5372,1519.189
5373,1509.300
5374,1499.985
5375,1491.155
5376,1482.678
5377,1474.467
5378,1466.564
5379,1459.103
5380,1452.260
5381,1446.212
5382,1440.958
5383,1436.234
5384,1431.864
5385,1427.846
5386,1424.094
5387,1420.473
5388,1416.941
5389,1413.586
5390,1410.672
5391,1408.377
5392,1407.052
5393,1406.832
5394,1407.847
5395,1410.098
5396,1413.365
5397,1417.339
5398,1421.577
5399,1425.815
5400,1429.921
5401,1433.850
5402,1437.515
5403,1440.605
5404,1442.945
5405,1444.446
5406,1445.196
5407,1445.417
5408,1445.064
5409,1444.049
5410,1442.238
5411,1439.722
5412,1436.852
5413,1433.806
5414,1430.716
5415,1427.714
5416,1424.888
5417,1422.239
5418,1419.723
5419,1417.383
5420,1415.264
5421,1413.498
5422,1412.173
5423,1411.114
5424,1410.187
5425,1409.216
5426,1407.979
5427,1406.478
5428,1404.845
5429,1403.344
5430,1402.063
5431,1401.048
5432,1400.298
5433,1399.812
5434,1399.547
5435,1399.503
5436,1399.679
5437,1399.900
5438,1400.209
5439,1400.607
5440,1401.269
5441,1402.505
5442,1404.536
5443,1407.450
5444,1411.291
5445,1415.970
5446,1421.400
5447,1427.581
5448,1434.468
5449,1441.974
5450,1450.097
5451,1458.662
5452,1467.712
5453,1477.248
5454,1487.137
5455,1497.247
5456,1507.578
5457,1518.130
5458,1528.858
5459,1539.762
5460,1550.888
5461,1562.234
5462,1573.889
5463,1585.897
5464,1598.038
5465,1610.091
5466,1621.746
5467,1632.606
5468,1642.363
5469,1650.884
5470,1658.124
5471,1664.172
5472,1669.117
5473,1673.090
5474,1675.872
5475,1677.417
5476,1677.461
5477,1675.872
5478,1672.472
5479,1667.307
5480,1660.464
5481,1652.429
5482,1643.511
5483,1633.975
5484,1624.041
5485,1613.799
5486,1603.380
5487,1592.917
5488,1582.630
5489,1572.653
5490,1563.028
5491,1553.757
5492,1544.839
5493,1536.407
5494,1528.504
5495,1521.043
5496,1513.759
5497,1506.254
5498,1498.263
5499,1489.654
5500,1480.339
5501,1470.317
5502,1459.677
5503,1448.684
5504,1437.603
5505,1426.654
5506,1416.147
5507,1406.081
5508,1396.324
5509,1386.832
5510,1377.429
5511,1368.246
5512,1359.284
5513,1350.587
5514,1342.375
5515,1334.737
5516,1327.894
5517,1322.067
5518,1317.299
5519,1313.634
5520,1311.074
5521,1309.705
5522,1309.529
5523,1310.632
5524,1313.149
5525,1317.122
5526,1322.508
5527,1329.307
5528,1337.342
5529,1346.172
5530,1355.443
5531,1364.714
5532,1373.853
5533,1382.947
5534,1392.263
5535,1402.196
5536,1412.880
5537,1424.226
5538,1436.146
5539,1448.684
5540,1462.017
5541,1476.365
5542,1491.817
5543,1508.196
5544,1525.237
5545,1542.720
5546,1560.512
5547,1578.348
5548,1596.140
5549,1613.799
5550,1631.326
5551,1648.588
5552,1665.408
5553,1681.523
5554,1696.577
5555,1710.175
5556,1721.830
5557,1731.278
5558,1738.342
5559,1743.242
5560,1746.023
5561,1746.818
5562,1745.582
5563,1742.447
5564,1737.370
5565,1730.351
5566,1721.433
5567,1710.793
5568,1698.740
5569,1685.805
5570,1672.340
5571,1658.654
5572,1644.835
5573,1631.017
5574,1617.154
5575,1603.292
5576,1589.473
5577,1575.567
5578,1561.660
5579,1547.621
5580,1533.493
5581,1519.189
5582,1504.753
5583,1490.360
5584,1475.835
5585,1461.134
5586,1446.079
5587,1430.363
5588,1413.807
5589,1396.236
5590,1377.605
5591,1358.092
5592,1337.695
5593,1316.592
5594,1294.960
5595,1273.106
5596,1251.297
5597,1229.885
5598,1209.135
5599,1189.533
5600,1171.697
5601,1156.201
5602,1143.751
5603,1134.701
5604,1129.138
5605,1127.019
5606,1128.520
5607,1133.818
5608,1142.913
5609,1155.716
5610,1171.962
5611,1191.211
5612,1212.844
5613,1236.242
5614,1261.054
5615,1287.013
5616,1313.943
5617,1341.713
5618,1370.233
5619,1399.370
5620,1428.906
5621,1458.618
5622,1488.197
5623,1517.335
5624,1545.634
5625,1572.741
5626,1598.347
5627,1622.231
5628,1644.261
5629,1664.437
5630,1683.068
5631,1700.418
5632,1716.665
5633,1731.852
5634,1745.935
5635,1758.694
5636,1769.952
5637,1779.399
5638,1786.949
5639,1792.644
5640,1796.441
5641,1798.560
5642,1798.913
5643,1797.456
5644,1794.189
5645,1789.068
5646,1781.960
5647,1772.954
5648,1762.093
5649,1749.644
5650,1735.958
5651,1721.521
5652,1706.555
5653,1691.235
5654,1675.518
5655,1659.581
5656,1643.423
5657,1627.132
5658,1610.797
5659,1594.418
5660,1578.127
5661,1561.969
5662,1545.987
5663,1530.182
5664,1514.598
5665,1499.278
5666,1484.268
5667,1469.610
5668,1455.439
5669,1441.974
5670,1429.259
5671,1417.383
5672,1406.390
5673,1396.457
5674,1387.715
5675,1380.254
5676,1374.073
5677,1369.173
5678,1365.597
5679,1363.434
5680,1362.639
5681,1363.213
5682,1364.979
5683,1367.584
5684,1370.718
5685,1374.162
5686,1377.649
5687,1381.005
5688,1384.051
5689,1386.523
5690,1388.157
5691,1388.863
5692,1388.510
5693,1386.832
5694,1383.786
5695,1379.283
5696,1373.235
5697,1365.685
5698,1356.767
5699,1346.525
5700,1335.135
5701,1322.861
5702,1310.014
5703,1296.770
5704,1283.393
5705,1270.016
5706,1256.904
5707,1244.233
5708,1232.181
5709,1220.834
5710,1210.283
5711,1200.394
5712,1190.902
5713,1181.278
5714,1170.947
5715,1159.601
5716,1147.063
5717,1133.641
5718,1119.691
5719,1105.696
5720,1092.098
5721,1078.986
5722,1066.315
5723,1054.219
5724,1042.872
5725,1032.586
5726,1023.668
5727,1016.295
5728,1010.732
5729,1007.024
5730,1005.214
5731,1005.391
5732,1007.421
5733,1011.086
5734,1016.119
5735,1022.255
5736,1029.275
5737,1037.001
5738,1045.212
5739,1053.865
5740,1062.828
5741,1072.010
5742,1081.326
5743,1090.597
5744,1099.559
5745,1107.947
5746,1115.717
5747,1123.222
5748,1130.816
5749,1138.895
5750,1147.460
5751,1156.466
5752,1166.002
5753,1176.289
5754,1187.591
5755,1199.952
5756,1213.329
5757,1227.589
5758,1242.732
5759,1258.758
5760,1275.667
5761,1293.238
5762,1311.250
5763,1329.528
5764,1348.026
5765,1366.789
5766,1385.817
5767,1405.286
5768,1424.976
5769,1444.578
5770,1463.562
5771,1481.531
5772,1498.307
5773,1513.715
5774,1527.489
5775,1539.630
5776,1549.872
5777,1558.216
5778,1564.618
5779,1569.121
5780,1571.946
5781,1573.359
5782,1573.668
5783,1573.227
5784,1572.300
5785,1571.108
5786,1569.871
5787,1568.724
5788,1567.796
5789,1567.134
5790,1566.649
5791,1566.163
5792,1565.589
5793,1564.618
5794,1563.161
5795,1560.909
5796,1557.775
5797,1553.625
5798,1548.371
5799,1542.058
5800,1534.862
5801,1527.047
5802,1518.836
5803,1510.536
5804,1502.413
5805,1494.687
5806,1487.623
5807,1481.531
5808,1476.939
5809,1474.379
5810,1474.246
5811,1476.851
5812,1482.458
5813,1491.641
5814,1505.062
5815,1523.295
5816,1546.738
5817,1575.478
5818,1609.472
5819,1648.279
5820,1691.279
5821,1737.414
5822,1785.624
5823,1834.629
5824,1883.104
5825,1929.901
5826,1974.138
5827,2015.152
5828,2052.590
5829,2086.407
5830,2116.737
5831,2143.977
5832,2168.744
5833,2191.613
5834,2213.201
5835,2233.863
5836,2254.038
5837,2273.817
5838,2293.242
5839,2312.182
5840,2330.371
5841,2347.545
5842,2363.306
5843,2377.257
5844,2389.088
5845,2398.580
5846,2405.556
5847,2409.750
5848,2411.118
5849,2409.706
5850,2405.467
5851,2398.448
5852,2388.382
5853,2375.093
5854,2358.361
5855,2338.185
5856,2314.742
5857,2288.077
5858,2258.365
5859,2225.651
5860,2189.979
5861,2151.570
5862,2110.556
5863,2067.335
5864,2022.348
5865,1975.860
5866,1928.135
5867,1879.351
5868,1829.773
5869,1779.532
5870,1728.673
5871,1677.328
5872,1625.807
5873,1574.375
5874,1523.339
5875,1473.010
5876,1423.740
5877,1375.619
5878,1328.556
5879,1282.333
5880,1236.816
5881,1191.873
5882,1147.637
5883,1104.371
5884,1062.342
5885,1021.770
5886,982.831
5887,945.967
5888,911.664
5889,880.318
5890,852.240
5891,827.517
5892,806.149
5893,788.181
5894,773.258
5895,761.206
5896,752.023
5897,745.842
5898,742.973
5899,743.900
5900,748.800
5901,757.586
5902,770.080
5903,785.973
5904,805.001
5905,826.634
5906,850.297
5907,875.418
5908,901.598
5909,928.661
5910,956.430
5911,984.862
5912,1013.955
5913,1043.491
5914,1073.291
5915,1103.135
5916,1133.200
5917,1163.618
5918,1194.655
5919,1226.265
5920,1258.228
5921,1290.280
5922,1322.287
5923,1354.118
5924,1385.905
5925,1417.736
5926,1449.655
5927,1481.707
5928,1513.847
5929,1546.075
5930,1578.392
5931,1610.797
5932,1643.334
5933,1675.872
5934,1708.188
5935,1739.887
5936,1770.835
5937,1800.900
5938,1830.038
5939,1858.337
5940,1885.709
5941,1912.154
5942,1937.451
5943,1961.379
5944,1983.586
5945,2003.806
5946,2021.906
5947,2037.623
5948,2050.735
5949,2061.154
5950,2068.748
5951,2073.560
5952,2075.723
5953,2075.414
5954,2072.809
5955,2068.174
5956,2061.596
5957,2053.119
5958,2042.700
5959,2030.339
5960,2016.167
5961,2000.185
5962,1982.394
5963,1962.703
5964,1941.336
5965,1918.379
5966,1894.141
5967,1868.800
5968,1842.708
5969,1816.308
5970,1789.951
5971,1763.815
5972,1738.032
5973,1712.603
5974,1687.483
5975,1662.583
5976,1638.036
5977,1613.931
5978,1590.533
5979,1568.017
5980,1546.561
5981,1526.297
5982,1507.401
5983,1490.007
5984,1474.423
5985,1460.913
5986,1449.876
5987,1441.356
5988,1435.175
5989,1431.069
5990,1428.729
5991,1427.890
5992,1428.332
5993,1429.877
5994,1432.482
5995,1436.014
5996,1440.252
5997,1445.020
5998,1450.097
5999,1455.130
6000,1459.633
6001,1463.165
6002,1465.196
6003,1465.461
6004,1463.739
6005,1459.810
6006,1453.673
6007,1445.329
6008,1435.131
6009,1423.431
6010,1410.628
6011,1397.031
6012,1382.771
6013,1367.893
6014,1352.176
6015,1335.267
6016,1316.813
6017,1296.461
6018,1273.901
6019,1249.045
6020,1221.717
6021,1191.917
6022,1159.557
6023,1124.591
6024,1087.153
6025,1047.420
6026,1005.611
6027,962.125
6028,917.270
6029,871.444
6030,825.000
6031,778.468
6032,732.642
6033,688.361
6034,646.553
6035,607.967
6036,573.134
6037,542.451
6038,516.006
6039,494.108
6040,476.979
6041,465.059
6042,458.657
6043,458.039
6044,463.160
6045,473.844
6046,489.738
6047,510.355
6048,535.078
6049,563.333
6050,594.590
6051,628.231
6052,663.594
6053,699.840
6054,736.350
6055,772.640
6056,808.577
6057,844.117
6058,879.303
6059,914.092
6060,948.395
6061,982.080
6062,1015.236
6063,1047.773
6064,1079.648
6065,1110.419
6066,1139.778
6067,1167.636
6068,1193.816
6069,1218.362
6070,1240.966
6071,1261.716
6072,1280.656
6073,1297.918
6074,1313.502
6075,1327.232
6076,1339.020
6077,1348.909
6078,1357.165
6079,1364.008
6080,1369.791
6081,1374.736
6082,1378.930
6083,1382.329
6084,1384.713
6085,1385.905
6086,1385.773
6087,1384.448
6088,1382.064
6089,1378.665
6090,1374.073
6091,1368.290
6092,1361.447
6093,1353.809
6094,1345.863
6095,1337.828
6096,1329.837
6097,1322.067
6098,1314.694
6099,1307.983
6100,1302.067
6101,1297.255
6102,1293.812
6103,1292.002
6104,1291.957
6105,1293.812
6106,1297.653
6107,1303.745
6108,1312.398
6109,1323.921
6110,1338.446
6111,1356.149
6112,1376.855
6113,1400.253
6114,1426.080
6115,1454.114
6116,1484.179
6117,1516.099
6118,1549.475
6119,1583.911
6120,1618.832
6121,1653.753
6122,1688.012
6123,1721.256
6124,1753.043
6125,1783.108
6126,1811.319
6127,1837.543
6128,1861.736
6129,1883.766
6130,1903.501
6131,1920.718
6132,1935.376
6133,1947.296
6134,1956.125
6135,1961.688
6136,1963.763
6137,1962.174
6138,1956.876
6139,1948.090
6140,1936.170
6141,1921.645
6142,1905.266
6143,1887.607
6144,1869.153
6145,1850.258
6146,1831.186
6147,1812.069
6148,1792.953
6149,1773.837
6150,1754.676
6151,1735.339
6152,1715.914
6153,1696.489
6154,1677.284
6155,1658.477
6156,1640.200
6157,1622.629
6158,1605.852
6159,1590.091
6160,1575.257
6161,1561.174
6162,1547.576
6163,1534.111
6164,1520.558
6165,1506.607
6166,1491.994
6167,1476.718
6168,1460.737
6169,1444.093
6170,1426.742
6171,1408.642
6172,1389.437
6173,1368.864
6174,1346.746
6175,1322.994
6176,1297.741
6177,1270.855
6178,1242.335
6179,1212.093
6180,1180.041
6181,1146.091
6182,1110.243
6183,1072.364
6184,1032.586
6185,991.175
6186,948.572
6187,905.218
6188,861.643
6189,818.069
6190,774.760
6191,731.803
6192,689.421
6193,647.833
6194,607.261
6195,567.660
6196,529.074
6197,491.548
6198,455.125
6199,419.630
6200,384.885
6201,350.803
6202,317.383
6203,284.845
6204,253.456
6205,223.700
6206,196.239
6207,171.825
6208,150.943
6209,134.034
6210,121.629
6211,113.947
6212,111.342
6213,113.991
6214,122.070
6215,135.580
6216,154.343
6217,177.653
6218,204.760
6219,234.958
6220,267.892
6221,303.388
6222,341.399
6223,381.663
6224,424.045
6225,468.061
6226,513.313
6227,559.227
6228,605.451
6229,651.674
6230,697.412
6231,742.090
6232,785.090
6233,825.839
6234,864.072
6235,899.611
6236,932.369
6237,962.522
6238,990.336
6239,1016.295
6240,1040.797
6241,1064.152
6242,1086.579
6243,1108.080
6244,1128.829
6245,1149.138
6246,1169.313
6247,1189.666
6248,1210.460
6249,1231.783
6250,1253.813
6251,1276.550
6252,1299.948
6253,1323.744
6254,1347.540
6255,1371.115
6256,1394.205
6257,1416.809
6258,1439.192
6259,1461.620
6260,1484.444
6261,1507.843
6262,1531.904
6263,1556.450
6264,1581.306
6265,1606.250
6266,1630.973
6267,1655.298
6268,1678.874
6269,1701.433
6270,1722.757
6271,1742.536
6272,1760.372
6273,1775.956
6274,1788.980
6275,1799.355
6276,1806.904
6277,1811.584
6278,1813.394
6279,1812.290
6280,1808.361
6281,1801.650
6282,1792.158
6283,1779.841
6284,1764.698
6285,1746.553
6286,1725.185
6287,1700.506
6288,1672.560
6289,1641.392
6290,1607.133
6291,1570.004
6292,1530.226
6293,1488.241
6294,1444.711
6295,1400.121
6296,1355.222
6297,1310.544
6298,1266.616
6299,1223.925
6300,1183.043
6301,1144.546
6302,1108.830
6303,1076.116
6304,1046.404
6305,1019.871
6306,996.737
6307,977.268
6308,961.507
6309,949.675
6310,941.773
6311,938.064
6312,938.991
6313,944.951
6314,956.386
6315,973.648
6316,996.958
6317,1026.405
6318,1061.680
6319,1101.943
6320,1145.915
6321,1191.873
6322,1238.317
6323,1283.790
6324,1327.232
6325,1367.849
6326,1405.110
6327,1438.972
6328,1469.831
6329,1498.219
6330,1524.575
6331,1549.254
6332,1572.432
6333,1594.197
6334,1614.505
6335,1633.092
6336,1649.647
6337,1663.775
6338,1675.121
6339,1683.333
6340,1688.277
6341,1689.602
6342,1686.953
6343,1680.331
6344,1669.647
6345,1655.210
6346,1637.463
6347,1617.022
6348,1594.727
6349,1571.328
6350,1547.665
6351,1524.796
6352,1503.737
6353,1485.327
6354,1470.229
6355,1459.236
6356,1452.834
6357,1451.377
6358,1454.821
6359,1462.635
6360,1474.246
6361,1488.859
6362,1505.900
6363,1524.796
6364,1544.972
6365,1565.810
6366,1586.559
6367,1606.382
6368,1624.439
6369,1639.979
6370,1652.252
6371,1660.640
6372,1664.525
6373,1663.333
6374,1656.579
6375,1643.820
6376,1624.571
6377,1598.568
6378,1565.501
6379,1525.149
6380,1477.557
6381,1423.122
6382,1362.242
6383,1295.666
6384,1224.455
6385,1150.021
6386,1074.262
6387,999.784
6388,929.367
6389,866.058
6390,812.506
6391,771.272
6392,744.474
6393,733.834
6394,740.103
6395,763.060
6396,801.602
6397,853.741
6398,916.961
6399,988.129
6400,1064.152
6401,1141.721
6402,1217.832
6403,1289.485
6404,1354.030
6405,1409.171
6406,1453.320
6407,1485.416
6408,1504.841
6409,1511.154
6410,1504.399
6411,1485.107
6412,1454.247
6413,1413.056
6414,1362.992
6415,1305.732
6416,1242.953
6417,1176.465
6418,1107.903
6419,1038.546
6420,969.365
6421,901.245
6422,834.934
6423,771.007
6424,709.994
6425,652.248
6426,597.989
6427,547.351
6428,500.289
6429,456.582
6430,416.275
6431,379.367
6432,345.770
6433,315.572
6434,288.907
6435,265.906
6436,246.833
6437,232.132
6438,222.508
6439,218.711
6440,221.625
6441,232.132
6442,251.028
6443,279.238
6444,317.603
6445,366.652
6446,426.782
6447,498.170
6448,580.551
6449,673.483
6450,776.172
6451,887.559
6452,1006.097
6453,1130.065
6454,1257.301
6455,1385.375
6456,1511.728
6457,1633.887
6458,1749.820
6459,1857.895
6460,1956.832
6461,2045.482
6462,2123.094
6463,2189.449
6464,2244.547
6465,2288.695
6466,2322.071
6467,2345.117
6468,2358.052
6469,2361.407
6470,2355.668
6471,2341.364
6472,2319.025
6473,2289.269
6474,2252.626
6475,2209.714
6476,2161.062
6477,2107.333
6478,2049.190
6479,1987.250
6480,1921.999
6481,1853.789
6482,1782.622
6483,1708.541
6484,1631.238
6485,1550.402
6486,1465.858
6487,1377.473
6488,1285.291
6489,1189.313
6490,1089.670
6491,986.407
6492,879.700
6493,770.080
6494,658.738
6495,547.749
6496,440.336
6497,340.605
6498,253.544
6499,184.628
6500,139.067
6501,121.540
6502,135.580
6503,183.436
6504,265.729
6505,381.398
6506,527.749
6507,700.899
6508,895.814
6509,1106.755
6510,1327.409
6511,1551.197
6512,1771.453
6513,1981.731
6514,2176.117
6515,2349.399
6516,2497.473
6517,2617.865
6518,2710.223
6519,2776.358
6520,2819.623
6521,2843.861
6522,2852.602
6523,2848.452
6524,2833.088
6525,2807.085
6526,2770.442
6527,2722.850
6528,2664.221
6529,2594.864
6530,2515.529
6531,2427.232
6532,2331.342
6533,2229.536
6534,2123.580
6535,2015.196
6536,1905.840
6537,1796.794
6538,1689.160
6539,1583.778
6540,1481.266
6541,1382.064
6542,1286.571
6543,1195.008
6544,1107.638
6545,1024.639
6546,946.143
6547,872.372
6548,803.323
6549,739.176
6550,680.017
6551,626.112
6552,577.637
6553,534.813
6554,497.905
6555,467.222
6556,442.852
6557,424.707
6558,412.301
6559,405.017
6560,401.927
6561,402.236
6562,405.194
6563,410.050
6564,416.275
6565,423.339
6566,430.844
6567,438.570
6568,446.605
6569,455.170
6570,464.529
6571,475.301
6572,487.928
6573,503.203
6574,521.834
6575,544.702
6576,572.560
6577,606.069
6578,645.537
6579,690.833
6580,741.383
6581,796.260
6582,854.359
6583,914.710
6584,976.385
6585,1038.502
6586,1100.133
6587,1160.395
6588,1218.406
6589,1273.503
6590,1325.025
6591,1372.440
6592,1415.396
6593,1453.761
6594,1487.270
6595,1515.966
6596,1540.071
6597,1559.894
6598,1576.052
6599,1589.120
6600,1599.539
6601,1607.927
6602,1614.770
6603,1620.730
6604,1626.514
6605,1632.915
6606,1640.685
6607,1650.442
6608,1662.539
6609,1676.931
6610,1693.531
6611,1711.808
6612,1731.499
6613,1752.116
6614,1773.086
6615,1793.880
6616,1814.012
6617,1832.996
6618,1850.699
6619,1866.946
6620,1881.868
6621,1895.598
6622,1908.489
6623,1920.807
6624,1932.859
6625,1944.956
6626,1957.141
6627,1969.458
6628,1981.864
6629,1994.093
6630,2005.704
6631,2016.211
6632,2024.953
6633,2031.487
6634,2035.548
6635,2037.138
6636,2036.475
6637,2033.959
6638,2030.206
6639,2026.012
6640,2021.995
6641,2018.639
6642,2016.300
6643,2014.887
6644,2014.136
6645,2013.562
6646,2012.547
6647,2010.163
6648,2005.262
6649,1996.609
6650,1983.188
6651,1964.160
6652,1939.040
6653,1907.518
6654,1869.727
6655,1826.108
6656,1777.545
6657,1725.141
6658,1670.132
6659,1613.711
6660,1557.333
6661,1502.192
6662,1449.346
6663,1399.635
6664,1353.589
6665,1311.250
6666,1272.444
6667,1236.860
6668,1204.191
6669,1174.346
6670,1147.239
6671,1122.604
6672,1100.265
6673,1079.869
6674,1061.194
6675,1043.976
6676,1028.039
6677,1013.116
6678,998.989
6679,985.435
6680,972.323
6681,959.697
6682,947.821
6683,937.181
6684,928.219
6685,921.420
6686,916.961
6687,914.975
6688,915.504
6689,918.507
6690,923.539
6691,930.294
6692,938.241
6693,946.850
6694,955.415
6695,963.229
6696,969.674
6697,974.487
6698,977.400
6699,978.460
6700,977.886
6701,975.855
6702,972.456
6703,967.644
6704,961.242
6705,953.251
6706,943.539
6707,932.104
6708,918.904
6709,904.026
6710,887.559
6711,869.899
6712,851.578
6713,833.035
6714,814.670
6715,796.657
6716,779.307
6717,762.795
6718,747.299
6719,733.039
6720,720.192
6721,708.978
6722,699.663
6723,692.467
6724,687.655
6725,685.492
6726,686.198
6727,689.995
6728,697.058
6729,707.610
6730,721.561
6731,738.867
6732,759.440
6733,783.104
6734,809.372
6735,837.627
6736,867.206
6737,897.448
6738,927.689
6739,957.534
6740,986.539
6741,1014.618
6742,1041.504
6743,1067.110
6744,1091.171
6745,1113.775
6746,1135.098
6747,1155.539
6748,1175.185
6749,1194.213
6750,1212.623
6751,1230.415
6752,1247.544
6753,1263.791
6754,1279.066
6755,1293.238
6756,1306.350
6757,1318.579
6758,1329.925
6759,1340.344
6760,1349.792
6761,1358.357
6762,1366.215
6763,1373.941
6764,1381.711
6765,1389.702
6766,1397.516
6767,1404.712
6768,1410.805
6769,1415.485
6770,1418.575
6771,1419.855
6772,1419.326
6773,1416.853
6774,1412.571
6775,1406.478
6776,1398.664
6777,1389.305
6778,1378.665
6779,1366.877
6780,1354.030
6781,1340.167
6782,1325.510
6783,1310.412
6784,1295.357
6785,1280.656
6786,1266.307
6787,1252.356
6788,1238.538
6789,1224.587
6790,1210.283
6791,1195.493
6792,1180.350
6793,1165.252
6794,1150.771
6795,1137.880
6796,1127.549
6797,1120.618
6798,1117.571
6799,1118.543
6800,1123.267
6801,1131.522
6802,1142.913
6803,1156.996
6804,1173.552
6805,1192.491
6806,1213.638
6807,1236.949
6808,1262.157
6809,1288.911
6810,1316.725
6811,1345.377
6812,1374.559
6813,1403.918
6814,1433.011
6815,1461.620
6816,1489.698
6817,1517.379
6818,1544.795
6819,1571.946
6820,1598.700
6821,1624.924
6822,1650.486
6823,1675.165
6824,1698.652
6825,1720.594
6826,1740.416
6827,1757.546
6828,1771.585
6829,1782.225
6830,1789.200
6831,1792.423
6832,1791.982
6833,1788.008
6834,1780.901
6835,1771.100
6836,1759.268
6837,1746.067
6838,1731.940
6839,1717.239
6840,1702.272
6841,1687.218
6842,1672.119
6843,1657.020
6844,1642.231
6845,1628.059
6846,1614.726
6847,1602.497
6848,1591.504
6849,1581.836
6850,1573.536
6851,1566.516
6852,1560.689
6853,1555.965
6854,1552.300
6855,1549.563
6856,1547.576
6857,1546.120
6858,1544.972
6859,1543.956
6860,1542.808
6861,1541.352
6862,1539.497
6863,1537.290
6864,1534.685
6865,1531.727
6866,1528.460
6867,1525.017
6868,1521.308
6869,1517.556
6870,1514.024
6871,1510.933
6872,1508.549
6873,1507.004
6874,1506.430
6875,1506.872
6876,1508.505
6877,1511.419
6878,1515.569
6879,1520.690
6880,1526.694
6881,1533.449
6882,1540.910
6883,1548.989
6884,1557.598
6885,1566.604
6886,1575.920
6887,1585.412
6888,1594.948
6889,1604.395
6890,1613.534
6891,1622.275
6892,1630.752
6893,1639.140
6894,1647.573
6895,1655.872
6896,1663.775
6897,1670.795
6898,1676.578
6899,1680.905
6900,1683.553
6901,1684.525
6902,1683.730
6903,1681.302
6904,1677.505
6905,1672.737
6906,1667.572
6907,1662.406
6908,1657.506
6909,1652.959
6910,1648.544
6911,1644.129
6912,1639.582
6913,1634.902
6914,1629.957
6915,1624.527
6916,1618.479
6917,1611.856
6918,1604.704
6919,1597.155
6920,1589.429
6921,1581.615
6922,1573.845
6923,1566.075
6924,1558.084
6925,1549.740
6926,1540.998
6927,1531.904
6928,1522.809
6929,1514.112
6930,1506.563
6931,1500.868
6932,1497.689
6933,1497.512
6934,1500.470
6935,1506.430
6936,1514.951
6937,1525.502
6938,1537.334
6939,1549.696
6940,1561.836
6941,1573.359
6942,1584.043
6943,1593.535
6944,1601.702
6945,1608.501
6946,1614.108
6947,1618.876
6948,1623.070
6949,1627.088
6950,1631.105
6951,1635.255
6952,1639.626
6953,1644.306
6954,1649.250
6955,1654.371
6956,1659.360
6957,1663.819
6958,1667.528
6959,1670.530
6960,1672.914
6961,1674.812
6962,1676.092
6963,1676.843
6964,1677.196
6965,1677.417
6966,1677.682
6967,1678.079
6968,1678.565
6969,1679.227
6970,1680.066
6971,1681.081
6972,1682.185
6973,1683.377
6974,1684.613
6975,1685.893
6976,1687.306
6977,1688.984
6978,1691.147
6979,1693.663
6980,1696.312
6981,1698.785
6982,1700.595
6983,1701.433
6984,1701.169
6985,1699.668
6986,1696.754
6987,1692.383
6988,1686.467
6989,1679.271
6990,1671.236
6991,1662.848
6992,1654.592
6993,1646.734
6994,1639.538
6995,1633.268
6996,1628.368
6997,1625.322
6998,1624.792
6999,1627.397
7000,1633.842
7001,1644.570
7002,1660.022
7003,1680.154
7004,1704.656
7005,1732.470
7006,1762.005
7007,1791.099
7008,1817.014
7009,1836.792
7010,1847.432
7011,1846.064
7012,1830.435
7013,1798.648
7014,1749.688
7015,1682.891
7016,1598.038
7017,1495.570
7018,1376.766
7019,1243.836
7020,1099.912
7021,949.057
7022,796.039
7023,646.023
7024,504.748
7025,377.998
7026,271.424
7027,190.059
7028,137.964
7029,117.832
7030,131.032
7031,177.300
7032,254.692
7033,359.853
7034,488.193
7035,634.324
7036,792.463
7037,956.827
7038,1121.633
7039,1281.627
7040,1432.261
7041,1570.048
7042,1692.471
7043,1798.163
7044,1886.680
7045,1958.554
7046,2014.975
7047,2057.711
7048,2088.924
7049,2110.777
7050,2125.567
7051,2135.059
7052,2140.798
7053,2143.932
7054,2145.124
7055,2144.815
7056,2143.094
7057,2139.871
7058,2134.617
7059,2126.935
7060,2116.207
7061,2102.036
7062,2084.288
7063,2063.053
7064,2038.727
7065,2011.929
7066,1983.630
7067,1955.066
7068,1927.561
7069,1902.309
7070,1880.102
7071,1861.560
7072,1846.902
7073,1835.865
7074,1827.786
7075,1821.429
7076,1815.071
7077,1806.639
7078,1793.748
7079,1773.969
7080,1745.273
7081,1705.716
7082,1654.062
7083,1589.341
7084,1511.463
7085,1421.180
7086,1320.124
7087,1210.592
7088,1095.850
7089,979.608
7090,865.970
7091,759.175
7092,663.506
7093,582.758
7094,520.068
7095,477.288
7096,455.390
7097,454.242
7098,472.961
7099,509.914
7100,562.759
7101,628.805
7102,705.226
7103,789.240
7104,878.332
7105,970.204
7106,1062.695
7107,1153.950
7108,1242.423
7109,1326.614
7110,1405.330
7111,1477.292
7112,1541.396
7113,1596.758
7114,1642.760
7115,1679.139
7116,1705.760
7117,1722.845
7118,1730.792
7119,1730.307
7120,1722.316
7121,1708.012
7122,1688.895
7123,1666.512
7124,1642.319
7125,1617.375
7126,1592.564
7127,1568.591
7128,1546.031
7129,1525.458
7130,1507.181
7131,1491.508
7132,1478.617
7133,1468.595
7134,1461.708
7135,1458.176
7136,1458.088
7137,1461.355
7138,1467.536
7139,1476.012
7140,1485.680
7141,1495.349
7142,1503.649
7143,1509.344
7144,1511.684
7145,1510.271
7146,1505.150
7147,1496.585
7148,1485.018
7149,1470.979
7150,1455.042
7151,1437.956
7152,1420.473
7153,1403.432
7154,1387.539
7155,1373.411
7156,1361.535
7157,1352.441
7158,1346.613
7159,1344.008
7160,1344.406
7161,1347.055
7162,1351.205
7163,1355.884
7164,1360.432
7165,1364.273
7166,1367.010
7167,1368.422
7168,1368.069
7169,1365.509
7170,1360.608
7171,1353.589
7172,1344.803
7173,1334.826
7174,1324.053
7175,1312.751
7176,1301.185
7177,1289.662
7178,1278.492
7179,1267.764
7180,1257.433
7181,1247.412
7182,1237.611
7183,1227.987
7184,1218.583
7185,1209.665
7186,1201.365
7187,1193.860
7188,1187.149
7189,1181.145
7190,1175.803
7191,1170.991
7192,1166.620
7193,1162.824
7194,1159.866
7195,1158.144
7196,1157.835
7197,1159.027
7198,1161.455
7199,1164.766
7200,1168.519
7201,1172.360
7202,1176.024
7203,1179.512
7204,1182.823
7205,1185.825
7206,1188.430
7207,1190.549
7208,1192.094
7209,1192.977
7210,1193.065
7211,1192.182
7212,1190.240
7213,1187.193
7214,1183.132
7215,1178.231
7216,1172.669
7217,1166.532
7218,1159.601
7219,1151.522
7220,1141.809
7221,1130.375
7222,1117.042
7223,1101.811
7224,1084.637
7225,1065.741
7226,1045.036
7227,1022.697
7228,998.901
7229,974.001
7230,948.351
7231,922.303
7232,896.035
7233,869.723
7234,843.366
7235,817.098
7236,790.874
7237,764.870
7238,739.043
7239,713.570
7240,688.803
7241,665.316
7242,643.595
7243,624.302
7244,607.879
7245,594.502
7246,584.303
7247,577.151
7248,572.781
7249,570.927
7250,571.236
7251,573.311
7252,576.754
7253,581.257
7254,586.334
7255,591.676
7256,596.930
7257,601.830
7258,606.113
7259,609.733
7260,612.558
7261,614.545
7262,615.649
7263,615.958
7264,615.605
7265,614.942
7266,614.457
7267,614.722
7268,616.355
7269,620.064
7270,626.465
7271,636.134
7272,649.378
7273,666.287
7274,686.816
7275,710.700
7276,737.498
7277,766.592
7278,797.540
7279,829.857
7280,863.100
7281,896.697
7282,930.118
7283,963.052
7284,995.325
7285,1027.112
7286,1058.722
7287,1090.553
7288,1122.913
7289,1156.378
7290,1191.564
7291,1229.090
7292,1269.663
7293,1313.767
7294,1362.065
7295,1415.440
7296,1474.776
7297,1540.733
7298,1613.667
7299,1693.531
7300,1779.929
7301,1872.332
7302,1969.723
7303,2070.779
7304,2173.733
7305,2276.378
7306,2376.065
7307,2469.924
7308,2555.174
7309,2629.167
7310,2690.092
7311,2737.419
7312,2771.943
7313,2795.518
7314,2810.440
7315,2819.137
7316,2823.596
7317,2825.451
7318,2825.627
7319,2824.479
7320,2821.786
7321,2816.665
7322,2807.703
7323,2793.046
7324,2770.618
7325,2738.346
7326,2694.639
7327,2639.012
7328,2572.039
7329,2495.971
7330,2414.120
7331,2330.812
7332,2250.727
7333,2178.368
7334,2117.708
7335,2071.838
7336,2042.833
7337,2031.487
7338,2037.491
7339,2059.565
7340,2095.634
7341,2142.785
7342,2197.749
7343,2256.776
7344,2316.332
7345,2373.018
7346,2423.965
7347,2466.789
7348,2499.459
7349,2520.562
7350,2529.215
7351,2524.800
7352,2507.097
7353,2476.237
7354,2432.530
7355,2376.683
7356,2309.577
7357,2232.273
7358,2146.007
7359,2052.369
7360,1953.123
7361,1850.213
7362,1745.494
7363,1640.862
7364,1538.085
7365,1438.618
7366,1343.832
7367,1254.785
7368,1172.315
7369,1097.043
7370,1029.186
7371,968.615
7372,915.107
7373,868.222
7374,827.826
7375,793.611
7376,765.444
7377,743.017
7378,725.976
7379,713.879
7380,706.153
7381,702.135
7382,701.208
7383,702.886
7384,706.550
7385,711.848
7386,718.559
7387,726.549
7388,735.732
7389,745.710
7390,756.041
7391,766.504
7392,776.967
7393,787.518
7394,798.070
7395,808.754
7396,819.614
7397,830.784
7398,842.439
7399,854.624
7400,867.515
7401,881.378
7402,896.256
7403,912.193
7404,929.014
7405,946.452
7406,964.200
7407,982.124
7408,999.960
7409,1017.620
7410,1034.882
7411,1051.393
7412,1067.022
7413,1081.591
7414,1095.144
7415,1107.859
7416,1119.911
7417,1131.434
7418,1142.471
7419,1153.288
7420,1164.280
7421,1175.847
7422,1188.341
7423,1201.983
7424,1217.038
7425,1233.770
7426,1252.268
7427,1272.400
7428,1293.944
7429,1316.460
7430,1339.726
7431,1363.390
7432,1387.274
7433,1411.158
7434,1434.998
7435,1458.750
7436,1482.502
7437,1506.298
7438,1530.226
7439,1554.464
7440,1579.098
7441,1604.263
7442,1630.266
7443,1657.197
7444,1684.966
7445,1713.309
7446,1741.697
7447,1769.687
7448,1796.838
7449,1822.797
7450,1847.211
7451,1869.639
7452,1889.682
7453,1906.723
7454,1920.321
7455,1929.945
7456,1935.022
7457,1935.067
7458,1929.725
7459,1918.776
7460,1902.264
7461,1880.499
7462,1853.922
7463,1823.151
7464,1788.759
7465,1751.365
7466,1711.411
7467,1669.338
7468,1625.763
7469,1581.173
7470,1536.230
7471,1491.287
7472,1446.830
7473,1402.946
7474,1359.769
7475,1317.299
7476,1275.578
7477,1234.785
7478,1195.317
7479,1157.570
7480,1121.898
7481,1088.522
7482,1057.530
7483,1029.231
7484,1004.022
7485,982.433
7486,964.730
7487,951.132
7488,941.729
7489,936.652
7490,935.857
7491,939.124
7492,946.055
7493,956.121
7494,968.703
7495,983.051
7496,998.503
7497,1014.397
7498,1030.202
7499,1045.566
7500,1060.311
7501,1074.439
7502,1088.301
7503,1102.075
7504,1116.335
7505,1131.567
7506,1148.387
7507,1167.415
7508,1189.268
7509,1214.565
7510,1243.880
7511,1277.830
7512,1316.857
7513,1361.050
7514,1410.143
7515,1463.783
7516,1521.264
7517,1581.703
7518,1644.041
7519,1706.996
7520,1769.290
7521,1829.684
7522,1886.945
7523,1940.055
7524,1988.177
7525,2030.648
7526,2067.070
7527,2097.224
7528,2121.152
7529,2139.209
7530,2151.791
7531,2159.473
7532,2162.651
7533,2161.813
7534,2157.354
7535,2149.760
7536,2139.473
7537,2127.112
7538,2113.294
7539,2098.636
7540,2083.802
7541,2069.278
7542,2055.503
7543,2042.700
7544,2031.089
7545,2020.626
7546,2011.487
7547,2003.585
7548,1996.609
7549,1989.899
7550,1982.747
7551,1974.579
7552,1964.823
7553,1953.079
7554,1939.128
7555,1922.484
7556,1902.794
7557,1879.396
7558,1851.847
7559,1819.442
7560,1781.828
7561,1738.739
7562,1690.132
7563,1636.182
7564,1577.421
7565,1514.598
7566,1448.419
7567,1379.548
7568,1308.601
7569,1236.022
7570,1162.382
7571,1088.522
7572,1015.500
7573,944.819
7574,878.067
7575,817.098
7576,763.855
7577,720.016
7578,687.390
7579,667.435
7580,661.696
7581,671.276
7582,697.058
7583,739.308
7584,798.026
7585,872.725
7586,962.478
7587,1065.874
7588,1181.322
7589,1306.880
7590,1440.605
7591,1580.070
7592,1722.713
7593,1865.665
7594,2005.881
7595,2140.401
7596,2266.356
7597,2381.274
7598,2483.168
7599,2570.538
7600,2642.323
7601,2698.038
7602,2737.375
7603,2760.685
7604,2768.543
7605,2761.789
7606,2741.525
7607,2709.120
7608,2665.943
7609,2613.406
7610,2552.879
7611,2485.641
7612,2413.105
7613,2336.728
7614,2257.835
7615,2177.794
7616,2097.621
7617,2018.330
7618,1940.585
7619,1864.915
7620,1791.717
7621,1721.212
7622,1653.665
7623,1589.473
7624,1528.990
7625,1472.657
7626,1420.738
7627,1373.323
7628,1330.411
7629,1291.693
7630,1256.860
7631,1225.426
7632,1197.083
7633,1171.521
7634,1148.431
7635,1127.549
7636,1108.609
7637,1091.524
7638,1076.072
7639,1062.254
7640,1050.025
7641,1039.605
7642,1031.261
7643,1025.390
7644,1022.211
7645,1021.858
7646,1024.374
7647,1029.628
7648,1037.442
7649,1047.640
7650,1060.046
7651,1074.439
7652,1090.464
7653,1107.682
7654,1125.474
7655,1143.222
7656,1160.395
7657,1176.421
7658,1191.211
7659,1204.676
7660,1216.729
7661,1227.059
7662,1235.403
7663,1241.761
7664,1246.396
7665,1249.619
7666,1251.782
7667,1253.063
7668,1253.548
7669,1253.107
7670,1251.562
7671,1248.648
7672,1244.233
7673,1238.229
7674,1230.591
7675,1221.497
7676,1211.298
7677,1200.438
7678,1189.401
7679,1178.629
7680,1168.386
7681,1158.938
7682,1150.594
7683,1143.575
7684,1138.056
7685,1134.304
7686,1132.670
7687,1133.244
7688,1136.026
7689,1140.838
7690,1147.327
7691,1155.142
7692,1163.927
7693,1173.198
7694,1182.646
7695,1192.138
7696,1201.542
7697,1210.769
7698,1219.510
7699,1227.677
7700,1235.183
7701,1241.982
7702,1247.986
7703,1253.284
7704,1257.698
7705,1260.921
7706,1262.731
7707,1262.996
7708,1261.937
7709,1259.862
7710,1257.389
7711,1254.873
7712,1252.798
7713,1251.473
7714,1251.164
7715,1252.092
7716,1254.299
7717,1257.654
7718,1262.113
7719,1267.676
7720,1274.166
7721,1281.362
7722,1289.132
7723,1297.432
7724,1306.129
7725,1315.003
7726,1323.833
7727,1332.530
7728,1341.183
7729,1350.013
7730,1358.975
7731,1367.981
7732,1376.943
7733,1385.993
7734,1395.353
7735,1405.375
7736,1416.500
7737,1429.171
7738,1443.872
7739,1461.178
7740,1481.398
7741,1504.797
7742,1531.374
7743,1560.998
7744,1593.314
7745,1628.015
7746,1664.702
7747,1703.023
7748,1742.580
7749,1782.843
7750,1823.106
7751,1862.575
7752,1900.410
7753,1935.773
7754,1967.781
7755,1995.815
7756,2019.213
7757,2037.623
7758,2050.868
7759,2058.814
7760,2061.552
7761,2059.079
7762,2051.662
7763,2039.522
7764,2022.966
7765,2002.305
7766,1977.891
7767,1950.077
7768,1919.438
7769,1886.503
7770,1851.715
7771,1815.425
7772,1777.898
7773,1739.445
7774,1700.374
7775,1660.905
7776,1621.172
7777,1581.350
7778,1541.396
7779,1501.309
7780,1461.046
7781,1420.606
7782,1379.857
7783,1338.799
7784,1297.432
7785,1256.065
7786,1215.051
7787,1174.699
7788,1135.098
7789,1096.380
7790,1058.766
7791,1022.432
7792,987.466
7793,953.958
7794,922.083
7795,892.106
7796,864.337
7797,838.995
7798,816.215
7799,796.171
7800,779.042
7801,764.914
7802,754.098
7803,746.637
7804,742.399
7805,741.030
7806,741.781
7807,744.165
7808,747.608
7809,751.670
7810,755.996
7811,760.235
7812,764.120
7813,767.652
7814,770.830
7815,773.877
7816,777.099
7817,780.808
7818,785.267
7819,790.785
7820,797.363
7821,805.178
7822,814.096
7823,824.117
7824,835.154
7825,846.942
7826,858.995
7827,870.826
7828,881.687
7829,891.046
7830,898.419
7831,903.805
7832,907.425
7833,909.633
7834,910.869
7835,911.664
7836,912.723
7837,914.798
7838,918.771
7839,925.659
7840,936.387
7841,951.927
7842,972.853
7843,999.828
7844,1033.469
7845,1073.997
7846,1121.633
7847,1176.201
7848,1237.169
7849,1303.789
7850,1374.956
7851,1449.567
7852,1526.341
7853,1603.954
7854,1680.860
7855,1755.604
7856,1826.682
7857,1892.817
7858,1952.858
7859,2005.748
7860,2050.912
7861,2087.864
7862,2116.384
7863,2136.427
7864,2148.171
7865,2151.791
7866,2147.553
7867,2135.765
7868,2116.737
7869,2090.910
7870,2058.814
7871,2021.156
7872,1978.729
7873,1932.462
7874,1883.281
7875,1832.201
7876,1779.797
7877,1726.598
7878,1673.134
7879,1619.936
7880,1567.532
7881,1516.408
7882,1466.917
7883,1419.502
7884,1374.338
7885,1331.647
7886,1291.295
7887,1253.019
7888,1216.685
7889,1182.381
7890,1150.197
7891,1120.353
7892,1092.981
7893,1067.993
7894,1045.477
7895,1025.169
7896,1006.980
7897,990.689
7898,976.297
7899,963.759
7900,953.031
7901,944.201
7902,937.314
7903,932.369
7904,929.190
7905,927.513
7906,926.983
7907,927.160
7908,927.689
7909,928.352
7910,929.102
7911,929.853
7912,930.603
7913,931.265
7914,931.795
7915,932.325
7916,932.987
7917,933.914
7918,935.062
7919,936.033
7920,936.431
7921,935.901
7922,934.135
7923,930.780
7924,925.747
7925,918.860
7926,910.339
7927,900.317
7928,889.192
7929,877.449
7930,865.793
7931,854.933
7932,845.794
7933,839.172
7934,835.817
7935,836.567
7936,841.997
7937,852.505
7938,868.089
7939,888.265
7940,912.414
7941,939.654
7942,968.880
7943,998.989
7944,1028.701
7945,1056.867
7946,1082.474
7947,1104.989
7948,1124.061
7949,1139.690
7950,1152.228
7951,1162.029
7952,1169.799
7953,1175.936
7954,1180.924
7955,1185.074
7956,1188.827
7957,1192.447
7958,1195.979
7959,1199.555
7960,1203.219
7961,1207.104
7962,1211.298
7963,1215.890
7964,1220.790
7965,1226.132
7966,1231.960
7967,1238.450
7968,1245.734
7969,1253.637
7970,1262.069
7971,1270.810
7972,1279.773
7973,1288.911
7974,1298.271
7975,1308.116
7976,1318.932
7977,1331.073
7978,1344.847
7979,1360.476
7980,1378.047
7981,1397.472
7982,1418.531
7983,1440.693
7984,1463.209
7985,1485.107
7986,1505.680
7987,1524.134
7988,1539.806
7989,1552.080
7990,1560.291
7991,1564.088
7992,1563.293
7993,1558.040
7994,1548.680
7995,1535.745
7996,1519.851
7997,1501.750
7998,1482.016
7999,1461.178
8000,1439.457
8001,1416.809
8002,1393.410
8003,1369.394
8004,1345.024
8005,1320.654
8006,1296.726
8007,1273.592
8008,1251.253
8009,1229.576
8010,1208.341
8011,1187.326
8012,1166.400
8013,1145.517
8014,1124.724
8015,1104.106
8016,1083.886
8017,1064.152
8018,1045.212
8019,1027.421
8020,1011.218
8021,996.914
8022,984.950
8023,975.679
8024,969.233
8025,965.701
8026,964.995
8027,966.849
8028,970.955
8029,976.738
8030,983.581
8031,990.733
8032,997.488
8033,1003.271
8034,1007.642
8035,1010.556
8036,1011.924
8037,1011.880
8038,1010.600
8039,1008.437
8040,1005.567
8041,1002.300
8042,998.901
8043,995.545
8044,992.632
8045,990.380
8046,988.923
8047,988.349
8048,988.658
8049,989.806
8050,991.749
8051,994.353
8052,997.620
8053,1001.594
8054,1006.318
8055,1011.969
8056,1018.767
8057,1026.891
8058,1036.471
8059,1047.685
8060,1060.488
8061,1074.659
8062,1089.714
8063,1105.122
8064,1120.397
8065,1135.143
8066,1149.093
8067,1162.161
8068,1174.346
8069,1185.737
8070,1196.332
8071,1206.089
8072,1214.963
8073,1222.733
8074,1229.443
8075,1235.094
8076,1239.818
8077,1243.703
8078,1247.014
8079,1249.928
8080,1252.577
8081,1255.005
8082,1257.345
8083,1259.508
8084,1261.274
8085,1262.422
8086,1262.864
8087,1262.555
8088,1261.495
8089,1259.817
8090,1257.610
8091,1255.270
8092,1253.284
8093,1252.003
8094,1251.562
8095,1251.871
8096,1253.019
8097,1255.359
8098,1259.155
8099,1264.674
8100,1271.738
8101,1279.949
8102,1288.823
8103,1297.829
8104,1306.438
8105,1314.297
8106,1321.140
8107,1327.188
8108,1332.618
8109,1337.783
8110,1342.993
8111,1348.247
8112,1353.456
8113,1358.445
8114,1363.080
8115,1367.230
8116,1370.674
8117,1373.190
8118,1374.603
8119,1375.045
8120,1374.647
8121,1373.588
8122,1371.910
8123,1369.835
8124,1367.584
8125,1365.465
8126,1363.610
8127,1362.330
8128,1361.624
8129,1361.447
8130,1361.579
8131,1361.800
8132,1362.021
8133,1362.109
8134,1361.844
8135,1361.094
8136,1359.725
8137,1357.562
8138,1354.648
8139,1351.205
8140,1347.275
8141,1343.081
8142,1338.755
8143,1334.472
8144,1330.455
8145,1326.967
8146,1324.230
8147,1322.596
8148,1322.552
8149,1324.407
8150,1328.556
8151,1335.223
8152,1344.626
8153,1356.944
8154,1371.998
8155,1389.481
8156,1408.730
8157,1428.994
8158,1449.655
8159,1470.229
8160,1490.272
8161,1509.521
8162,1527.798
8163,1544.883
8164,1560.600
8165,1574.463
8166,1586.162
8167,1595.477
8168,1602.276
8169,1606.515
8170,1608.280
8171,1607.662
8172,1604.749
8173,1599.672
8174,1592.564
8175,1583.602
8176,1572.962
8177,1560.953
8178,1547.841
8179,1534.111
8180,1520.204
8181,1506.430
8182,1493.053
8183,1480.162
8184,1468.021
8185,1456.543
8186,1445.726
8187,1435.528
8188,1425.992
8189,1417.030
8190,1408.597
8191,1400.607
8192,1393.101
8193,1386.214
8194,1380.033
8195,1374.692
8196,1370.233
8197,1366.833
8198,1364.537
8199,1363.390
8200,1363.301
8201,1363.963
8202,1365.155
8203,1366.524
8204,1367.804
8205,1368.731
8206,1368.908
8207,1368.113
8208,1366.127
8209,1362.860
8210,1358.268
8211,1352.397
8212,1345.421
8213,1337.430
8214,1328.689
8215,1319.374
8216,1309.396
8217,1298.756
8218,1287.454
8219,1275.711
8220,1263.967
8221,1252.356
8222,1241.010
8223,1229.752
8224,1218.715
8225,1207.943
8226,1197.745
8227,1188.341
8228,1180.262
8229,1173.861
8230,1169.622
8231,1167.768
8232,1168.342
8233,1171.212
8234,1176.112
8235,1182.999
8236,1191.829
8237,1202.380
8238,1214.256
8239,1226.883
8240,1239.818
8241,1252.577
8242,1265.027
8243,1277.212
8244,1289.176
8245,1300.920
8246,1312.442
8247,1323.744
8248,1334.914
8249,1345.863
8250,1356.591
8251,1367.142
8252,1377.694
8253,1388.378
8254,1399.238
8255,1410.408
8256,1421.886
8257,1433.762
8258,1445.726
8259,1457.514
8260,1468.860
8261,1479.676
8262,1489.919
8263,1499.764
8264,1509.344
8265,1518.748
8266,1528.019
8267,1537.157
8268,1545.943
8269,1553.978
8270,1561.086
8271,1567.090
8272,1571.681
8273,1574.595
8274,1575.522
8275,1574.463
8276,1571.505
8277,1566.958
8278,1561.130
8279,1554.155
8280,1546.208
8281,1537.334
8282,1527.666
8283,1517.291
8284,1506.386
8285,1495.393
8286,1484.577
8287,1474.202
8288,1464.489
8289,1455.615
8290,1447.669
8291,1440.649
8292,1434.424
8293,1429.082
8294,1424.491
8295,1420.782
8296,1417.957
8297,1416.014
8298,1414.867
8299,1414.469
8300,1414.646
8301,1415.176
8302,1416.014
8303,1417.074
8304,1418.266
8305,1419.590
8306,1420.959
8307,1422.460
8308,1424.094
8309,1426.124
8310,1428.508
8311,1431.290
8312,1434.424
8313,1437.868
8314,1441.576
8315,1445.505
8316,1449.611
8317,1453.717
8318,1457.602
8319,1461.222
8320,1464.666
8321,1468.021
8322,1471.288
8323,1474.555
8324,1477.690
8325,1480.780
8326,1484.003
8327,1487.623
8328,1491.994
8329,1497.291
8330,1503.737
8331,1511.463
8332,1520.469
8333,1530.447
8334,1541.087
8335,1552.035
8336,1563.161
8337,1574.639
8338,1586.604
8339,1599.142
8340,1612.121
8341,1625.322
8342,1638.522
8343,1651.590
8344,1664.437
8345,1676.975
8346,1688.984
8347,1700.551
8348,1711.632
8349,1722.272
8350,1732.381
8351,1741.741
8352,1750.217
8353,1757.590
8354,1763.771
8355,1768.583
8356,1771.938
8357,1773.749
8358,1773.837
8359,1772.115
8360,1768.583
8361,1763.109
8362,1755.780
8363,1746.465
8364,1735.339
8365,1722.581
8366,1708.453
8367,1693.178
8368,1676.887
8369,1659.802
8370,1641.966
8371,1623.644
8372,1604.881
8373,1585.897
8374,1566.516
8375,1546.826
8376,1526.783
8377,1506.828
8378,1487.491
8379,1469.213
8380,1452.304
8381,1436.941
8382,1423.166
8383,1411.114
8384,1400.916
8385,1392.616
8386,1386.214
8387,1381.579
8388,1378.709
8389,1377.605
8390,1378.223
8391,1380.475
8392,1384.139
8393,1389.040
8394,1395.000
8395,1401.799
8396,1409.348
8397,1417.736
8398,1426.919
8399,1436.764
8400,1447.051
8401,1457.470
8402,1467.845
8403,1477.955
8404,1487.755
8405,1497.071
8406,1505.724
8407,1513.671
8408,1520.999
8409,1527.710
8410,1533.758
8411,1539.144
8412,1543.780
8413,1547.709
8414,1550.932
8415,1553.448
8416,1555.126
8417,1555.744
8418,1555.126
8419,1552.963
8420,1549.166
8421,1543.647
8422,1536.539
8423,1527.842
8424,1517.820
8425,1506.739
8426,1494.952
8427,1482.590
8428,1469.787
8429,1456.587
8430,1443.210
8431,1429.921
8432,1417.118
8433,1404.933
8434,1393.410
8435,1382.506
8436,1371.954
8437,1361.447
8438,1350.454
8439,1338.446
8440,1324.936
8441,1309.573
8442,1292.443
8443,1273.813
8444,1254.211
8445,1234.211
8446,1214.433
8447,1195.405
8448,1177.746
8449,1161.896
8450,1147.946
8451,1135.849
8452,1125.518
8453,1116.953
8454,1110.022
8455,1104.768
8456,1101.325
8457,1099.824
8458,1100.309
8459,1102.826
8460,1107.285
8461,1113.598
8462,1121.721
8463,1131.876
8464,1144.281
8465,1159.336
8466,1177.348
8467,1198.584
8468,1223.263
8469,1251.429
8470,1283.172
8471,1318.756
8472,1358.136
8473,1401.181
8474,1447.448
8475,1496.497
8476,1547.621
8477,1599.936
8478,1652.738
8479,1705.495
8480,1757.634
8481,1808.802
8482,1858.381
8483,1905.840
8484,1950.519
8485,1991.974
8486,2029.897
8487,2064.156
8488,2094.663
8489,2121.373
8490,2144.330
8491,2163.755
8492,2180.134
8493,2193.820
8494,2205.255
8495,2214.702
8496,2222.472
8497,2228.521
8498,2232.891
8499,2235.364
8500,2235.849
8501,2234.348
8502,2230.905
8503,2225.739
8504,2218.985
8505,2210.817
8506,2201.414
8507,2191.083
8508,2179.869
8509,2168.037
8510,2155.632
8511,2142.740
8512,2129.319
8513,2115.501
8514,2101.373
8515,2087.114
8516,2073.074
8517,2059.874
8518,2048.131
8519,2038.550
8520,2031.487
8521,2027.204
8522,2025.924
8523,2027.646
8524,2032.458
8525,2040.051
8526,2050.029
8527,2061.684
8528,2074.443
8529,2087.599
8530,2100.755
8531,2113.382
8532,2124.728
8533,2134.087
8534,2140.489
8535,2143.403
8536,2142.122
8537,2136.339
8538,2125.611
8539,2109.717
8540,2088.438
8541,2061.993
8542,2030.957
8543,1996.124
8544,1958.421
8545,1918.864
8546,1878.468
8547,1838.249
8548,1799.178
8549,1762.093
8550,1727.481
8551,1695.385
8552,1665.585
8553,1637.551
8554,1610.311
8555,1582.586
8556,1552.963
8557,1520.116
8558,1483.076
8559,1441.135
8560,1394.028
8561,1341.845
8562,1284.982
8563,1223.925
8564,1159.557
8565,1092.937
8566,1025.213
8567,957.622
8568,891.223
8569,827.119
8570,766.460
8571,710.215
8572,659.312
8573,614.148
8574,574.900
8575,541.259
8576,512.871
8577,489.340
8578,470.401
8579,455.743
8580,445.280
8581,438.879
8582,436.716
8583,438.967
8584,445.810
8585,457.554
8586,474.507
8587,496.669
8588,524.085
8589,556.578
8590,593.928
8591,635.780
8592,681.827
8593,731.759
8594,785.311
8595,842.306
8596,902.481
8597,965.436
8598,1030.864
8599,1098.279
8600,1167.283
8601,1237.478
8602,1308.469
8603,1379.813
8604,1451.245
8605,1522.412
8606,1593.270
8607,1663.510
8608,1732.955
8609,1801.209
8610,1867.829
8611,1932.462
8612,1994.799
8613,2054.620
8614,2111.748
8615,2166.051
8616,2217.395
8617,2265.561
8618,2310.416
8619,2351.739
8620,2389.309
8621,2422.994
8622,2452.662
8623,2478.180
8624,2499.415
8625,2516.236
8626,2528.730
8627,2537.118
8628,2541.753
8629,2543.166
8630,2541.930
8631,2538.530
8632,2533.453
8633,2527.008
8634,2519.414
8635,2510.849
8636,2501.313
8637,2490.674
8638,2478.754
8639,2465.200
8640,2449.881
8641,2432.574
8642,2413.061
8643,2391.119
8644,2366.484
8645,2338.892
8646,2308.209
8647,2274.567
8648,2238.189
8649,2199.471
8650,2158.766
8651,2116.384
8652,2072.589
8653,2027.646
8654,1981.820
8655,1935.376
8656,1888.534
8657,1841.472
8658,1794.366
8659,1747.480
8660,1701.169
8661,1656.049
8662,1612.695
8663,1571.593
8664,1533.184
8665,1497.733
8666,1465.549
8667,1436.941
8668,1412.306
8669,1391.954
8670,1375.795
8671,1363.566
8672,1354.427
8673,1347.364
8674,1341.095
8675,1334.340
8676,1326.040
8677,1315.621
8678,1302.686
8679,1287.278
8680,1269.486
8681,1249.443
8682,1227.457
8683,1203.882
8684,1179.335
8685,1154.391
8686,1129.889
8687,1106.446
8688,1084.858
8689,1065.653
8690,1049.451
8691,1036.692
8692,1027.862
8693,1023.271
8694,1023.138
8695,1027.421
8696,1036.029
8697,1048.612
8698,1064.461
8699,1082.694
8700,1102.340
8701,1122.472
8702,1142.118
8703,1160.484
8704,1176.819
8705,1190.769
8706,1202.116
8707,1210.901
8708,1217.082
8709,1221.011
8710,1223.130
8711,1224.146
8712,1224.764
8713,1225.867
8714,1228.296
8715,1232.622
8716,1239.333
8717,1248.825
8718,1261.142
