'sample interval','wrist_ppg'
'0.00390625 sec','mV'
0,694.546
1,685.640
2,677.573
3,671.003
4,666.440
5,664.360
6,664.980
7,668.557
8,675.237
9,684.983
10,697.795
11,713.527
12,731.851
13,752.218
14,774.119
15,797.115
16,820.877
17,845.151
18,869.643
19,894.062
20,918.153
21,941.806
22,964.984
23,987.506
24,1008.968
25,1029.190
26,1048.098
27,1065.545
28,1081.569
29,1096.279
30,1110.040
31,1123.290
32,1136.394
33,1149.389
34,1162.237
35,1174.794
36,1186.949
37,1198.812
38,1210.528
39,1222.172
40,1233.853
41,1245.606
42,1257.433
43,1269.295
44,1281.049
45,1292.656
46,1304.118
47,1315.470
48,1326.785
49,1337.991
50,1348.978
51,1359.746
52,1370.295
53,1380.515
54,1390.334
55,1399.605
56,1408.365
57,1416.688
58,1424.718
59,1432.529
60,1440.267
61,1447.860
62,1455.270
63,1462.424
64,1469.249
65,1475.601
66,1481.331
67,1486.442
68,1490.968
69,1494.873
70,1498.195
71,1501.042
72,1503.561
73,1506.116
74,1508.780
75,1511.737
76,1515.132
77,1519.220
78,1524.293
79,1530.535
80,1537.908
81,1546.340
82,1555.539
83,1565.065
84,1574.483
85,1583.133
86,1590.507
87,1596.310
88,1600.435
89,1602.954
90,1604.012
91,1603.866
92,1602.917
93,1601.786
94,1600.983
95,1600.946
96,1601.822
97,1603.720
98,1606.494
99,1609.816
100,1613.466
101,1617.189
102,1621.095
103,1625.402
104,1630.512
105,1636.790
106,1644.456
107,1653.544
108,1664.130
109,1676.321
110,1690.301
111,1706.070
112,1723.700
113,1743.119
114,1764.362
115,1787.358
116,1811.851
117,1837.511
118,1864.157
119,1891.606
120,1919.712
121,1948.292
122,1977.055
123,2005.709
124,2033.961
125,2061.373
126,2087.545
127,2112.037
128,2134.449
129,2154.415
130,2171.753
131,2186.317
132,2198.180
133,2207.269
134,2213.547
135,2216.942
136,2217.526
137,2215.190
138,2209.970
139,2201.794
140,2190.661
141,2176.681
142,2159.927
143,2140.399
144,2118.279
145,2093.823
146,2067.505
147,2039.655
148,2010.673
149,1980.851
150,1950.373
151,1919.493
152,1888.321
153,1857.149
154,1825.977
155,1794.841
156,1763.778
157,1732.789
158,1702.018
159,1671.540
160,1641.390
161,1611.750
162,1582.695
163,1554.334
164,1526.666
165,1499.509
166,1472.827
167,1446.546
168,1420.885
169,1396.101
170,1372.448
171,1350.000
172,1328.902
173,1309.155
174,1290.758
175,1273.676
176,1257.944
177,1243.307
178,1229.473
179,1216.113
180,1202.936
181,1189.613
182,1175.962
183,1161.982
184,1148.002
185,1134.241
186,1121.027
187,1108.617
188,1097.192
189,1086.862
190,1077.810
191,1070.035
192,1063.684
193,1058.866
194,1055.727
195,1054.412
196,1055.069
197,1057.880
198,1062.881
199,1069.999
200,1079.014
201,1089.600
202,1101.426
203,1114.165
204,1127.525
205,1141.249
206,1155.083
207,1168.625
208,1181.473
209,1193.446
210,1204.652
211,1215.420
212,1226.041
213,1236.773
214,1247.723
215,1258.856
216,1270.135
217,1281.377
218,1292.364
219,1303.096
220,1313.499
221,1323.646
222,1333.355
223,1342.517
224,1351.204
225,1359.490
226,1367.447
227,1374.930
228,1381.902
229,1388.363
230,1394.531
231,1400.481
232,1406.285
233,1411.796
234,1417.053
235,1421.907
236,1426.470
237,1430.777
238,1434.938
239,1439.063
240,1443.188
241,1447.239
242,1451.181
243,1454.941
244,1458.445
245,1461.621
246,1464.249
247,1466.220
248,1467.351
249,1467.570
250,1466.950
251,1465.599
252,1463.701
253,1461.329
254,1458.737
255,1456.146
256,1453.773
257,1451.765
258,1450.196
259,1448.991
260,1448.115
261,1447.531
262,1447.093
263,1446.509
264,1445.341
265,1443.334
266,1440.340
267,1436.289
268,1431.142
269,1425.083
270,1418.294
271,1411.212
272,1403.985
273,1396.721
274,1389.385
275,1381.865
276,1374.054
277,1365.841
278,1357.081
279,1347.773
280,1338.100
281,1328.428
282,1319.156
283,1310.505
284,1302.804
285,1296.306
286,1291.160
287,1287.437
288,1285.210
289,1284.371
290,1284.882
291,1286.634
292,1289.335
293,1292.802
294,1296.890
295,1301.453
296,1306.344
297,1311.272
298,1315.981
299,1320.397
300,1324.558
301,1328.428
302,1331.895
303,1334.925
304,1337.370
305,1339.305
306,1340.874
307,1342.371
308,1344.087
309,1346.240
310,1348.722
311,1351.533
312,1354.635
313,1358.249
314,1362.702
315,1368.323
316,1375.332
317,1383.544
318,1392.670
319,1402.197
320,1411.760
321,1421.141
322,1430.230
323,1438.990
324,1447.239
325,1454.904
326,1461.876
327,1468.045
328,1473.447
329,1478.046
330,1481.806
331,1484.799
332,1487.135
333,1489.143
334,1491.114
335,1493.340
336,1495.786
337,1498.268
338,1500.495
339,1502.429
340,1504.035
341,1505.495
342,1506.736
343,1507.685
344,1508.087
345,1507.941
346,1507.211
347,1505.970
348,1504.254
349,1502.283
350,1500.239
351,1498.268
352,1496.406
353,1494.581
354,1492.683
355,1490.530
356,1488.194
357,1485.785
358,1483.594
359,1481.806
360,1480.455
361,1479.470
362,1478.667
363,1478.083
364,1477.608
365,1477.316
366,1477.207
367,1477.207
368,1477.207
369,1477.061
370,1476.732
371,1476.294
372,1475.747
373,1475.199
374,1474.542
375,1473.812
376,1473.046
377,1472.060
378,1470.892
379,1469.469
380,1468.081
381,1467.205
382,1467.132
383,1468.008
384,1469.724
385,1472.279
386,1475.564
387,1479.470
388,1483.850
389,1488.340
390,1492.720
391,1496.881
392,1500.714
393,1504.218
394,1507.430
395,1510.350
396,1512.978
397,1515.278
398,1517.139
399,1518.563
400,1519.585
401,1520.424
402,1521.483
403,1523.235
404,1526.082
405,1530.207
406,1535.645
407,1542.252
408,1549.662
409,1557.510
410,1565.394
411,1573.278
412,1581.235
413,1589.375
414,1597.771
415,1606.239
416,1614.598
417,1622.518
418,1629.855
419,1636.498
420,1642.229
421,1647.011
422,1650.770
423,1653.581
424,1655.516
425,1656.647
426,1657.085
427,1656.903
428,1656.246
429,1655.406
430,1654.566
431,1653.873
432,1653.289
433,1652.595
434,1651.500
435,1649.712
436,1646.974
437,1643.069
438,1637.885
439,1631.315
440,1623.358
441,1614.123
442,1603.647
443,1592.149
444,1579.666
445,1566.379
446,1552.436
447,1537.908
448,1522.906
449,1507.430
450,1491.515
451,1475.163
452,1458.299
453,1440.669
454,1422.199
455,1403.000
456,1383.179
457,1362.739
458,1341.714
459,1320.251
460,1298.497
461,1276.486
462,1254.439
463,1232.502
464,1210.857
465,1189.723
466,1169.282
467,1149.863
468,1132.014
469,1116.173
470,1102.594
471,1091.571
472,1083.139
473,1077.518
474,1074.707
475,1074.817
476,1077.737
477,1083.504
478,1092.118
479,1103.543
480,1117.377
481,1133.109
482,1150.046
483,1167.493
484,1184.722
485,1201.257
486,1216.953
487,1231.699
488,1245.679
489,1259.185
490,1272.435
491,1285.612
492,1298.825
493,1312.002
494,1325.215
495,1338.538
496,1352.007
497,1365.586
498,1378.982
499,1392.013
500,1404.642
501,1417.016
502,1429.427
503,1441.983
504,1454.576
505,1467.023
506,1478.959
507,1490.238
508,1500.714
509,1510.423
510,1519.256
511,1527.177
512,1534.149
513,1540.281
514,1545.574
515,1550.173
516,1554.224
517,1557.838
518,1560.977
519,1563.569
520,1565.467
521,1566.562
522,1566.635
523,1565.686
524,1563.642
525,1560.503
526,1556.378
527,1551.414
528,1545.683
529,1539.076
530,1531.557
531,1523.125
532,1514.000
533,1504.181
534,1493.742
535,1482.609
536,1470.600
537,1457.642
538,1443.516
539,1428.003
540,1410.957
541,1392.524
542,1373.069
543,1353.102
544,1333.282
545,1314.156
546,1296.160
547,1279.516
548,1264.295
549,1250.497
550,1237.904
551,1226.260
552,1215.310
553,1204.944
554,1195.088
555,1186.073
556,1178.225
557,1171.983
558,1167.457
559,1164.719
560,1163.661
561,1164.245
562,1166.325
563,1169.866
564,1174.648
565,1180.378
566,1186.766
567,1193.592
568,1200.819
569,1208.302
570,1216.004
571,1223.778
572,1231.444
573,1238.963
574,1246.263
575,1253.308
576,1260.024
577,1266.302
578,1272.216
579,1277.727
580,1282.801
581,1287.400
582,1291.488
583,1295.065
584,1298.058
585,1300.468
586,1302.366
587,1303.935
588,1305.359
589,1306.673
590,1307.841
591,1308.863
592,1309.629
593,1310.177
594,1310.542
595,1310.688
596,1310.688
597,1310.505
598,1310.213
599,1309.702
600,1308.863
601,1307.658
602,1306.198
603,1304.592
604,1302.877
605,1301.088
606,1299.409
607,1297.912
608,1296.708
609,1295.868
610,1295.284
611,1295.065
612,1295.175
613,1295.795
614,1297.073
615,1299.190
616,1302.147
617,1305.979
618,1310.688
619,1316.382
620,1323.062
621,1330.764
622,1339.341
623,1348.649
624,1358.432
625,1368.469
626,1378.544
627,1388.582
628,1398.656
629,1408.694
630,1418.732
631,1428.660
632,1438.333
633,1447.714
634,1456.730
635,1465.453
636,1473.958
637,1482.463
638,1491.004
639,1499.692
640,1508.525
641,1517.614
642,1527.068
643,1536.959
644,1547.143
645,1557.510
646,1567.803
647,1577.768
648,1587.149
649,1595.836
650,1603.939
651,1611.568
652,1618.832
653,1625.584
654,1631.717
655,1637.046
656,1641.499
657,1645.040
658,1647.777
659,1649.821
660,1651.208
661,1651.975
662,1652.157
663,1651.756
664,1650.624
665,1648.617
666,1645.587
667,1641.390
668,1635.951
669,1629.417
670,1622.117
671,1614.598
672,1607.480
673,1601.275
674,1596.274
675,1592.441
676,1589.594
677,1587.331
678,1585.470
679,1583.827
680,1582.440
681,1581.162
682,1579.848
683,1578.498
684,1577.220
685,1576.125
686,1575.213
687,1574.629
688,1574.373
689,1574.373
690,1574.519
691,1574.629
692,1574.519
693,1574.227
694,1573.716
695,1573.096
696,1572.402
697,1571.709
698,1570.979
699,1570.249
700,1569.482
701,1568.679
702,1567.912
703,1567.182
704,1566.416
705,1565.394
706,1564.043
707,1562.328
708,1560.065
709,1557.218
710,1553.640
711,1549.479
712,1544.807
713,1539.697
714,1534.222
715,1528.455
716,1522.395
717,1516.117
718,1509.547
719,1502.685
720,1495.567
721,1488.340
722,1481.149
723,1474.141
724,1467.497
725,1461.292
726,1455.671
727,1450.743
728,1446.655
729,1443.589
730,1441.582
731,1440.596
732,1440.486
733,1441.144
734,1442.385
735,1444.137
736,1446.181
737,1448.188
738,1450.050
739,1451.765
740,1453.554
741,1455.562
742,1457.934
743,1460.745
744,1463.957
745,1467.643
746,1471.695
747,1476.039
748,1480.601
749,1485.201
750,1489.800
751,1494.399
752,1499.035
753,1503.780
754,1508.634
755,1513.708
756,1519.110
757,1524.987
758,1531.557
759,1538.930
760,1547.034
761,1555.721
762,1564.737
763,1573.789
764,1582.659
765,1591.018
766,1598.720
767,1605.545
768,1611.458
769,1616.496
770,1620.620
771,1623.723
772,1625.511
773,1625.694
774,1624.088
775,1620.657
776,1615.510
777,1608.757
778,1600.800
779,1591.930
780,1582.513
781,1572.731
782,1562.656
783,1552.363
784,1541.924
785,1531.375
786,1520.680
787,1509.766
788,1498.524
789,1486.953
790,1475.163
791,1463.227
792,1451.254
793,1439.209
794,1427.310
795,1415.593
796,1404.168
797,1392.998
798,1382.084
799,1371.536
800,1361.571
801,1352.336
802,1343.941
803,1336.239
804,1329.012
805,1321.821
806,1314.302
807,1306.381
808,1298.095
809,1289.700
810,1281.377
811,1273.311
812,1265.499
813,1257.980
814,1250.497
815,1242.942
816,1235.240
817,1227.283
818,1218.924
819,1210.127
820,1201.002
821,1191.840
822,1182.970
823,1174.684
824,1167.238
825,1160.485
826,1154.170
827,1148.002
828,1141.797
829,1135.555
830,1129.532
831,1124.312
832,1120.334
833,1117.888
834,1116.939
835,1117.268
836,1118.509
837,1120.078
838,1121.465
839,1122.305
840,1122.524
841,1122.305
842,1121.940
843,1121.648
844,1121.538
845,1121.502
846,1121.319
847,1120.918
848,1120.297
849,1119.640
850,1119.275
851,1119.275
852,1119.786
853,1120.772
854,1122.159
855,1123.874
856,1125.918
857,1128.437
858,1131.540
859,1135.226
860,1139.570
861,1144.607
862,1150.265
863,1156.507
864,1163.150
865,1170.268
866,1177.896
867,1186.182
868,1195.234
869,1205.163
870,1215.931
871,1227.283
872,1238.817
873,1250.205
874,1261.192
875,1271.668
876,1281.596
877,1290.977
878,1299.701
879,1307.549
880,1314.265
881,1319.813
882,1324.047
883,1327.114
884,1329.121
885,1330.326
886,1331.092
887,1331.822
888,1332.808
889,1334.012
890,1335.436
891,1336.859
892,1338.100
893,1339.013
894,1339.560
895,1339.852
896,1340.144
897,1340.473
898,1340.984
899,1341.751
900,1342.809
901,1344.087
902,1345.656
903,1347.591
904,1349.817
905,1352.299
906,1354.745
907,1357.045
908,1359.052
909,1360.731
910,1362.337
911,1364.126
912,1366.462
913,1369.418
914,1373.105
915,1377.412
916,1382.194
917,1387.341
918,1392.962
919,1399.277
920,1406.394
921,1414.315
922,1422.710
923,1431.142
924,1439.391
925,1447.312
926,1455.014
927,1462.789
928,1470.673
929,1478.740
930,1487.062
931,1495.567
932,1504.291
933,1513.197
934,1522.395
935,1531.776
936,1541.230
937,1550.647
938,1559.773
939,1568.423
940,1576.417
941,1583.645
942,1590.105
943,1595.872
944,1601.129
945,1606.129
946,1610.984
947,1615.912
948,1620.949
949,1626.168
950,1631.498
951,1636.900
952,1642.193
953,1647.120
954,1651.391
955,1654.639
956,1656.611
957,1657.231
958,1656.720
959,1655.260
960,1653.179
961,1650.624
962,1647.777
963,1644.857
964,1641.864
965,1638.834
966,1635.732
967,1632.520
968,1629.162
969,1625.730
970,1622.409
971,1619.525
972,1617.116
973,1615.182
974,1613.503
975,1611.969
976,1610.473
977,1608.940
978,1607.151
979,1605.034
980,1602.443
981,1599.413
982,1595.982
983,1592.040
984,1587.331
985,1581.783
986,1575.395
987,1568.204
988,1560.174
989,1551.085
990,1540.609
991,1528.528
992,1514.584
993,1498.743
994,1480.857
995,1461.146
996,1439.829
997,1417.199
998,1393.582
999,1369.199
1000,1344.306
1001,1319.083
1002,1293.605
1003,1267.981
1004,1242.321
1005,1216.807
1006,1191.949
1007,1168.260
1008,1146.286
1009,1126.429
1010,1108.763
1011,1093.396
1012,1080.255
1013,1069.378
1014,1060.764
1015,1054.266
1016,1049.886
1017,1047.550
1018,1047.258
1019,1048.974
1020,1052.514
1021,1057.844
1022,1064.779
1023,1073.320
1024,1083.285
1025,1094.454
1026,1106.500
1027,1119.239
1028,1132.635
1029,1146.870
1030,1162.018
1031,1178.115
1032,1194.833
1033,1211.660
1034,1228.049
1035,1243.672
1036,1258.418
1037,1272.325
1038,1285.466
1039,1297.949
1040,1309.812
1041,1321.127
1042,1331.895
1043,1342.189
1044,1352.007
1045,1361.461
1046,1370.404
1047,1378.836
1048,1386.574
1049,1393.728
1050,1400.445
1051,1406.686
1052,1412.381
1053,1417.381
1054,1421.615
1055,1425.119
1056,1428.040
1057,1430.449
1058,1432.529
1059,1434.354
1060,1435.924
1061,1437.055
1062,1437.493
1063,1437.201
1064,1436.106
1065,1434.245
1066,1431.799
1067,1428.843
1068,1425.338
1069,1421.360
1070,1416.870
1071,1411.869
1072,1406.394
1073,1400.664
1074,1394.787
1075,1388.764
1076,1382.486
1077,1375.843
1078,1368.907
1079,1361.826
1080,1354.745
1081,1347.627
1082,1340.181
1083,1332.297
1084,1323.901
1085,1315.105
1086,1306.089
1087,1296.890
1088,1287.619
1089,1278.384
1090,1269.295
1091,1260.316
1092,1251.592
1093,1243.124
1094,1234.911
1095,1227.100
1096,1219.690
1097,1212.573
1098,1205.674
1099,1199.031
1100,1192.606
1101,1186.511
1102,1180.597
1103,1174.830
1104,1169.172
1105,1163.734
1106,1158.879
1107,1154.754
1108,1151.287
1109,1148.221
1110,1145.410
1111,1142.892
1112,1140.920
1113,1139.898
1114,1140.044
1115,1141.359
1116,1143.658
1117,1146.651
1118,1149.973
1119,1153.331
1120,1156.726
1121,1160.011
1122,1163.077
1123,1165.778
1124,1168.004
1125,1169.976
1126,1171.983
1127,1174.319
1128,1177.239
1129,1180.926
1130,1185.452
1131,1190.745
1132,1196.621
1133,1202.754
1134,1209.032
1135,1215.347
1136,1221.844
1137,1228.560
1138,1235.568
1139,1242.759
1140,1249.913
1141,1257.141
1142,1264.477
1143,1272.070
1144,1279.808
1145,1287.510
1146,1295.102
1147,1302.512
1148,1309.812
1149,1316.966
1150,1324.011
1151,1331.092
1152,1338.210
1153,1345.291
1154,1352.518
1155,1360.001
1156,1367.995
1157,1376.463
1158,1385.187
1159,1393.947
1160,1402.525
1161,1410.738
1162,1418.403
1163,1425.338
1164,1431.361
1165,1436.471
1166,1440.852
1167,1444.648
1168,1448.079
1169,1451.327
1170,1454.357
1171,1456.985
1172,1459.066
1173,1460.635
1174,1461.803
1175,1462.643
1176,1463.336
1177,1464.212
1178,1465.563
1179,1467.607
1180,1470.381
1181,1473.885
1182,1478.119
1183,1483.083
1184,1488.924
1185,1495.640
1186,1503.013
1187,1510.861
1188,1519.037
1189,1527.396
1190,1535.974
1191,1544.917
1192,1554.188
1193,1563.751
1194,1573.388
1195,1583.060
1196,1592.879
1197,1602.881
1198,1613.028
1199,1623.066
1200,1632.739
1201,1641.718
1202,1649.894
1203,1657.377
1204,1664.349
1205,1671.029
1206,1677.599
1207,1684.096
1208,1690.520
1209,1696.689
1210,1702.493
1211,1707.895
1212,1712.823
1213,1717.203
1214,1720.962
1215,1724.028
1216,1726.401
1217,1727.934
1218,1728.737
1219,1728.847
1220,1728.299
1221,1727.168
1222,1725.488
1223,1723.262
1224,1720.451
1225,1717.057
1226,1713.005
1227,1708.406
1228,1703.077
1229,1696.981
1230,1689.900
1231,1681.796
1232,1672.635
1233,1662.670
1234,1652.048
1235,1640.988
1236,1629.636
1237,1617.992
1238,1606.202
1239,1594.412
1240,1582.768
1241,1571.344
1242,1560.211
1243,1549.370
1244,1538.821
1245,1528.601
1246,1518.745
1247,1509.328
1248,1500.312
1249,1491.698
1250,1483.594
1251,1476.112
1252,1469.286
1253,1463.044
1254,1457.314
1255,1452.021
1256,1447.276
1257,1443.115
1258,1439.537
1259,1436.398
1260,1433.661
1261,1431.325
1262,1429.427
1263,1428.003
1264,1427.054
1265,1426.470
1266,1426.251
1267,1426.360
1268,1426.762
1269,1427.492
1270,1428.441
1271,1429.646
1272,1431.179
1273,1432.931
1274,1434.792
1275,1436.544
1276,1438.004
1277,1439.136
1278,1439.939
1279,1440.486
1280,1440.778
1281,1440.888
1282,1440.925
1283,1440.888
1284,1440.925
1285,1441.180
1286,1441.764
1287,1442.750
1288,1444.137
1289,1445.889
1290,1448.006
1291,1450.342
1292,1452.970
1293,1455.963
1294,1459.321
1295,1463.190
1296,1467.570
1297,1472.279
1298,1477.134
1299,1481.733
1300,1485.967
1301,1489.800
1302,1493.304
1303,1496.735
1304,1500.239
1305,1503.780
1306,1507.247
1307,1510.532
1308,1513.526
1309,1516.154
1310,1518.271
1311,1519.658
1312,1520.169
1313,1519.512
1314,1517.577
1315,1514.219
1316,1509.583
1317,1503.597
1318,1496.333
1319,1487.829
1320,1478.083
1321,1467.205
1322,1455.452
1323,1443.042
1324,1430.193
1325,1416.907
1326,1403.365
1327,1389.823
1328,1376.427
1329,1363.250
1330,1350.146
1331,1337.005
1332,1323.938
1333,1311.126
1334,1298.862
1335,1287.327
1336,1276.632
1337,1266.813
1338,1257.834
1339,1249.621
1340,1242.212
1341,1235.605
1342,1229.728
1343,1224.508
1344,1219.727
1345,1215.164
1346,1210.601
1347,1205.783
1348,1200.710
1349,1195.344
1350,1189.942
1351,1184.759
1352,1179.940
1353,1175.451
1354,1171.180
1355,1167.092
1356,1163.259
1357,1159.682
1358,1156.361
1359,1153.112
1360,1149.936
1361,1146.797
1362,1143.841
1363,1141.103
1364,1138.438
1365,1135.701
1366,1132.708
1367,1129.569
1368,1126.685
1369,1124.385
1370,1122.852
1371,1122.049
1372,1121.721
1373,1121.721
1374,1122.013
1375,1122.779
1376,1123.947
1377,1125.480
1378,1127.014
1379,1128.218
1380,1128.912
1381,1129.167
1382,1129.240
1383,1129.459
1384,1129.897
1385,1130.518
1386,1131.211
1387,1132.087
1388,1133.365
1389,1135.409
1390,1138.438
1391,1142.344
1392,1146.907
1393,1151.907
1394,1157.237
1395,1162.967
1396,1169.099
1397,1175.524
1398,1181.948
1399,1188.153
1400,1194.176
1401,1200.235
1402,1206.623
1403,1213.449
1404,1220.676
1405,1228.159
1406,1235.787
1407,1243.161
1408,1249.877
1409,1255.754
1410,1260.827
1411,1265.244
1412,1269.186
1413,1272.763
1414,1276.121
1415,1279.370
1416,1282.472
1417,1285.429
1418,1288.313
1419,1291.233
1420,1294.189
1421,1297.182
1422,1300.139
1423,1302.913
1424,1305.505
1425,1308.023
1426,1310.542
1427,1313.170
1428,1315.981
1429,1318.974
1430,1322.113
1431,1325.398
1432,1328.829
1433,1332.370
1434,1335.910
1435,1339.378
1436,1342.590
1437,1345.510
1438,1348.102
1439,1350.474
1440,1352.810
1441,1355.329
1442,1358.213
1443,1361.644
1444,1365.659
1445,1370.222
1446,1375.332
1447,1380.807
1448,1386.392
1449,1391.903
1450,1397.086
1451,1401.832
1452,1406.212
1453,1410.409
1454,1414.680
1455,1419.024
1456,1423.367
1457,1427.529
1458,1431.252
1459,1434.354
1460,1436.727
1461,1438.515
1462,1440.012
1463,1441.655
1464,1443.845
1465,1446.838
1466,1451.072
1467,1456.912
1468,1464.431
1469,1473.630
1470,1484.252
1471,1496.078
1472,1508.890
1473,1522.505
1474,1536.850
1475,1551.742
1476,1566.854
1477,1582.002
1478,1597.040
1479,1611.823
1480,1626.168
1481,1639.783
1482,1652.522
1483,1664.276
1484,1674.934
1485,1684.279
1486,1692.199
1487,1698.587
1488,1703.369
1489,1706.727
1490,1708.990
1491,1710.486
1492,1711.435
1493,1711.983
1494,1712.166
1495,1711.983
1496,1711.362
1497,1710.304
1498,1709.026
1499,1707.676
1500,1706.362
1501,1705.157
1502,1704.026
1503,1702.967
1504,1701.982
1505,1700.923
1506,1699.682
1507,1698.149
1508,1696.287
1509,1693.732
1510,1690.155
1511,1685.191
1512,1678.730
1513,1670.883
1514,1661.976
1515,1652.340
1516,1642.229
1517,1631.680
1518,1620.657
1519,1609.268
1520,1597.734
1521,1586.382
1522,1575.432
1523,1564.883
1524,1554.735
1525,1544.917
1526,1535.353
1527,1525.863
1528,1516.373
1529,1506.846
1530,1497.063
1531,1486.989
1532,1476.367
1533,1464.979
1534,1452.678
1535,1439.647
1536,1426.214
1537,1412.855
1538,1399.861
1539,1387.450
1540,1375.733
1541,1364.710
1542,1354.343
1543,1344.707
1544,1335.874
1545,1327.844
1546,1320.689
1547,1314.338
1548,1308.790
1549,1304.081
1550,1300.176
1551,1297.109
1552,1294.883
1553,1293.532
1554,1293.021
1555,1293.277
1556,1294.189
1557,1295.649
1558,1297.511
1559,1299.665
1560,1302.110
1561,1304.957
1562,1308.169
1563,1311.710
1564,1315.506
1565,1319.521
1566,1323.755
1567,1328.245
1568,1333.027
1569,1338.100
1570,1343.430
1571,1349.087
1572,1355.037
1573,1361.461
1574,1368.615
1575,1376.792
1576,1386.173
1577,1396.831
1578,1408.767
1579,1421.871
1580,1435.997
1581,1450.670
1582,1465.490
1583,1479.981
1584,1493.742
1585,1506.408
1586,1517.833
1587,1527.944
1588,1536.667
1589,1544.041
1590,1550.027
1591,1554.626
1592,1557.875
1593,1559.773
1594,1560.466
1595,1560.065
1596,1558.714
1597,1556.561
1598,1553.823
1599,1550.757
1600,1547.472
1601,1544.041
1602,1540.646
1603,1537.361
1604,1534.112
1605,1530.937
1606,1527.871
1607,1525.060
1608,1522.541
1609,1520.132
1610,1517.760
1611,1515.314
1612,1512.796
1613,1510.167
1614,1507.284
1615,1504.145
1616,1500.750
1617,1497.136
1618,1493.523
1619,1490.019
1620,1486.807
1621,1484.033
1622,1481.696
1623,1479.835
1624,1478.484
1625,1477.645
1626,1477.207
1627,1476.915
1628,1476.440
1629,1475.455
1630,1473.630
1631,1470.710
1632,1466.512
1633,1461.000
1634,1454.065
1635,1445.560
1636,1435.303
1637,1423.112
1638,1408.730
1639,1392.049
1640,1373.069
1641,1352.044
1642,1329.194
1643,1304.775
1644,1279.078
1645,1252.614
1646,1226.005
1647,1199.834
1648,1174.502
1649,1150.301
1650,1127.050
1651,1104.711
1652,1083.212
1653,1062.844
1654,1043.791
1655,1026.160
1656,1009.808
1657,994.623
1658,980.716
1659,968.452
1660,958.232
1661,950.201
1662,944.580
1663,941.477
1664,940.966
1665,943.047
1666,947.646
1667,954.435
1668,963.123
1669,973.416
1670,985.097
1671,998.164
1672,1012.618
1673,1028.278
1674,1044.849
1675,1061.895
1676,1079.124
1677,1096.352
1678,1113.472
1679,1130.226
1680,1146.213
1681,1160.960
1682,1174.027
1683,1185.197
1684,1194.504
1685,1201.951
1686,1207.572
1687,1211.550
1688,1214.033
1689,1215.456
1690,1216.150
1691,1216.259
1692,1215.858
1693,1214.872
1694,1213.449
1695,1211.806
1696,1210.309
1697,1209.214
1698,1208.849
1699,1209.287
1700,1210.528
1701,1212.353
1702,1214.544
1703,1216.916
1704,1219.252
1705,1221.369
1706,1223.121
1707,1224.399
1708,1225.202
1709,1225.749
1710,1226.260
1711,1226.808
1712,1227.502
1713,1228.451
1714,1229.692
1715,1231.261
1716,1233.050
1717,1235.167
1718,1237.831
1719,1241.226
1720,1245.643
1721,1251.154
1722,1257.798
1723,1265.499
1724,1274.223
1725,1283.933
1726,1294.554
1727,1306.016
1728,1318.171
1729,1331.092
1730,1344.707
1731,1358.943
1732,1373.507
1733,1388.217
1734,1403.000
1735,1417.783
1736,1432.639
1737,1447.422
1738,1462.168
1739,1476.805
1740,1491.479
1741,1506.189
1742,1520.972
1743,1535.901
1744,1550.793
1745,1565.357
1746,1579.082
1747,1591.383
1748,1602.005
1749,1610.838
1750,1618.102
1751,1624.051
1752,1628.979
1753,1633.140
1754,1636.827
1755,1640.258
1756,1643.616
1757,1646.938
1758,1650.369
1759,1654.201
1760,1658.728
1761,1664.276
1762,1670.846
1763,1678.256
1764,1686.104
1765,1694.024
1766,1701.580
1767,1708.588
1768,1714.940
1769,1720.415
1770,1724.758
1771,1727.788
1772,1729.394
1773,1729.358
1774,1727.606
1775,1723.919
1776,1718.188
1777,1710.377
1778,1700.485
1779,1688.659
1780,1675.336
1781,1660.845
1782,1645.478
1783,1629.490
1784,1613.174
1785,1596.785
1786,1580.432
1787,1564.226
1788,1548.092
1789,1532.032
1790,1516.190
1791,1500.860
1792,1486.296
1793,1472.462
1794,1459.212
1795,1446.436
1796,1434.099
1797,1422.163
1798,1410.482
1799,1399.021
1800,1387.742
1801,1376.646
1802,1365.987
1803,1356.059
1804,1347.153
1805,1339.268
1806,1332.406
1807,1326.420
1808,1321.346
1809,1317.222
1810,1313.937
1811,1311.637
1812,1310.250
1813,1309.702
1814,1309.739
1815,1310.104
1816,1310.651
1817,1311.418
1818,1312.403
1819,1313.718
1820,1315.543
1821,1317.952
1822,1321.018
1823,1324.777
1824,1329.158
1825,1334.085
1826,1339.414
1827,1345.072
1828,1351.022
1829,1357.227
1830,1363.688
1831,1370.477
1832,1377.777
1833,1385.771
1834,1394.641
1835,1404.350
1836,1414.717
1837,1425.557
1838,1436.617
1839,1447.750
1840,1458.664
1841,1469.067
1842,1478.740
1843,1487.537
1844,1495.421
1845,1502.539
1846,1509.145
1847,1515.570
1848,1522.140
1849,1529.112
1850,1536.448
1851,1544.114
1852,1552.034
1853,1560.138
1854,1568.350
1855,1576.527
1856,1584.667
1857,1592.660
1858,1600.435
1859,1607.735
1860,1614.160
1861,1619.598
1862,1624.088
1863,1627.738
1864,1630.695
1865,1632.885
1866,1634.272
1867,1634.819
1868,1634.600
1869,1633.432
1870,1631.096
1871,1627.300
1872,1621.788
1873,1614.598
1874,1605.947
1875,1596.310
1876,1586.090
1877,1575.760
1878,1565.576
1879,1555.940
1880,1546.961
1881,1538.602
1882,1530.791
1883,1523.454
1884,1516.701
1885,1510.532
1886,1505.057
1887,1500.166
1888,1495.895
1889,1492.026
1890,1488.449
1891,1484.909
1892,1481.222
1893,1477.280
1894,1473.046
1895,1468.446
1896,1463.519
1897,1458.263
1898,1452.641
1899,1446.619
1900,1440.048
1901,1432.858
1902,1424.973
1903,1416.250
1904,1406.358
1905,1394.969
1906,1382.011
1907,1367.593
1908,1352.044
1909,1335.764
1910,1318.901
1911,1301.526
1912,1283.786
1913,1265.864
1914,1247.869
1915,1229.838
1916,1211.587
1917,1193.190
1918,1174.538
1919,1155.667
1920,1136.686
1921,1117.852
1922,1099.638
1923,1082.482
1924,1066.786
1925,1052.697
1926,1040.213
1927,1029.336
1928,1020.101
1929,1012.326
1930,1005.866
1931,1000.573
1932,996.193
1933,992.689
1934,990.024
1935,988.345
1936,987.725
1937,988.053
1938,989.294
1939,991.338
1940,994.185
1941,997.872
1942,1002.325
1943,1007.362
1944,1012.764
1945,1018.532
1946,1024.664
1947,1031.088
1948,1037.731
1949,1044.484
1950,1051.237
1951,1058.063
1952,1064.961
1953,1072.079
1954,1079.489
1955,1087.154
1956,1095.148
1957,1103.324
1958,1111.683
1959,1120.188
1960,1128.839
1961,1137.635
1962,1146.542
1963,1155.521
1964,1164.464
1965,1173.297
1966,1182.130
1967,1191.073
1968,1200.308
1969,1209.835
1970,1219.690
1971,1229.911
1972,1240.423
1973,1251.227
1974,1262.214
1975,1273.311
1976,1284.517
1977,1295.649
1978,1306.454
1979,1316.674
1980,1326.018
1981,1334.523
1982,1342.335
1983,1349.781
1984,1357.118
1985,1364.381
1986,1371.572
1987,1378.653
1988,1385.552
1989,1392.268
1990,1398.693
1991,1404.825
1992,1410.665
1993,1416.286
1994,1421.798
1995,1427.310
1996,1433.004
1997,1438.990
1998,1445.305
1999,1451.984
2000,1459.102
2001,1466.658
2002,1474.798
2003,1483.668
2004,1493.450
2005,1504.218
2006,1515.898
2007,1528.236
2008,1540.975
2009,1553.859
2010,1566.598
2011,1578.790
2012,1590.251
2013,1600.764
2014,1610.217
2015,1618.503
2016,1625.584
2017,1631.242
2018,1635.403
2019,1638.031
2020,1638.980
2021,1638.250
2022,1635.914
2023,1632.191
2024,1627.519
2025,1622.226
2026,1616.569
2027,1610.838
2028,1605.290
2029,1600.034
2030,1595.069
2031,1590.251
2032,1585.360
2033,1580.213
2034,1574.665
2035,1568.606
2036,1562.072
2037,1555.210
2038,1548.165
2039,1541.157
2040,1534.331
2041,1527.980
2042,1522.176
2043,1517.103
2044,1512.832
2045,1509.364
2046,1506.627
2047,1504.473
2048,1502.831
2049,1501.772
2050,1501.334
2051,1501.699
2052,1503.013
2053,1505.386
2054,1508.525
2055,1512.102
2056,1515.533
2057,1518.417
2058,1520.388
2059,1521.373
2060,1521.446
2061,1520.716
2062,1519.329
2063,1517.577
2064,1515.716
2065,1513.781
2066,1511.737
2067,1509.583
2068,1507.284
2069,1504.875
2070,1502.502
2071,1500.166
2072,1497.867
2073,1495.567
2074,1493.304
2075,1490.931
2076,1488.340
2077,1485.310
2078,1481.806
2079,1477.754
2080,1473.155
2081,1467.972
2082,1462.132
2083,1455.635
2084,1448.553
2085,1440.998
2086,1433.113
2087,1425.046
2088,1416.907
2089,1408.730
2090,1400.518
2091,1392.195
2092,1383.837
2093,1375.587
2094,1367.739
2095,1360.439
2096,1353.869
2097,1348.102
2098,1343.320
2099,1339.743
2100,1337.370
2101,1336.056
2102,1335.436
2103,1334.961
2104,1334.268
2105,1333.246
2106,1332.041
2107,1331.056
2108,1330.727
2109,1331.457
2110,1333.355
2111,1336.567
2112,1340.984
2113,1346.459
2114,1352.883
2115,1360.038
2116,1367.776
2117,1375.952
2118,1384.384
2119,1393.071
2120,1401.978
2121,1411.030
2122,1420.192
2123,1429.536
2124,1438.990
2125,1448.626
2126,1458.482
2127,1468.446
2128,1478.448
2129,1488.303
2130,1497.793
2131,1506.955
2132,1516.008
2133,1525.206
2134,1534.806
2135,1544.990
2136,1555.867
2137,1567.657
2138,1580.323
2139,1593.901
2140,1608.100
2141,1622.591
2142,1637.009
2143,1651.135
2144,1664.714
2145,1677.635
2146,1689.790
2147,1701.033
2148,1711.180
2149,1720.050
2150,1727.460
2151,1733.373
2152,1737.680
2153,1740.198
2154,1740.819
2155,1739.432
2156,1736.037
2157,1730.708
2158,1723.736
2159,1715.305
2160,1705.559
2161,1694.645
2162,1682.490
2163,1669.094
2164,1654.530
2165,1638.798
2166,1622.007
2167,1604.268
2168,1585.543
2169,1565.868
2170,1545.318
2171,1524.001
2172,1502.174
2173,1479.944
2174,1457.679
2175,1435.705
2176,1414.352
2177,1393.911
2178,1374.529
2179,1356.351
2180,1339.414
2181,1323.536
2182,1308.461
2183,1293.934
2184,1279.771
2185,1266.083
2186,1253.162
2187,1241.299
2188,1230.641
2189,1221.150
2190,1212.792
2191,1205.455
2192,1198.958
2193,1192.935
2194,1187.168
2195,1181.510
2196,1175.925
2197,1170.304
2198,1164.646
2199,1158.989
2200,1153.367
2201,1147.929
2202,1142.782
2203,1138.146
2204,1134.350
2205,1131.686
2206,1130.299
2207,1130.153
2208,1131.211
2209,1133.474
2210,1136.869
2211,1141.286
2212,1146.469
2213,1152.053
2214,1157.894
2215,1164.026
2216,1170.596
2217,1177.714
2218,1185.197
2219,1192.935
2220,1200.856
2221,1209.068
2222,1217.500
2223,1226.151
2224,1234.802
2225,1243.380
2226,1251.556
2227,1259.185
2228,1266.193
2229,1272.654
2230,1278.567
2231,1284.225
2232,1289.919
2233,1295.868
2234,1302.183
2235,1308.790
2236,1315.506
2237,1322.040
2238,1328.063
2239,1333.282
2240,1337.443
2241,1340.217
2242,1341.568
2243,1341.714
2244,1341.057
2245,1340.108
2246,1339.159
2247,1338.429
2248,1337.918
2249,1337.370
2250,1336.567
2251,1335.436
2252,1334.049
2253,1332.844
2254,1332.078
2255,1331.932
2256,1332.516
2257,1333.647
2258,1335.217
2259,1337.188
2260,1339.779
2261,1343.138
2262,1347.299
2263,1352.153
2264,1357.337
2265,1362.702
2266,1368.141
2267,1373.799
2268,1379.566
2269,1385.443
2270,1391.246
2271,1397.086
2272,1402.927
2273,1408.803
2274,1414.644
2275,1420.557
2276,1426.506
2277,1432.493
2278,1438.369
2279,1444.137
2280,1449.612
2281,1454.685
2282,1459.394
2283,1463.774
2284,1468.045
2285,1472.279
2286,1476.732
2287,1481.623
2288,1487.062
2289,1493.048
2290,1499.473
2291,1506.262
2292,1513.234
2293,1519.877
2294,1525.717
2295,1530.316
2296,1533.419
2297,1534.988
2298,1534.915
2299,1533.090
2300,1529.148
2301,1522.760
2302,1513.635
2303,1501.626
2304,1486.916
2305,1469.834
2306,1450.926
2307,1430.923
2308,1410.555
2309,1390.370
2310,1370.769
2311,1351.971
2312,1334.231
2313,1318.025
2314,1303.753
2315,1291.598
2316,1281.560
2317,1273.566
2318,1267.397
2319,1262.835
2320,1259.659
2321,1257.579
2322,1256.265
2323,1255.608
2324,1255.498
2325,1255.973
2326,1257.068
2327,1258.674
2328,1260.827
2329,1263.455
2330,1266.558
2331,1269.989
2332,1273.603
2333,1277.326
2334,1281.268
2335,1285.721
2336,1290.941
2337,1297.000
2338,1303.789
2339,1311.016
2340,1318.645
2341,1326.675
2342,1335.290
2343,1344.525
2344,1354.453
2345,1365.038
2346,1376.317
2347,1388.217
2348,1400.664
2349,1413.622
2350,1426.981
2351,1440.559
2352,1454.138
2353,1467.461
2354,1480.273
2355,1492.245
2356,1503.232
2357,1513.161
2358,1521.884
2359,1529.440
2360,1535.755
2361,1540.829
2362,1544.734
2363,1547.362
2364,1548.822
2365,1549.151
2366,1548.421
2367,1546.596
2368,1543.566
2369,1539.405
2370,1534.331
2371,1528.747
2372,1522.906
2373,1517.030
2374,1511.226
2375,1505.714
2376,1500.750
2377,1496.516
2378,1493.231
2379,1490.931
2380,1489.617
2381,1489.252
2382,1489.727
2383,1490.968
2384,1492.829
2385,1495.165
2386,1497.903
2387,1501.261
2388,1505.459
2389,1510.569
2390,1516.665
2391,1523.709
2392,1531.557
2393,1540.135
2394,1549.406
2395,1559.298
2396,1569.665
2397,1580.250
2398,1590.616
2399,1600.508
2400,1609.816
2401,1618.613
2402,1626.899
2403,1634.600
2404,1641.828
2405,1648.653
2406,1655.114
2407,1661.283
2408,1667.050
2409,1672.379
2410,1677.197
2411,1681.468
2412,1685.228
2413,1688.403
2414,1690.958
2415,1692.929
2416,1694.280
2417,1694.973
2418,1695.010
2419,1694.353
2420,1693.112
2421,1691.396
2422,1689.316
2423,1686.870
2424,1683.914
2425,1680.373
2426,1676.102
2427,1670.956
2428,1664.823
2429,1657.596
2430,1649.091
2431,1639.126
2432,1627.629
2433,1614.598
2434,1600.216
2435,1584.740
2436,1568.387
2437,1551.231
2438,1533.309
2439,1514.840
2440,1496.187
2441,1477.718
2442,1459.613
2443,1441.874
2444,1424.316
2445,1406.650
2446,1388.472
2447,1369.455
2448,1349.233
2449,1327.734
2450,1305.030
2451,1281.268
2452,1256.557
2453,1231.042
2454,1204.834
2455,1178.188
2456,1151.579
2457,1125.298
2458,1099.601
2459,1074.415
2460,1049.813
2461,1025.941
2462,1003.128
2463,981.519
2464,961.152
2465,941.989
2466,924.139
2467,907.714
2468,893.040
2469,880.301
2470,869.752
2471,861.503
2472,855.480
2473,851.611
2474,849.713
2475,849.604
2476,851.173
2477,854.203
2478,858.474
2479,863.657
2480,869.643
2481,876.505
2482,884.316
2483,893.150
2484,903.078
2485,913.956
2486,925.563
2487,937.608
2488,949.690
2489,961.444
2490,972.577
2491,983.016
2492,992.725
2493,1001.814
2494,1010.319
2495,1018.422
2496,1026.197
2497,1033.899
2498,1041.637
2499,1049.266
2500,1056.712
2501,1063.976
2502,1071.276
2503,1078.832
2504,1086.716
2505,1094.637
2506,1102.302
2507,1109.566
2508,1116.428
2509,1123.035
2510,1129.569
2511,1136.139
2512,1142.673
2513,1149.170
2514,1155.521
2515,1161.726
2516,1167.785
2517,1173.662
2518,1179.247
2519,1184.540
2520,1189.467
2521,1194.139
2522,1198.629
2523,1203.228
2524,1208.156
2525,1213.558
2526,1219.508
2527,1226.078
2528,1233.269
2529,1241.043
2530,1249.439
2531,1258.382
2532,1267.799
2533,1277.545
2534,1287.546
2535,1297.693
2536,1307.877
2537,1317.952
2538,1327.698
2539,1336.713
2540,1344.890
2541,1352.299
2542,1359.125
2543,1365.622
2544,1371.901
2545,1377.923
2546,1383.764
2547,1389.458
2548,1395.079
2549,1400.737
2550,1406.431
2551,1412.234
2552,1418.038
2553,1423.659
2554,1428.916
2555,1433.734
2556,1438.150
2557,1442.239
2558,1445.998
2559,1449.575
2560,1453.043
2561,1456.474
2562,1459.905
2563,1463.300
2564,1466.658
2565,1469.980
2566,1473.374
2567,1476.951
2568,1480.820
2569,1485.055
2570,1489.690
2571,1494.910
2572,1500.860
2573,1507.831
2574,1516.008
2575,1525.425
2576,1535.901
2577,1547.289
2578,1559.262
2579,1571.636
2580,1584.302
2581,1597.296
2582,1610.582
2583,1624.161
2584,1637.812
2585,1651.318
2586,1664.422
2587,1676.869
2588,1688.549
2589,1699.463
2590,1709.464
2591,1718.444
2592,1726.401
2593,1733.446
2594,1739.943
2595,1746.002
2596,1751.769
2597,1757.318
2598,1762.683
2599,1767.793
2600,1772.502
2601,1776.700
2602,1780.240
2603,1782.941
2604,1784.803
2605,1785.898
2606,1786.336
2607,1786.154
2608,1785.460
2609,1784.219
2610,1782.576
2611,1780.459
2612,1777.722
2613,1774.181
2614,1769.692
2615,1764.289
2616,1758.048
2617,1751.039
2618,1743.228
2619,1734.723
2620,1725.598
2621,1715.998
2622,1705.960
2623,1695.484
2624,1684.425
2625,1672.635
2626,1660.005
2627,1646.500
2628,1632.118
2629,1617.080
2630,1601.640
2631,1586.200
2632,1571.052
2633,1556.488
2634,1542.544
2635,1529.404
2636,1517.139
2637,1505.678
2638,1494.983
2639,1484.872
2640,1475.382
2641,1466.621
2642,1458.701
2643,1451.583
2644,1445.195
2645,1439.391
2646,1433.916
2647,1428.587
2648,1423.221
2649,1417.856
2650,1412.454
2651,1407.197
2652,1402.343
2653,1398.291
2654,1395.407
2655,1393.874
2656,1393.728
2657,1395.152
2658,1398.255
2659,1403.036
2660,1409.241
2661,1416.615
2662,1424.973
2663,1434.172
2664,1443.991
2665,1454.174
2666,1464.358
2667,1474.323
2668,1483.887
2669,1492.902
2670,1501.225
2671,1508.853
2672,1515.789
2673,1522.176
2674,1527.871
2675,1532.762
2676,1536.485
2677,1538.857
2678,1539.806
2679,1539.551
2680,1538.237
2681,1535.974
2682,1532.835
2683,1529.112
2684,1525.206
2685,1521.629
2686,1518.745
2687,1516.665
2688,1515.460
2689,1515.059
2690,1515.278
2691,1515.971
2692,1516.920
2693,1517.942
2694,1518.745
2695,1519.074
2696,1518.490
2697,1516.738
2698,1513.818
2699,1509.985
2700,1505.568
2701,1500.823
2702,1495.895
2703,1490.822
2704,1485.529
2705,1479.835
2706,1473.666
2707,1467.023
2708,1459.796
2709,1452.057
2710,1443.699
2711,1434.756
2712,1425.265
2713,1415.191
2714,1404.314
2715,1392.524
2716,1379.748
2717,1366.316
2718,1352.628
2719,1339.122
2720,1326.055
2721,1313.645
2722,1301.855
2723,1290.649
2724,1279.954
2725,1269.697
2726,1259.805
2727,1250.205
2728,1240.569
2729,1230.604
2730,1220.019
2731,1208.813
2732,1196.950
2733,1184.613
2734,1171.983
2735,1159.317
2736,1146.907
2737,1134.971
2738,1123.838
2739,1113.910
2740,1105.405
2741,1098.470
2742,1093.031
2743,1088.943
2744,1085.950
2745,1083.796
2746,1082.372
2747,1081.642
2748,1081.569
2749,1082.226
2750,1083.613
2751,1085.731
2752,1088.651
2753,1092.483
2754,1097.374
2755,1103.580
2756,1111.208
2757,1120.224
2758,1130.518
2759,1141.870
2760,1154.207
2761,1167.384
2762,1181.072
2763,1194.942
2764,1208.703
2765,1222.209
2766,1235.313
2767,1247.723
2768,1259.112
2769,1269.295
2770,1278.348
2771,1286.561
2772,1294.153
2773,1301.052
2774,1307.111
2775,1312.002
2776,1315.506
2777,1317.660
2778,1318.609
2779,1318.499
2780,1317.623
2781,1316.309
2782,1314.886
2783,1313.718
2784,1313.134
2785,1313.316
2786,1314.156
2787,1315.470
2788,1317.076
2789,1319.156
2790,1321.894
2791,1325.544
2792,1330.070
2793,1335.180
2794,1340.509
2795,1345.729
2796,1350.584
2797,1354.854
2798,1358.468
2799,1361.352
2800,1363.578
2801,1365.294
2802,1366.498
2803,1367.338
2804,1367.776
2805,1367.849
2806,1367.630
2807,1367.228
2808,1366.863
2809,1366.754
2810,1366.936
2811,1367.447
2812,1368.250
2813,1369.053
2814,1369.820
2815,1370.550
2816,1371.463
2817,1372.813
2818,1374.821
2819,1377.850
2820,1381.975
2821,1387.304
2822,1393.801
2823,1401.211
2824,1409.278
2825,1417.637
2826,1425.886
2827,1433.770
2828,1441.217
2829,1448.371
2830,1455.562
2831,1463.190
2832,1471.622
2833,1481.039
2834,1491.333
2835,1502.174
2836,1513.234
2837,1524.220
2838,1535.061
2839,1545.683
2840,1556.123
2841,1566.379
2842,1576.454
2843,1586.309
2844,1595.909
2845,1605.180
2846,1614.014
2847,1622.299
2848,1629.928
2849,1636.754
2850,1642.667
2851,1647.631
2852,1651.756
2853,1655.187
2854,1658.107
2855,1660.699
2856,1663.181
2857,1665.590
2858,1667.962
2859,1670.262
2860,1672.489
2861,1674.606
2862,1676.723
2863,1678.876
2864,1681.103
2865,1683.476
2866,1685.958
2867,1688.549
2868,1691.141
2869,1693.513
2870,1695.338
2871,1696.287
2872,1695.922
2873,1694.097
2874,1690.812
2875,1686.250
2876,1680.884
2877,1675.007
2878,1668.984
2879,1663.035
2880,1657.414
2881,1652.413
2882,1648.106
2883,1644.565
2884,1641.682
2885,1639.418
2886,1637.703
2887,1636.535
2888,1635.878
2889,1635.659
2890,1635.586
2891,1635.367
2892,1634.819
2893,1633.761
2894,1632.191
2895,1630.001
2896,1627.154
2897,1623.650
2898,1619.343
2899,1614.160
2900,1608.137
2901,1601.238
2902,1593.463
2903,1584.849
2904,1575.432
2905,1565.357
2906,1554.699
2907,1543.603
2908,1532.178
2909,1520.607
2910,1508.963
2911,1497.319
2912,1485.675
2913,1473.958
2914,1462.241
2915,1450.670
2916,1439.428
2917,1428.733
2918,1418.695
2919,1409.314
2920,1400.627
2921,1392.597
2922,1385.297
2923,1378.799
2924,1373.288
2925,1369.017
2926,1366.060
2927,1364.527
2928,1364.454
2929,1365.768
2930,1368.396
2931,1372.229
2932,1377.157
2933,1383.179
2934,1390.261
2935,1398.218
2936,1406.796
2937,1415.848
2938,1425.010
2939,1433.989
2940,1442.421
2941,1450.123
2942,1457.131
2943,1463.373
2944,1468.738
2945,1473.119
2946,1476.477
2947,1478.667
2948,1479.689
2949,1479.616
2950,1478.630
2951,1477.061
2952,1475.053
2953,1472.863
2954,1470.746
2955,1468.921
2956,1467.534
2957,1466.658
2958,1466.366
2959,1466.658
2960,1467.461
2961,1468.556
2962,1469.724
2963,1470.673
2964,1471.111
2965,1470.819
2966,1469.834
2967,1468.154
2968,1465.745
2969,1462.570
2970,1458.591
2971,1453.992
2972,1448.809
2973,1443.078
2974,1436.836
2975,1430.084
2976,1422.674
2977,1414.388
2978,1405.044
2979,1394.495
2980,1382.924
2981,1370.733
2982,1358.505
2983,1346.715
2984,1335.655
2985,1325.507
2986,1316.273
2987,1307.877
2988,1300.322
2989,1293.569
2990,1287.619
2991,1282.399
2992,1277.800
2993,1273.712
2994,1269.953
2995,1266.412
2996,1262.871
2997,1259.002
2998,1254.695
2999,1249.767
3000,1244.256
3001,1238.160
3002,1231.298
3003,1223.632
3004,1215.128
3005,1205.893
3006,1196.074
3007,1185.854
3008,1175.378
3009,1164.792
3010,1154.134
3011,1143.512
3012,1132.963
3013,1122.597
3014,1112.449
3015,1102.631
3016,1093.213
3017,1084.124
3018,1075.291
3019,1066.567
3020,1057.990
3021,1049.740
3022,1042.185
3023,1035.505
3024,1029.920
3025,1025.540
3026,1022.547
3027,1021.160
3028,1021.306
3029,1022.839
3030,1025.503
3031,1029.117
3032,1033.643
3033,1039.082
3034,1045.616
3035,1053.281
3036,1061.968
3037,1071.568
3038,1081.642
3039,1091.753
3040,1101.572
3041,1110.989
3042,1119.969
3043,1128.656
3044,1137.124
3045,1145.629
3046,1154.462
3047,1163.880
3048,1173.991
3049,1184.795
3050,1196.366
3051,1208.484
3052,1220.858
3053,1233.159
3054,1245.059
3055,1256.520
3056,1267.616
3057,1278.384
3058,1288.897
3059,1299.263
3060,1309.739
3061,1320.397
3062,1331.421
3063,1342.736
3064,1354.234
3065,1365.732
3066,1377.011
3067,1387.742
3068,1397.634
3069,1406.540
3070,1414.315
3071,1420.885
3072,1426.251
3073,1430.522
3074,1433.770
3075,1436.143
3076,1437.712
3077,1438.515
3078,1438.661
3079,1438.296
3080,1437.785
3081,1437.347
3082,1437.347
3083,1437.931
3084,1439.063
3085,1440.632
3086,1442.640
3087,1445.086
3088,1447.933
3089,1451.254
3090,1455.124
3091,1459.504
3092,1464.358
3093,1469.578
3094,1475.199
3095,1481.295
3096,1488.011
3097,1495.567
3098,1503.889
3099,1512.832
3100,1522.140
3101,1531.302
3102,1539.770
3103,1547.107
3104,1553.202
3105,1558.240
3106,1562.474
3107,1566.160
3108,1569.555
3109,1572.877
3110,1576.308
3111,1579.775
3112,1583.243
3113,1586.565
3114,1589.594
3115,1592.332
3116,1594.923
3117,1597.442
3118,1599.961
3119,1602.589
3120,1605.363
3121,1608.392
3122,1611.714
3123,1615.437
3124,1619.525
3125,1623.978
3126,1628.797
3127,1633.870
3128,1639.163
3129,1644.638
3130,1650.369
3131,1656.319
3132,1662.195
3133,1667.816
3134,1673.073
3135,1677.854
3136,1682.052
3137,1685.666
3138,1688.695
3139,1691.141
3140,1693.148
3141,1694.791
3142,1696.178
3143,1697.382
3144,1698.441
3145,1699.463
3146,1700.339
3147,1701.142
3148,1701.799
3149,1702.274
3150,1702.529
3151,1702.347
3152,1701.507
3153,1699.974
3154,1697.821
3155,1695.046
3156,1691.761
3157,1687.929
3158,1683.476
3159,1678.402
3160,1672.635
3161,1666.028
3162,1658.618
3163,1650.296
3164,1641.244
3165,1631.644
3166,1621.679
3167,1611.604
3168,1601.457
3169,1591.200
3170,1580.724
3171,1569.774
3172,1558.240
3173,1545.939
3174,1532.835
3175,1518.891
3176,1504.108
3177,1488.522
3178,1472.133
3179,1455.014
3180,1437.311
3181,1419.352
3182,1401.686
3183,1384.786
3184,1368.944
3185,1354.307
3186,1340.838
3187,1328.391
3188,1316.930
3189,1306.344
3190,1296.671
3191,1287.911
3192,1279.954
3193,1272.836
3194,1266.448
3195,1260.718
3196,1255.498
3197,1250.826
3198,1246.738
3199,1243.343
3200,1240.569
3201,1238.379
3202,1236.809
3203,1235.860
3204,1235.641
3205,1236.189
3206,1237.576
3207,1239.985
3208,1243.599
3209,1248.490
3210,1254.476
3211,1261.411
3212,1269.186
3213,1277.691
3214,1286.816
3215,1296.452
3216,1306.381
3217,1316.455
3218,1326.529
3219,1336.567
3220,1346.569
3221,1356.643
3222,1367.046
3223,1377.996
3224,1389.713
3225,1402.270
3226,1415.775
3227,1430.266
3228,1445.779
3229,1462.205
3230,1479.397
3231,1497.246
3232,1515.570
3233,1534.331
3234,1553.494
3235,1573.059
3236,1592.733
3237,1612.006
3238,1630.476
3239,1647.631
3240,1663.181
3241,1676.869
3242,1688.622
3243,1698.405
3244,1706.252
3245,1712.202
3246,1716.327
3247,1718.772
3248,1719.721
3249,1719.283
3250,1717.458
3251,1714.356
3252,1709.902
3253,1704.062
3254,1696.689
3255,1687.710
3256,1676.978
3257,1664.568
3258,1650.478
3259,1634.600
3260,1616.970
3261,1597.478
3262,1576.162
3263,1553.348
3264,1529.513
3265,1505.130
3266,1480.419
3267,1455.598
3268,1430.631
3269,1405.555
3270,1380.442
3271,1355.439
3272,1330.654
3273,1306.308
3274,1282.691
3275,1260.024
3276,1238.525
3277,1218.267
3278,1199.250
3279,1181.218
3280,1163.953
3281,1147.308
3282,1131.503
3283,1116.793
3284,1103.361
3285,1091.315
3286,1080.693
3287,1071.568
3288,1064.085
3289,1058.574
3290,1055.252
3291,1054.193
3292,1055.325
3293,1058.501
3294,1063.392
3295,1069.670
3296,1077.007
3297,1085.147
3298,1094.089
3299,1103.726
3300,1113.873
3301,1124.349
3302,1134.569
3303,1143.950
3304,1152.199
3305,1159.208
3306,1165.157
3307,1170.304
3308,1174.684
3309,1178.115
3310,1180.342
3311,1181.145
3312,1180.378
3313,1178.115
3314,1174.392
3315,1169.355
3316,1163.332
3317,1156.799
3318,1150.338
3319,1144.425
3320,1139.460
3321,1135.664
3322,1133.182
3323,1132.014
3324,1132.014
3325,1133.073
3326,1134.788
3327,1136.869
3328,1138.767
3329,1139.971
3330,1140.190
3331,1139.205
3332,1136.978
3333,1133.839
3334,1130.153
3335,1126.429
3336,1123.108
3337,1120.443
3338,1118.618
3339,1117.669
3340,1117.669
3341,1118.691
3342,1120.881
3343,1124.312
3344,1128.985
3345,1134.679
3346,1140.811
3347,1146.688
3348,1151.688
3349,1155.521
3350,1158.003
3351,1159.135
3352,1159.098
3353,1157.930
3354,1155.667
3355,1152.455
3356,1148.695
3357,1144.863
3358,1141.359
3359,1138.402
3360,1135.956
3361,1133.839
3362,1131.832
3363,1129.970
3364,1128.291
3365,1127.050
3366,1126.429
3367,1126.539
3368,1127.379
3369,1128.985
3370,1131.394
3371,1134.825
3372,1139.606
3373,1146.104
3374,1154.791
3375,1165.814
3376,1179.137
3377,1194.723
3378,1212.573
3379,1232.539
3380,1254.330
3381,1277.581
3382,1301.636
3383,1325.872
3384,1349.635
3385,1372.412
3386,1393.911
3387,1413.987
3388,1432.383
3389,1449.028
3390,1463.811
3391,1476.732
3392,1487.975
3393,1497.976
3394,1507.174
3395,1515.971
3396,1524.622
3397,1533.309
3398,1542.106
3399,1550.976
3400,1559.773
3401,1568.423
3402,1576.928
3403,1585.433
3404,1594.120
3405,1603.246
3406,1612.919
3407,1623.248
3408,1634.454
3409,1646.609
3410,1659.859
3411,1674.277
3412,1689.863
3413,1706.544
3414,1724.101
3415,1742.243
3416,1760.566
3417,1778.634
3418,1796.264
3419,1813.238
3420,1829.371
3421,1844.592
3422,1858.791
3423,1871.968
3424,1884.087
3425,1895.037
3426,1904.746
3427,1913.251
3428,1920.624
3429,1926.866
3430,1931.684
3431,1934.860
3432,1936.064
3433,1935.225
3434,1932.268
3435,1927.122
3436,1919.675
3437,1909.820
3438,1897.483
3439,1882.517
3440,1864.996
3441,1844.957
3442,1822.436
3443,1797.542
3444,1770.495
3445,1741.659
3446,1711.435
3447,1680.482
3448,1649.310
3449,1618.503
3450,1588.426
3451,1559.371
3452,1531.448
3453,1504.729
3454,1479.397
3455,1455.562
3456,1433.405
3457,1413.147
3458,1395.115
3459,1379.456
3460,1366.243
3461,1355.512
3462,1347.080
3463,1340.692
3464,1335.874
3465,1332.260
3466,1329.486
3467,1327.260
3468,1325.179
3469,1322.733
3470,1319.704
3471,1316.127
3472,1312.367
3473,1308.790
3474,1305.724
3475,1303.278
3476,1301.636
3477,1300.906
3478,1301.088
3479,1302.220
3480,1304.081
3481,1306.454
3482,1309.264
3483,1312.403
3484,1316.054
3485,1320.142
3486,1324.485
3487,1329.048
3488,1333.939
3489,1339.524
3490,1346.058
3491,1353.577
3492,1362.009
3493,1371.098
3494,1380.369
3495,1389.531
3496,1398.364
3497,1406.942
3498,1415.410
3499,1423.915
3500,1432.347
3501,1440.523
3502,1448.188
3503,1455.160
3504,1461.584
3505,1467.607
3506,1473.374
3507,1478.959
3508,1484.398
3509,1489.800
3510,1495.056
3511,1500.203
3512,1505.094
3513,1509.620
3514,1513.708
3515,1517.358
3516,1520.424
3517,1522.870
3518,1524.622
3519,1525.790
3520,1526.520
3521,1527.068
3522,1527.579
3523,1528.236
3524,1529.148
3525,1530.280
3526,1531.521
3527,1532.689
3528,1533.638
3529,1534.368
3530,1534.842
3531,1535.171
3532,1535.499
3533,1535.755
3534,1535.828
3535,1535.426
3536,1534.222
3537,1532.141
3538,1529.258
3539,1525.717
3540,1521.629
3541,1517.103
3542,1512.175
3543,1506.846
3544,1501.006
3545,1494.654
3546,1487.792
3547,1480.455
3548,1472.717
3549,1464.431
3550,1455.635
3551,1446.217
3552,1436.143
3553,1425.411
3554,1414.133
3555,1402.416
3556,1390.443
3557,1378.434
3558,1366.608
3559,1355.110
3560,1343.904
3561,1332.954
3562,1322.222
3563,1311.637
3564,1301.125
3565,1290.393
3566,1279.187
3567,1267.324
3568,1254.877
3569,1241.883
3570,1228.597
3571,1215.128
3572,1201.841
3573,1189.139
3574,1177.312
3575,1166.435
3576,1156.397
3577,1147.053
3578,1138.329
3579,1130.335
3580,1123.181
3581,1116.939
3582,1111.792
3583,1107.814
3584,1105.076
3585,1103.543
3586,1103.178
3587,1103.981
3588,1105.952
3589,1108.945
3590,1112.815
3591,1117.414
3592,1122.670
3593,1128.474
3594,1134.752
3595,1141.286
3596,1147.856
3597,1154.207
3598,1160.230
3599,1165.997
3600,1171.764
3601,1177.750
3602,1184.248
3603,1191.110
3604,1198.154
3605,1205.126
3606,1211.842
3607,1218.048
3608,1223.669
3609,1228.633
3610,1233.013
3611,1236.992
3612,1240.824
3613,1244.621
3614,1248.453
3615,1252.213
3616,1255.827
3617,1259.112
3618,1261.922
3619,1264.295
3620,1266.339
3621,1268.200
3622,1269.989
3623,1271.814
3624,1273.566
3625,1275.063
3626,1276.121
3627,1276.742
3628,1277.070
3629,1277.362
3630,1277.910
3631,1278.968
3632,1280.793
3633,1283.385
3634,1286.853
3635,1291.087
3636,1296.051
3637,1301.672
3638,1307.914
3639,1314.740
3640,1322.222
3641,1330.362
3642,1339.195
3643,1348.795
3644,1359.235
3645,1370.514
3646,1382.522
3647,1394.750
3648,1406.759
3649,1418.111
3650,1428.551
3651,1438.150
3652,1446.984
3653,1455.050
3654,1462.351
3655,1468.884
3656,1474.871
3657,1480.528
3658,1485.967
3659,1491.223
3660,1496.260
3661,1501.006
3662,1505.422
3663,1509.401
3664,1512.832
3665,1515.679
3666,1517.869
3667,1519.402
3668,1520.205
3669,1520.388
3670,1520.023
3671,1519.220
3672,1518.015
3673,1516.519
3674,1514.767
3675,1513.124
3676,1511.846
3677,1511.080
3678,1510.934
3679,1511.299
3680,1512.029
3681,1512.978
3682,1514.073
3683,1515.314
3684,1516.847
3685,1518.855
3686,1521.556
3687,1525.133
3688,1529.550
3689,1534.806
3690,1540.683
3691,1546.997
3692,1553.567
3693,1560.320
3694,1567.182
3695,1574.081
3696,1580.797
3697,1587.185
3698,1593.098
3699,1598.537
3700,1603.538
3701,1608.137
3702,1612.335
3703,1616.204
3704,1619.817
3705,1623.175
3706,1626.168
3707,1628.724
3708,1630.731
3709,1632.009
3710,1632.447
3711,1631.826
3712,1629.928
3713,1626.643
3714,1621.898
3715,1615.693
3716,1608.246
3717,1599.888
3718,1590.762
3719,1580.980
3720,1570.614
3721,1559.773
3722,1548.530
3723,1536.923
3724,1524.987
3725,1512.723
3726,1500.130
3727,1487.245
3728,1474.177
3729,1461.037
3730,1448.042
3731,1435.340
3732,1423.075
3733,1411.285
3734,1400.226
3735,1390.005
3736,1380.734
3737,1372.375
3738,1364.856
3739,1358.067
3740,1351.825
3741,1345.839
3742,1339.925
3743,1334.085
3744,1328.318
3745,1322.624
3746,1317.003
3747,1311.600
3748,1306.417
3749,1301.453
3750,1296.598
3751,1291.707
3752,1286.670
3753,1281.487
3754,1276.194
3755,1270.975
3756,1265.974
3757,1261.338
3758,1257.287
3759,1254.001
3760,1251.519
3761,1249.804
3762,1248.709
3763,1248.125
3764,1248.015
3765,1248.417
3766,1249.512
3767,1251.483
3768,1254.476
3769,1258.564
3770,1263.747
3771,1270.135
3772,1277.727
3773,1286.378
3774,1295.868
3775,1305.906
3776,1316.382
3777,1327.114
3778,1337.881
3779,1348.467
3780,1358.906
3781,1369.199
3782,1379.529
3783,1389.969
3784,1400.627
3785,1411.541
3786,1422.710
3787,1433.989
3788,1444.903
3789,1455.197
3790,1464.541
3791,1472.827
3792,1479.944
3793,1485.967
3794,1491.114
3795,1495.786
3796,1500.312
3797,1505.057
3798,1510.131
3799,1515.387
3800,1520.461
3801,1525.133
3802,1529.367
3803,1533.163
3804,1536.521
3805,1539.259
3806,1541.230
3807,1542.325
3808,1542.617
3809,1542.289
3810,1541.522
3811,1540.354
3812,1538.675
3813,1536.412
3814,1533.455
3815,1529.878
3816,1525.680
3817,1520.935
3818,1515.606
3819,1509.547
3820,1502.575
3821,1494.545
3822,1485.456
3823,1475.637
3824,1465.490
3825,1455.343
3826,1445.451
3827,1435.851
3828,1426.580
3829,1417.673
3830,1408.986
3831,1400.335
3832,1391.648
3833,1382.705
3834,1373.580
3835,1364.308
3836,1354.927
3837,1345.364
3838,1335.728
3839,1326.128
3840,1316.601
3841,1307.111
3842,1297.474
3843,1287.546
3844,1277.289
3845,1266.740
3846,1255.754
3847,1244.183
3848,1231.882
3849,1218.960
3850,1205.637
3851,1192.095
3852,1178.590
3853,1165.376
3854,1152.820
3855,1141.322
3856,1131.029
3857,1121.830
3858,1113.654
3859,1106.390
3860,1100.076
3861,1094.673
3862,1090.184
3863,1086.643
3864,1083.978
3865,1082.190
3866,1081.350
3867,1081.533
3868,1082.701
3869,1084.782
3870,1087.592
3871,1091.060
3872,1095.111
3873,1099.784
3874,1105.040
3875,1110.953
3876,1117.414
3877,1124.422
3878,1131.832
3879,1139.643
3880,1147.710
3881,1155.850
3882,1163.734
3883,1171.217
3884,1178.042
3885,1184.211
3886,1190.015
3887,1195.928
3888,1202.352
3889,1209.506
3890,1217.391
3891,1225.859
3892,1234.473
3893,1242.832
3894,1250.461
3895,1257.250
3896,1263.163
3897,1268.383
3898,1273.128
3899,1277.508
3900,1281.742
3901,1286.013
3902,1290.466
3903,1295.102
3904,1299.738
3905,1304.191
3906,1308.279
3907,1312.111
3908,1315.579
3909,1318.645
3910,1321.200
3911,1323.354
3912,1325.106
3913,1326.456
3914,1327.515
3915,1328.391
3916,1329.231
3917,1330.107
3918,1331.129
3919,1332.260
3920,1333.428
3921,1334.523
3922,1335.545
3923,1336.531
3924,1337.407
3925,1338.173
3926,1338.757
3927,1339.305
3928,1339.998
3929,1341.313
3930,1343.612
3931,1347.043
3932,1351.606
3933,1357.118
3934,1363.213
3935,1369.601
3936,1376.135
3937,1382.851
3938,1389.750
3939,1396.794
3940,1404.058
3941,1411.431
3942,1418.841
3943,1426.214
3944,1433.588
3945,1441.217
3946,1449.247
3947,1457.679
3948,1466.439
3949,1475.345
3950,1484.544
3951,1494.180
3952,1504.473
3953,1515.424
3954,1527.031
3955,1539.186
3956,1551.742
3957,1564.554
3958,1577.403
3959,1590.069
3960,1602.479
3961,1614.598
3962,1626.424
3963,1637.849
3964,1648.653
3965,1658.618
3966,1667.524
3967,1675.409
3968,1682.198
3969,1687.856
3970,1692.199
3971,1695.192
3972,1696.908
3973,1697.346
3974,1696.506
3975,1694.389
3976,1690.849
3977,1685.921
3978,1679.716
3979,1672.379
3980,1664.130
3981,1655.078
3982,1645.478
3983,1635.586
3984,1625.584
3985,1615.510
3986,1605.253
3987,1594.887
3988,1584.448
3989,1574.118
3990,1564.007
3991,1554.078
3992,1544.223
3993,1534.550
3994,1525.133
3995,1516.117
3996,1507.649
3997,1499.801
3998,1492.720
3999,1486.405
4000,1480.820
4001,1475.820
4002,1471.294
4003,1467.059
4004,1463.081
4005,1459.248
4006,1455.416
4007,1451.400
4008,1447.203
4009,1442.859
4010,1438.369
4011,1433.697
4012,1429.025
4013,1424.353
4014,1419.644
4015,1414.826
4016,1409.679
4017,1404.131
4018,1398.218
4019,1392.195
4020,1386.246
4021,1380.478
4022,1374.821
4023,1369.309
4024,1363.907
4025,1358.724
4026,1353.759
4027,1348.978
4028,1344.342
4029,1339.743
4030,1335.107
4031,1330.289
4032,1325.361
4033,1320.324
4034,1315.360
4035,1310.432
4036,1305.541
4037,1300.796
4038,1296.270
4039,1292.145
4040,1288.678
4041,1285.977
4042,1284.115
4043,1283.093
4044,1282.837
4045,1283.202
4046,1284.115
4047,1285.539
4048,1287.400
4049,1289.700
4050,1292.364
4051,1295.394
4052,1298.825
4053,1302.658
4054,1306.855
4055,1311.272
4056,1315.835
4057,1320.543
4058,1325.434
4059,1330.472
4060,1335.472
4061,1340.144
4062,1344.379
4063,1348.175
4064,1351.825
4065,1355.658
4066,1359.965
4067,1364.746
4068,1369.893
4069,1375.222
4070,1380.551
4071,1385.844
4072,1391.210
4073,1396.794
4074,1402.671
4075,1409.059
4076,1416.213
4077,1424.134
4078,1432.858
4079,1442.275
4080,1452.422
4081,1463.263
4082,1474.652
4083,1486.405
4084,1498.159
4085,1509.693
4086,1520.789
4087,1531.083
4088,1540.135
4089,1547.472
4090,1552.728
4091,1555.612
4092,1556.013
4093,1553.932
4094,1549.406
4095,1542.690
4096,1534.039
4097,1523.709
4098,1511.846
4099,1498.560
4100,1484.106
4101,1468.629
4102,1452.130
4103,1434.719
4104,1416.578
4105,1397.780
4106,1378.507
4107,1359.089
4108,1339.816
4109,1320.945
4110,1302.767
4111,1285.575
4112,1269.478
4113,1254.658
4114,1241.153
4115,1228.852
4116,1217.427
4117,1206.623
4118,1196.147
4119,1186.000
4120,1176.217
4121,1166.800
4122,1157.967
4123,1149.754
4124,1142.344
4125,1135.956
4126,1130.883
4127,1127.269
4128,1125.115
4129,1124.422
4130,1125.115
4131,1126.977
4132,1129.532
4133,1132.379
4134,1135.117
4135,1137.453
4136,1139.132
4137,1139.935
4138,1139.789
4139,1139.022
4140,1138.073
4141,1137.343
4142,1137.088
4143,1137.489
4144,1138.657
4145,1140.665
4146,1143.403
4147,1146.615
4148,1150.228
4149,1154.024
4150,1157.857
4151,1161.471
4152,1164.829
4153,1168.004
4154,1171.253
4155,1174.903
4156,1179.247
4157,1184.613
4158,1191.110
4159,1198.885
4160,1208.010
4161,1218.340
4162,1229.546
4163,1241.409
4164,1253.746
4165,1266.339
4166,1279.005
4167,1291.525
4168,1303.862
4169,1316.017
4170,1328.026
4171,1339.779
4172,1351.095
4173,1361.863
4174,1371.864
4175,1380.843
4176,1388.582
4177,1394.860
4178,1399.642
4179,1403.036
4180,1405.263
4181,1406.358
4182,1406.175
4183,1404.679
4184,1401.868
4185,1397.926
4186,1393.181
4187,1388.034
4188,1382.778
4189,1377.631
4190,1372.485
4191,1367.301
4192,1362.082
4193,1357.008
4194,1352.263
4195,1347.919
4196,1344.160
4197,1341.057
4198,1338.648
4199,1337.042
4200,1336.239
4201,1336.348
4202,1337.407
4203,1339.268
4204,1341.933
4205,1345.182
4206,1348.868
4207,1352.847
4208,1356.716
4209,1360.074
4210,1362.593
4211,1364.089
4212,1364.783
4213,1364.819
4214,1364.527
4215,1364.053
4216,1363.761
4217,1363.943
4218,1364.783
4219,1366.316
4220,1368.396
4221,1370.660
4222,1372.959
4223,1375.222
4224,1377.777
4225,1380.916
4226,1384.932
4227,1389.750
4228,1395.115
4229,1400.664
4230,1406.102
4231,1411.431
4232,1416.797
4233,1422.382
4234,1428.259
4235,1434.354
4236,1440.632
4237,1447.276
4238,1454.357
4239,1461.876
4240,1469.834
4241,1478.156
4242,1486.807
4243,1495.640
4244,1504.656
4245,1513.818
4246,1523.089
4247,1532.506
4248,1542.106
4249,1551.925
4250,1562.109
4251,1572.731
4252,1583.754
4253,1594.960
4254,1606.129
4255,1617.043
4256,1627.629
4257,1637.666
4258,1647.157
4259,1655.844
4260,1663.655
4261,1670.408
4262,1676.102
4263,1680.738
4264,1684.425
4265,1687.235
4266,1689.352
4267,1690.776
4268,1691.615
4269,1691.980
4270,1691.907
4271,1691.360
4272,1690.228
4273,1688.476
4274,1686.067
4275,1682.928
4276,1679.022
4277,1674.350
4278,1669.167
4279,1663.582
4280,1657.706
4281,1651.646
4282,1645.405
4283,1639.090
4284,1632.775
4285,1626.607
4286,1620.474
4287,1614.233
4288,1607.589
4289,1600.508
4290,1593.025
4291,1585.287
4292,1577.403
4293,1569.336
4294,1560.868
4295,1551.888
4296,1542.362
4297,1532.178
4298,1521.483
4299,1510.386
4300,1499.108
4301,1487.756
4302,1476.404
4303,1465.125
4304,1454.065
4305,1443.224
4306,1432.456
4307,1421.579
4308,1410.409
4309,1399.131
4310,1387.998
4311,1377.449
4312,1367.630
4313,1358.760
4314,1350.803
4315,1343.685
4316,1337.334
4317,1331.494
4318,1326.201
4319,1321.419
4320,1317.003
4321,1313.024
4322,1309.337
4323,1305.943
4324,1302.804
4325,1299.957
4326,1297.474
4327,1295.540
4328,1294.189
4329,1293.569
4330,1293.788
4331,1294.883
4332,1296.890
4333,1299.592
4334,1302.804
4335,1306.271
4336,1309.629
4337,1312.805
4338,1315.798
4339,1318.828
4340,1322.186
4341,1325.872
4342,1329.924
4343,1334.195
4344,1338.538
4345,1342.809
4346,1347.007
4347,1351.131
4348,1355.256
4349,1359.308
4350,1363.432
4351,1367.630
4352,1371.974
4353,1376.427
4354,1381.026
4355,1385.735
4356,1390.334
4357,1394.677
4358,1398.875
4359,1403.036
4360,1407.453
4361,1412.308
4362,1418.002
4363,1424.827
4364,1432.858
4365,1442.129
4366,1452.386
4367,1463.446
4368,1475.126
4369,1487.172
4370,1499.363
4371,1511.262
4372,1522.614
4373,1533.017
4374,1542.179
4375,1549.917
4376,1556.086
4377,1560.539
4378,1563.167
4379,1564.007
4380,1563.021
4381,1560.284
4382,1555.867
4383,1549.990
4384,1542.800
4385,1534.587
4386,1525.461
4387,1515.606
4388,1505.094
4389,1494.107
4390,1482.609
4391,1470.673
4392,1458.372
4393,1445.597
4394,1432.201
4395,1417.965
4396,1402.854
4397,1387.012
4398,1370.806
4399,1354.635
4400,1339.013
4401,1324.193
4402,1310.359
4403,1297.547
4404,1285.721
4405,1274.661
4406,1264.222
4407,1254.111
4408,1243.854
4409,1233.013
4410,1221.296
4411,1208.630
4412,1195.344
4413,1181.838
4414,1168.442
4415,1155.265
4416,1142.198
4417,1129.167
4418,1116.209
4419,1103.507
4420,1091.242
4421,1079.489
4422,1068.429
4423,1058.099
4424,1048.682
4425,1040.140
4426,1032.366
4427,1025.284
4428,1019.079
4429,1014.152
4430,1010.757
4431,1008.968
4432,1008.567
4433,1009.151
4434,1010.355
4435,1012.107
4436,1014.407
4437,1017.546
4438,1021.707
4439,1027.183
4440,1033.899
4441,1041.820
4442,1050.726
4443,1060.362
4444,1070.546
4445,1081.131
4446,1092.155
4447,1103.616
4448,1115.589
4449,1128.109
4450,1140.993
4451,1153.988
4452,1166.727
4453,1179.210
4454,1191.475
4455,1203.776
4456,1216.332
4457,1229.144
4458,1241.956
4459,1254.622
4460,1266.996
4461,1278.859
4462,1290.101
4463,1300.541
4464,1309.921
4465,1317.915
4466,1324.522
4467,1329.778
4468,1333.793
4469,1336.604
4470,1338.429
4471,1339.451
4472,1340.071
4473,1340.436
4474,1340.619
4475,1340.546
4476,1340.400
4477,1340.509
4478,1341.167
4479,1342.627
4480,1344.963
4481,1348.138
4482,1352.080
4483,1356.570
4484,1361.352
4485,1366.133
4486,1370.696
4487,1374.967
4488,1378.945
4489,1382.705
4490,1386.319
4491,1389.859
4492,1393.363
4493,1396.904
4494,1400.591
4495,1404.533
4496,1408.803
4497,1413.585
4498,1418.987
4499,1425.229
4500,1432.383
4501,1440.486
4502,1449.575
4503,1459.650
4504,1470.564
4505,1482.207
4506,1494.253
4507,1506.444
4508,1518.526
4509,1530.170
4510,1541.011
4511,1550.830
4512,1559.663
4513,1567.876
4514,1575.724
4515,1583.425
4516,1591.018
4517,1598.282
4518,1604.961
4519,1610.874
4520,1615.912
4521,1620.292
4522,1624.270
4523,1628.249
4524,1632.374
4525,1636.644
4526,1640.915
4527,1644.930
4528,1648.507
4529,1651.464
4530,1653.654
4531,1655.078
4532,1655.625
4533,1655.260
4534,1653.909
4535,1651.573
4536,1648.325
4537,1644.273
4538,1639.674
4539,1634.783
4540,1629.892
4541,1625.000
4542,1620.146
4543,1615.291
4544,1610.400
4545,1605.436
4546,1600.216
4547,1594.631
4548,1588.718
4549,1582.622
4550,1576.381
4551,1570.066
4552,1563.824
4553,1557.802
4554,1552.180
4555,1547.034
4556,1542.325
4557,1537.981
4558,1533.893
4559,1529.805
4560,1525.461
4561,1520.753
4562,1515.533
4563,1509.948
4564,1504.072
4565,1498.049
4566,1492.099
4567,1486.405
4568,1480.930
4569,1475.637
4570,1470.345
4571,1464.723
4572,1458.555
4573,1451.729
4574,1444.210
4575,1436.179
4576,1427.821
4577,1419.279
4578,1410.665
4579,1402.087
4580,1393.546
4581,1385.151
4582,1377.011
4583,1369.199
4584,1361.753
4585,1354.672
4586,1347.846
4587,1341.313
4588,1334.998
4589,1328.866
4590,1322.952
4591,1317.185
4592,1311.637
4593,1306.527
4594,1301.928
4595,1297.985
4596,1294.773
4597,1292.401
4598,1290.868
4599,1290.028
4600,1289.773
4601,1289.992
4602,1290.612
4603,1291.634
4604,1293.167
4605,1295.321
4606,1298.131
4607,1301.490
4608,1305.213
4609,1309.191
4610,1313.316
4611,1317.587
4612,1321.967
4613,1326.274
4614,1330.253
4615,1333.793
4616,1336.932
4617,1339.962
4618,1343.065
4619,1346.313
4620,1349.744
4621,1353.321
4622,1357.081
4623,1361.023
4624,1365.257
4625,1369.747
4626,1374.346
4627,1378.909
4628,1383.143
4629,1386.757
4630,1389.677
4631,1391.757
4632,1392.925
4633,1393.108
4634,1392.487
4635,1391.319
4636,1389.859
4637,1388.326
4638,1386.866
4639,1385.479
4640,1384.202
4641,1382.924
4642,1381.537
4643,1379.821
4644,1377.741
4645,1375.259
4646,1372.594
4647,1370.003
4648,1367.630
4649,1365.586
4650,1363.651
4651,1361.388
4652,1358.359
4653,1354.234
4654,1348.905
4655,1342.590
4656,1335.618
4657,1328.245
4658,1320.470
4659,1312.330
4660,1303.680
4661,1294.554
4662,1285.174
4663,1275.866
4664,1266.959
4665,1258.528
4666,1250.607
4667,1243.015
4668,1235.422
4669,1227.538
4670,1219.252
4671,1210.674
4672,1201.987
4673,1193.446
4674,1185.124
4675,1177.093
4676,1169.318
4677,1161.836
4678,1154.900
4679,1148.695
4680,1143.512
4681,1139.533
4682,1136.723
4683,1134.898
4684,1133.839
4685,1133.328
4686,1133.255
4687,1133.547
4688,1134.204
4689,1135.117
4690,1136.248
4691,1137.416
4692,1138.548
4693,1139.570
4694,1140.592
4695,1141.578
4696,1142.636
4697,1143.841
4698,1145.155
4699,1146.578
4700,1148.075
4701,1149.498
4702,1150.812
4703,1152.017
4704,1153.258
4705,1154.572
4706,1155.923
4707,1157.200
4708,1158.441
4709,1159.755
4710,1161.325
4711,1163.259
4712,1165.705
4713,1168.698
4714,1172.166
4715,1176.035
4716,1180.269
4717,1184.905
4718,1190.051
4719,1195.745
4720,1201.805
4721,1208.010
4722,1214.325
4723,1220.858
4724,1227.757
4725,1235.130
4726,1243.015
4727,1251.300
4728,1259.805
4729,1268.456
4730,1276.924
4731,1285.064
4732,1292.656
4733,1299.482
4734,1305.578
4735,1310.980
4736,1315.871
4737,1320.361
4738,1324.449
4739,1328.099
4740,1331.275
4741,1333.866
4742,1335.910
4743,1337.553
4744,1338.940
4745,1340.327
4746,1341.970
4747,1344.160
4748,1347.043
4749,1350.657
4750,1354.927
4751,1359.819
4752,1365.330
4753,1371.280
4754,1377.631
4755,1384.238
4756,1390.991
4757,1397.816
4758,1404.496
4759,1411.030
4760,1417.491
4761,1424.061
4762,1430.777
4763,1437.712
4764,1444.721
4765,1451.875
4766,1458.993
4767,1466.110
4768,1473.192
4769,1480.236
4770,1487.245
4771,1494.216
4772,1501.225
4773,1508.269
4774,1515.278
4775,1521.921
4776,1528.017
4777,1533.273
4778,1537.762
4779,1541.632
4780,1545.172
4781,1548.676
4782,1552.363
4783,1556.159
4784,1560.028
4785,1563.824
4786,1567.584
4787,1571.380
4788,1575.468
4789,1579.885
4790,1584.630
4791,1589.594
4792,1594.668
4793,1599.705
4794,1604.596
4795,1609.378
4796,1614.087
4797,1618.868
4798,1623.723
4799,1628.614
4800,1633.250
4801,1637.301
4802,1640.623
4803,1643.178
4804,1645.113
4805,1646.646
4806,1647.741
4807,1648.179
4808,1647.741
4809,1646.281
4810,1644.018
4811,1641.353
4812,1638.652
4813,1636.133
4814,1633.761
4815,1631.315
4816,1628.468
4817,1624.818
4818,1620.219
4819,1614.780
4820,1608.757
4821,1602.516
4822,1596.420
4823,1590.653
4824,1585.360
4825,1580.651
4826,1576.344
4827,1572.256
4828,1568.241
4829,1564.080
4830,1559.846
4831,1555.575
4832,1551.341
4833,1547.289
4834,1543.493
4835,1539.843
4836,1536.339
4837,1532.798
4838,1529.258
4839,1525.717
4840,1522.140
4841,1518.563
4842,1514.986
4843,1511.335
4844,1507.576
4845,1503.488
4846,1498.889
4847,1493.669
4848,1487.756
4849,1481.185
4850,1474.031
4851,1466.402
4852,1458.409
4853,1450.159
4854,1441.618
4855,1432.967
4856,1424.426
4857,1416.213
4858,1408.511
4859,1401.321
4860,1394.568
4861,1388.290
4862,1382.376
4863,1376.646
4864,1370.879
4865,1365.002
4866,1359.089
4867,1353.248
4868,1347.810
4869,1342.955
4870,1338.757
4871,1335.217
4872,1332.187
4873,1329.669
4874,1327.698
4875,1326.310
4876,1325.763
4877,1326.274
4878,1328.063
4879,1331.202
4880,1335.618
4881,1341.130
4882,1347.773
4883,1355.512
4884,1364.272
4885,1373.689
4886,1383.289
4887,1392.633
4888,1401.540
4889,1410.008
4890,1418.184
4891,1425.922
4892,1432.967
4893,1439.063
4894,1444.027
4895,1447.896
4896,1450.926
4897,1453.408
4898,1455.781
4899,1458.190
4900,1460.854
4901,1463.774
4902,1466.986
4903,1470.345
4904,1473.703
4905,1476.696
4906,1479.105
4907,1480.747
4908,1481.623
4909,1481.806
4910,1481.514
4911,1480.820
4912,1480.017
4913,1479.141
4914,1478.302
4915,1477.316
4916,1476.075
4917,1474.360
4918,1471.914
4919,1468.592
4920,1464.212
4921,1458.847
4922,1452.678
4923,1445.852
4924,1438.406
4925,1430.376
4926,1421.688
4927,1412.417
4928,1402.781
4929,1392.998
4930,1383.216
4931,1373.470
4932,1363.615
4933,1353.431
4934,1342.809
4935,1331.859
4936,1320.762
4937,1309.739
4938,1298.898
4939,1288.130
4940,1277.216
4941,1266.010
4942,1254.439
4943,1242.759
4944,1231.261
4945,1220.128
4946,1209.470
4947,1199.250
4948,1189.431
4949,1179.831
4950,1170.304
4951,1160.814
4952,1151.542
4953,1142.782
4954,1134.898
4955,1127.999
4956,1122.013
4957,1116.793
4958,1112.303
4959,1108.507
4960,1105.368
4961,1102.886
4962,1101.098
4963,1099.930
4964,1099.419
4965,1099.528
4966,1100.185
4967,1101.244
4968,1102.485
4969,1103.653
4970,1104.456
4971,1104.748
4972,1104.492
4973,1103.945
4974,1103.324
4975,1102.850
4976,1102.667
4977,1102.850
4978,1103.616
4979,1105.186
4980,1107.485
4981,1110.551
4982,1114.348
4983,1119.093
4984,1124.860
4985,1131.759
4986,1139.971
4987,1149.498
4988,1160.193
4989,1171.618
4990,1183.335
4991,1194.979
4992,1206.586
4993,1218.267
4994,1230.130
4995,1242.066
4996,1253.928
4997,1265.645
4998,1277.107
4999,1288.094
5000,1298.314
5001,1307.585
5002,1315.652
5003,1322.514
5004,1328.391
5005,1333.428
5006,1337.662
5007,1341.167
5008,1344.087
5009,1346.532
5010,1348.759
5011,1350.803
5012,1352.701
5013,1354.562
5014,1356.424
5015,1358.322
5016,1360.439
5017,1362.812
5018,1365.549
5019,1368.615
5020,1372.010
5021,1375.697
5022,1379.493
5023,1383.362
5024,1387.158
5025,1390.881
5026,1394.495
5027,1398.036
5028,1401.394
5029,1404.423
5030,1407.051
5031,1409.278
5032,1411.212
5033,1413.038
5034,1414.863
5035,1416.870
5036,1419.170
5037,1421.980
5038,1425.448
5039,1429.573
5040,1434.281
5041,1439.501
5042,1445.232
5043,1451.546
5044,1458.591
5045,1466.256
5046,1474.506
5047,1483.193
5048,1492.245
5049,1501.553
5050,1510.934
5051,1520.169
5052,1529.112
5053,1537.689
5054,1545.683
5055,1553.056
5056,1559.955
5057,1566.671
5058,1573.461
5059,1580.359
5060,1587.258
5061,1594.266
5062,1601.457
5063,1608.976
5064,1616.751
5065,1624.708
5066,1632.812
5067,1641.061
5068,1649.347
5069,1657.706
5070,1666.064
5071,1674.277
5072,1682.234
5073,1689.827
5074,1697.017
5075,1703.880
5076,1710.413
5077,1716.473
5078,1721.948
5079,1726.584
5080,1730.124
5081,1732.424
5082,1733.263
5083,1732.497
5084,1730.161
5085,1726.292
5086,1721.218
5087,1715.159
5088,1708.369
5089,1700.923
5090,1693.002
5091,1684.607
5092,1675.810
5093,1666.612
5094,1656.903
5095,1646.719
5096,1636.024
5097,1624.964
5098,1613.758
5099,1602.516
5100,1591.346
5101,1580.250
5102,1569.336
5103,1558.714
5104,1548.384
5105,1538.237
5106,1528.163
5107,1518.088
5108,1508.123
5109,1498.414
5110,1488.997
5111,1480.090
5112,1471.695
5113,1463.701
5114,1455.963
5115,1448.444
5116,1441.180
5117,1434.318
5118,1427.930
5119,1422.053
5120,1416.724
5121,1411.833
5122,1407.270
5123,1402.963
5124,1398.948
5125,1395.298
5126,1392.049
5127,1389.166
5128,1386.574
5129,1384.165
5130,1381.938
5131,1379.821
5132,1377.850
5133,1375.916
5134,1373.981
5135,1372.010
5136,1370.039
5137,1368.104
5138,1366.279
5139,1364.673
5140,1363.505
5141,1362.848
5142,1362.848
5143,1363.396
5144,1364.345
5145,1365.513
5146,1366.754
5147,1368.177
5148,1370.003
5149,1372.375
5150,1375.441
5151,1379.201
5152,1383.508
5153,1388.290
5154,1393.290
5155,1398.328
5156,1403.328
5157,1408.329
5158,1413.366
5159,1418.549
5160,1423.842
5161,1429.244
5162,1434.719
5163,1440.194
5164,1445.779
5165,1451.327
5166,1456.876
5167,1462.278
5168,1467.570
5169,1472.644
5170,1477.572
5171,1482.426
5172,1487.172
5173,1491.771
5174,1496.297
5175,1500.969
5176,1505.787
5177,1510.751
5178,1515.570
5179,1519.950
5180,1523.746
5181,1526.849
5182,1529.367
5183,1531.448
5184,1533.017
5185,1534.112
5186,1534.587
5187,1534.222
5188,1532.944
5189,1530.535
5190,1526.885
5191,1521.994
5192,1515.898
5193,1508.671
5194,1500.495
5195,1491.552
5196,1482.171
5197,1472.389
5198,1462.168
5199,1451.291
5200,1439.902
5201,1428.186
5202,1416.469
5203,1404.971
5204,1393.655
5205,1382.376
5206,1370.952
5207,1359.308
5208,1347.481
5209,1335.618
5210,1323.646
5211,1311.673
5212,1299.884
5213,1288.532
5214,1277.654
5215,1267.069
5216,1256.557
5217,1245.935
5218,1235.422
5219,1225.202
5220,1215.566
5221,1206.367
5222,1197.534
5223,1189.066
5224,1181.145
5225,1173.918
5226,1167.603
5227,1162.128
5228,1157.419
5229,1153.221
5230,1149.316
5231,1145.447
5232,1141.468
5233,1137.197
5234,1132.379
5235,1126.794
5236,1120.480
5237,1113.326
5238,1105.405
5239,1096.863
5240,1087.957
5241,1078.941
5242,1069.999
5243,1061.238
5244,1052.843
5245,1045.032
5246,1037.841
5247,1031.453
5248,1026.087
5249,1021.963
5250,1019.189
5251,1017.729
5252,1017.437
5253,1018.203
5254,1020.028
5255,1022.912
5256,1026.817
5257,1031.672
5258,1037.403
5259,1043.827
5260,1050.908
5261,1058.683
5262,1067.115
5263,1076.277
5264,1086.351
5265,1097.520
5266,1109.894
5267,1123.400
5268,1137.489
5269,1151.652
5270,1165.376
5271,1178.444
5272,1190.854
5273,1202.681
5274,1214.069
5275,1225.202
5276,1236.225
5277,1247.176
5278,1257.944
5279,1268.273
5280,1277.837
5281,1286.342
5282,1293.715
5283,1300.176
5284,1306.162
5285,1312.111
5286,1318.353
5287,1324.814
5288,1331.092
5289,1336.567
5290,1340.728
5291,1343.320
5292,1344.415
5293,1344.342
5294,1343.576
5295,1342.736
5296,1342.152
5297,1342.152
5298,1342.773
5299,1344.050
5300,1345.948
5301,1348.467
5302,1351.569
5303,1355.293
5304,1359.709
5305,1364.856
5306,1370.696
5307,1377.120
5308,1384.019
5309,1391.100
5310,1398.218
5311,1405.299
5312,1412.161
5313,1418.841
5314,1425.375
5315,1431.909
5316,1438.552
5317,1445.378
5318,1452.386
5319,1459.577
5320,1467.132
5321,1475.236
5322,1483.850
5323,1492.793
5324,1501.809
5325,1510.569
5326,1518.855
5327,1526.520
5328,1533.528
5329,1540.135
5330,1546.523
5331,1553.020
5332,1559.809
5333,1566.927
5334,1574.556
5335,1582.805
5336,1591.675
5337,1601.202
5338,1611.385
5339,1622.190
5340,1633.505
5341,1645.186
5342,1657.231
5343,1669.496
5344,1681.942
5345,1694.462
5346,1706.982
5347,1719.283
5348,1731.219
5349,1742.608
5350,1753.302
5351,1763.340
5352,1772.758
5353,1781.591
5354,1789.840
5355,1797.323
5356,1803.857
5357,1809.149
5358,1813.165
5359,1815.902
5360,1817.362
5361,1817.581
5362,1816.559
5363,1814.442
5364,1811.376
5365,1807.507
5366,1802.835
5367,1797.542
5368,1791.665
5369,1785.132
5370,1777.868
5371,1769.838
5372,1761.077
5373,1751.733
5374,1741.805
5375,1731.219
5376,1719.831
5377,1707.603
5378,1694.353
5379,1680.117
5380,1665.115
5381,1649.602
5382,1633.797
5383,1617.773
5384,1601.603
5385,1585.324
5386,1568.861
5387,1552.144
5388,1534.915
5389,1517.176
5390,1498.925
5391,1480.236
5392,1461.219
5393,1442.093
5394,1423.039
5395,1404.314
5396,1386.173
5397,1368.798
5398,1352.299
5399,1336.713
5400,1322.149
5401,1308.607
5402,1296.306
5403,1285.210
5404,1275.318
5405,1266.375
5406,1258.090
5407,1250.205
5408,1242.796
5409,1236.006
5410,1229.911
5411,1224.691
5412,1220.493
5413,1217.172
5414,1214.471
5415,1212.134
5416,1210.163
5417,1208.630
5418,1207.791
5419,1207.718
5420,1208.448
5421,1210.127
5422,1212.938
5423,1217.026
5424,1222.355
5425,1228.743
5426,1235.933
5427,1243.672
5428,1251.848
5429,1260.462
5430,1269.478
5431,1279.005
5432,1289.298
5433,1300.650
5434,1313.535
5435,1328.391
5436,1345.474
5437,1364.746
5438,1385.954
5439,1408.621
5440,1432.310
5441,1456.730
5442,1481.806
5443,1507.466
5444,1533.601
5445,1559.809
5446,1585.616
5447,1610.546
5448,1634.272
5449,1656.574
5450,1677.197
5451,1695.740
5452,1711.837
5453,1725.123
5454,1735.234
5455,1741.987
5456,1745.309
5457,1745.309
5458,1742.170
5459,1736.147
5460,1727.460
5461,1716.509
5462,1703.770
5463,1689.754
5464,1674.788
5465,1659.239
5466,1643.288
5467,1627.045
5468,1610.546
5469,1593.901
5470,1577.111
5471,1560.211
5472,1543.274
5473,1526.447
5474,1509.766
5475,1493.121
5476,1476.367
5477,1459.248
5478,1441.618
5479,1423.623
5480,1405.409
5481,1387.304
5482,1369.418
5483,1351.752
5484,1334.122
5485,1316.492
5486,1298.643
5487,1280.392
5488,1261.667
5489,1242.321
5490,1222.464
5491,1202.352
5492,1182.130
5493,1161.945
5494,1141.760
5495,1121.465
5496,1100.842
5497,1079.781
5498,1058.464
5499,1037.220
5500,1016.488
5501,996.667
5502,978.161
5503,961.334
5504,946.624
5505,934.141
5506,923.811
5507,915.416
5508,908.626
5509,903.188
5510,898.990
5511,895.997
5512,894.208
5513,893.661
5514,894.500
5515,896.836
5516,900.815
5517,906.400
5518,913.591
5519,922.314
5520,932.243
5521,943.047
5522,954.326
5523,965.787
5524,977.322
5525,988.893
5526,1000.646
5527,1012.801
5528,1025.540
5529,1038.863
5530,1052.697
5531,1066.823
5532,1080.839
5533,1094.454
5534,1107.266
5535,1119.056
5536,1129.861
5537,1139.898
5538,1149.535
5539,1159.062
5540,1168.625
5541,1178.261
5542,1187.861
5543,1197.388
5544,1206.842
5545,1216.040
5546,1225.019
5547,1233.853
5548,1242.540
5549,1251.081
5550,1259.367
5551,1267.251
5552,1274.734
5553,1281.779
5554,1288.459
5555,1294.883
5556,1301.161
5557,1307.439
5558,1313.754
5559,1320.069
5560,1326.347
5561,1332.479
5562,1338.246
5563,1343.466
5564,1348.175
5565,1352.482
5566,1356.753
5567,1361.206
5568,1366.060
5569,1371.353
5570,1377.084
5571,1383.106
5572,1389.275
5573,1395.407
5574,1401.357
5575,1406.942
5576,1412.271
5577,1417.527
5578,1422.966
5579,1428.697
5580,1434.719
5581,1440.998
5582,1447.604
5583,1454.503
5584,1461.657
5585,1469.140
5586,1476.915
5587,1484.982
5588,1493.340
5589,1501.991
5590,1511.043
5591,1520.570
5592,1530.645
5593,1541.303
5594,1552.728
5595,1565.029
5596,1578.133
5597,1591.748
5598,1605.509
5599,1619.160
5600,1632.556
5601,1645.660
5602,1658.472
5603,1670.919
5604,1683.037
5605,1694.791
5606,1706.179
5607,1717.093
5608,1727.350
5609,1736.950
5610,1745.747
5611,1753.923
5612,1761.442
5613,1768.268
5614,1774.437
5615,1779.985
5616,1784.986
5617,1789.694
5618,1794.330
5619,1799.148
5620,1804.295
5621,1809.879
5622,1816.048
5623,1822.874
5624,1830.320
5625,1838.241
5626,1846.308
5627,1854.228
5628,1861.529
5629,1867.843
5630,1872.917
5631,1876.713
5632,1879.195
5633,1880.290
5634,1879.852
5635,1877.626
5636,1873.501
5637,1867.515
5638,1859.923
5639,1851.016
5640,1840.979
5641,1829.955
5642,1817.983
5643,1805.061
5644,1791.045
5645,1775.824
5646,1759.325
5647,1741.549
5648,1722.641
5649,1702.712
5650,1681.833
5651,1660.078
5652,1637.411
5653,1614.087
5654,1590.397
5655,1566.781
5656,1543.530
5657,1520.789
5658,1498.524
5659,1476.878
5660,1455.890
5661,1435.668
5662,1416.213
5663,1397.488
5664,1379.602
5665,1362.520
5666,1346.386
5667,1331.238
5668,1317.258
5669,1304.483
5670,1292.839
5671,1282.290
5672,1272.654
5673,1263.674
5674,1255.206
5675,1247.103
5676,1239.255
5677,1231.699
5678,1224.508
5679,1218.048
5680,1212.463
5681,1208.010
5682,1204.688
5683,1202.608
5684,1201.805
5685,1202.462
5686,1204.761
5687,1208.557
5688,1213.631
5689,1219.800
5690,1227.100
5691,1235.422
5692,1244.657
5693,1254.585
5694,1264.988
5695,1275.829
5696,1287.145
5697,1299.044
5698,1311.418
5699,1324.193
5700,1337.188
5701,1350.182
5702,1362.994
5703,1375.441
5704,1387.450
5705,1399.021
5706,1410.081
5707,1420.520
5708,1430.157
5709,1438.807
5710,1446.400
5711,1452.860
5712,1458.263
5713,1462.679
5714,1466.110
5715,1468.629
5716,1470.345
5717,1471.403
5718,1472.097
5719,1472.571
5720,1472.827
5721,1472.790
5722,1472.535
5723,1472.024
5724,1471.294
5725,1470.162
5726,1468.410
5727,1465.891
5728,1462.643
5729,1458.774
5730,1454.466
5731,1450.013
5732,1445.816
5733,1442.056
5734,1438.698
5735,1435.668
5736,1432.748
5737,1429.901
5738,1426.872
5739,1423.404
5740,1419.352
5741,1414.571
5742,1408.986
5743,1402.562
5744,1395.480
5745,1387.998
5746,1380.478
5747,1373.288
5748,1366.608
5749,1360.476
5750,1354.781
5751,1349.416
5752,1344.306
5753,1339.378
5754,1334.633
5755,1330.034
5756,1325.580
5757,1321.200
5758,1316.857
5759,1312.659
5760,1308.607
5761,1304.702
5762,1300.979
5763,1297.657
5764,1294.846
5765,1292.766
5766,1291.488
5767,1291.050
5768,1291.160
5769,1291.707
5770,1292.583
5771,1293.751
5772,1295.175
5773,1296.708
5774,1298.168
5775,1299.446
5776,1300.431
5777,1301.198
5778,1301.818
5779,1302.512
5780,1303.424
5781,1304.519
5782,1305.651
5783,1306.600
5784,1307.293
5785,1307.549
5786,1307.403
5787,1306.673
5788,1305.286
5789,1303.169
5790,1300.212
5791,1296.197
5792,1290.904
5793,1284.152
5794,1275.939
5795,1266.375
5796,1255.535
5797,1243.526
5798,1230.641
5799,1217.391
5800,1204.287
5801,1191.913
5802,1180.488
5803,1170.268
5804,1161.434
5805,1154.389
5806,1149.316
5807,1146.286
5808,1145.228
5809,1145.994
5810,1148.403
5811,1152.345
5812,1157.638
5813,1164.062
5814,1171.290
5815,1178.955
5816,1186.438
5817,1193.263
5818,1198.958
5819,1203.374
5820,1206.513
5821,1208.557
5822,1209.908
5823,1210.820
5824,1211.295
5825,1211.258
5826,1210.346
5827,1208.594
5828,1206.331
5829,1204.104
5830,1202.498
5831,1202.060
5832,1203.009
5833,1205.418
5834,1209.178
5835,1213.887
5836,1219.216
5837,1225.019
5838,1231.371
5839,1238.306
5840,1245.935
5841,1254.220
5842,1263.090
5843,1272.435
5844,1282.253
5845,1292.364
5846,1302.694
5847,1313.024
5848,1323.317
5849,1333.465
5850,1343.539
5851,1353.759
5852,1364.454
5853,1375.843
5854,1388.034
5855,1400.919
5856,1414.133
5857,1427.273
5858,1439.939
5859,1451.984
5860,1463.446
5861,1474.615
5862,1485.493
5863,1496.005
5864,1506.152
5865,1515.971
5866,1525.498
5867,1534.696
5868,1543.676
5869,1552.436
5870,1561.196
5871,1569.957
5872,1578.826
5873,1587.769
5874,1596.675
5875,1605.436
5876,1613.758
5877,1621.314
5878,1627.738
5879,1632.629
5880,1635.622
5881,1636.462
5882,1635.038
5883,1631.352
5884,1625.548
5885,1617.919
5886,1608.721
5887,1598.099
5888,1586.273
5889,1573.570
5890,1560.393
5891,1547.034
5892,1533.820
5893,1521.008
5894,1508.744
5895,1497.136
5896,1486.223
5897,1476.039
5898,1466.694
5899,1458.226
5900,1450.670
5901,1444.100
5902,1438.442
5903,1433.770
5904,1430.011
5905,1427.237
5906,1425.448
5907,1424.499
5908,1424.243
5909,1424.608
5910,1425.557
5911,1427.127
5912,1429.317
5913,1432.055
5914,1435.157
5915,1438.479
5916,1441.947
5917,1445.341
5918,1448.444
5919,1451.145
5920,1453.444
5921,1455.452
5922,1457.387
5923,1459.431
5924,1461.548
5925,1463.592
5926,1465.453
5927,1466.986
5928,1468.045
5929,1468.592
5930,1468.519
5931,1467.680
5932,1465.891
5933,1463.044
5934,1458.920
5935,1453.408
5936,1446.655
5937,1438.917
5938,1430.704
5939,1422.309
5940,1413.987
5941,1405.883
5942,1397.962
5943,1390.297
5944,1383.033
5945,1376.208
5946,1369.820
5947,1363.688
5948,1357.884
5949,1352.518
5950,1347.883
5951,1344.306
5952,1341.970
5953,1340.692
5954,1340.217
5955,1340.108
5956,1340.254
5957,1340.582
5958,1341.276
5959,1342.408
5960,1344.050
5961,1346.094
5962,1348.357
5963,1350.365
5964,1351.715
5965,1352.299
5966,1352.226
5967,1351.898
5968,1351.788
5969,1352.190
5970,1353.321
5971,1355.256
5972,1357.921
5973,1361.023
5974,1364.235
5975,1367.374
5976,1370.514
5977,1373.726
5978,1377.157
5979,1380.734
5980,1384.275
5981,1387.414
5982,1389.859
5983,1391.538
5984,1392.670
5985,1393.509
5986,1394.312
5987,1395.225
5988,1396.466
5989,1398.364
5990,1401.175
5991,1405.080
5992,1410.008
5993,1415.702
5994,1421.834
5995,1428.003
5996,1433.880
5997,1439.099
5998,1443.480
5999,1446.984
6000,1449.539
6001,1451.145
6002,1451.692
6003,1451.108
6004,1449.320
6005,1446.363
6006,1442.275
6007,1437.165
6008,1431.142
6009,1424.389
6010,1416.943
6011,1408.949
6012,1400.408
6013,1391.210
6014,1381.318
6015,1370.842
6016,1359.928
6017,1348.613
6018,1336.859
6019,1324.485
6020,1311.491
6021,1297.949
6022,1283.969
6023,1269.880
6024,1255.936
6025,1242.504
6026,1229.765
6027,1217.792
6028,1206.550
6029,1196.037
6030,1186.219
6031,1177.239
6032,1168.990
6033,1161.398
6034,1154.426
6035,1148.111
6036,1142.636
6037,1138.146
6038,1134.533
6039,1131.613
6040,1129.131
6041,1126.904
6042,1124.787
6043,1122.670
6044,1120.699
6045,1119.202
6046,1118.472
6047,1118.728
6048,1120.115
6049,1122.706
6050,1126.429
6051,1131.248
6052,1136.796
6053,1142.636
6054,1148.367
6055,1153.623
6056,1158.295
6057,1162.383
6058,1165.960
6059,1169.172
6060,1172.202
6061,1175.414
6062,1179.028
6063,1183.225
6064,1188.044
6065,1193.482
6066,1199.432
6067,1205.637
6068,1212.025
6069,1218.486
6070,1224.983
6071,1231.225
6072,1237.065
6073,1242.394
6074,1247.103
6075,1251.227
6076,1254.768
6077,1257.834
6078,1260.572
6079,1263.236
6080,1265.937
6081,1268.748
6082,1271.595
6083,1274.552
6084,1277.727
6085,1281.304
6086,1285.210
6087,1289.371
6088,1293.751
6089,1298.278
6090,1302.877
6091,1307.585
6092,1312.294
6093,1316.820
6094,1321.018
6095,1324.887
6096,1328.829
6097,1333.173
6098,1338.173
6099,1343.977
6100,1350.511
6101,1357.592
6102,1364.783
6103,1371.682
6104,1377.814
6105,1382.778
6106,1386.538
6107,1389.348
6108,1391.575
6109,1393.655
6110,1395.918
6111,1398.474
6112,1401.321
6113,1404.387
6114,1407.708
6115,1411.358
6116,1415.301
6117,1419.352
6118,1423.331
6119,1427.273
6120,1431.288
6121,1435.486
6122,1439.975
6123,1444.721
6124,1449.685
6125,1454.722
6126,1459.832
6127,1464.869
6128,1469.870
6129,1474.761
6130,1479.470
6131,1483.923
6132,1488.084
6133,1491.990
6134,1495.603
6135,1499.035
6136,1502.283
6137,1505.532
6138,1509.072
6139,1513.124
6140,1517.869
6141,1523.308
6142,1529.331
6143,1535.718
6144,1542.325
6145,1549.005
6146,1555.758
6147,1562.583
6148,1569.555
6149,1576.636
6150,1583.681
6151,1590.543
6152,1596.858
6153,1602.479
6154,1607.480
6155,1611.933
6156,1615.839
6157,1619.160
6158,1621.934
6159,1624.343
6160,1626.607
6161,1628.870
6162,1631.169
6163,1633.505
6164,1635.841
6165,1638.068
6166,1640.075
6167,1641.718
6168,1642.777
6169,1642.996
6170,1642.083
6171,1639.747
6172,1636.060
6173,1631.133
6174,1625.402
6175,1619.233
6176,1612.846
6177,1606.312
6178,1599.486
6179,1592.441
6180,1585.324
6181,1578.096
6182,1570.906
6183,1563.861
6184,1557.035
6185,1550.611
6186,1544.588
6187,1538.857
6188,1533.346
6189,1528.017
6190,1522.760
6191,1517.468
6192,1511.956
6193,1506.043
6194,1499.655
6195,1492.647
6196,1484.909
6197,1476.477
6198,1467.497
6199,1458.263
6200,1448.991
6201,1439.829
6202,1430.522
6203,1420.922
6204,1410.847
6205,1400.518
6206,1390.297
6207,1380.661
6208,1371.791
6209,1363.870
6210,1356.826
6211,1350.657
6212,1345.328
6213,1340.728
6214,1336.750
6215,1333.355
6216,1330.837
6217,1329.340
6218,1328.975
6219,1329.778
6220,1331.640
6221,1334.450
6222,1338.246
6223,1342.919
6224,1348.467
6225,1354.708
6226,1361.388
6227,1368.214
6228,1375.003
6229,1381.500
6230,1387.633
6231,1393.363
6232,1398.802
6233,1404.131
6234,1409.570
6235,1415.228
6236,1421.031
6237,1426.835
6238,1432.493
6239,1437.931
6240,1443.261
6241,1448.699
6242,1454.211
6243,1459.796
6244,1465.088
6245,1469.761
6246,1473.374
6247,1475.783
6248,1477.097
6249,1477.608
6250,1477.608
6251,1477.207
6252,1476.331
6253,1474.944
6254,1473.192
6255,1471.184
6256,1468.994
6257,1466.694
6258,1464.468
6259,1462.497
6260,1460.708
6261,1459.029
6262,1457.350
6263,1455.562
6264,1453.700
6265,1451.838
6266,1450.013
6267,1448.298
6268,1446.509
6269,1444.575
6270,1442.348
6271,1439.866
6272,1437.347
6273,1434.829
6274,1432.347
6275,1429.865
6276,1427.200
6277,1423.988
6278,1420.119
6279,1415.556
6280,1410.373
6281,1404.642
6282,1398.364
6283,1391.429
6284,1383.837
6285,1375.551
6286,1366.754
6287,1357.519
6288,1347.992
6289,1338.210
6290,1328.209
6291,1317.915
6292,1307.293
6293,1296.343
6294,1285.137
6295,1273.858
6296,1262.762
6297,1251.957
6298,1241.336
6299,1230.604
6300,1219.398
6301,1207.608
6302,1195.490
6303,1183.225
6304,1171.034
6305,1158.916
6306,1146.870
6307,1134.971
6308,1123.181
6309,1111.573
6310,1100.112
6311,1089.125
6312,1078.832
6313,1069.378
6314,1060.727
6315,1052.916
6316,1046.090
6317,1040.688
6318,1037.038
6319,1035.359
6320,1035.651
6321,1037.695
6322,1041.089
6323,1045.433
6324,1050.434
6325,1055.909
6326,1061.786
6327,1067.918
6328,1074.306
6329,1080.839
6330,1087.629
6331,1094.673
6332,1101.864
6333,1109.164
6334,1116.246
6335,1122.998
6336,1129.204
6337,1134.788
6338,1139.679
6339,1143.914
6340,1147.929
6341,1152.090
6342,1156.908
6343,1162.529
6344,1168.953
6345,1176.181
6346,1183.919
6347,1192.022
6348,1200.126
6349,1207.864
6350,1215.055
6351,1221.771
6352,1228.122
6353,1234.291
6354,1240.167
6355,1245.862
6356,1251.337
6357,1256.703
6358,1261.959
6359,1267.105
6360,1272.143
6361,1277.034
6362,1281.779
6363,1286.451
6364,1291.123
6365,1295.832
6366,1300.431
6367,1304.921
6368,1309.228
6369,1313.353
6370,1317.258
6371,1320.945
6372,1324.376
6373,1327.661
6374,1330.800
6375,1333.830
6376,1336.896
6377,1340.254
6378,1343.977
6379,1348.175
6380,1352.737
6381,1357.702
6382,1362.885
6383,1368.177
6384,1373.470
6385,1378.799
6386,1384.348
6387,1390.334
6388,1396.904
6389,1404.095
6390,1411.577
6391,1418.914
6392,1425.703
6393,1431.836
6394,1437.420
6395,1442.786
6396,1448.261
6397,1454.065
6398,1460.234
6399,1466.731
6400,1473.593
6401,1480.820
6402,1488.376
6403,1496.187
6404,1504.218
6405,1512.321
6406,1520.424
6407,1528.382
6408,1536.120
6409,1543.676
6410,1550.903
6411,1557.619
6412,1563.532
6413,1568.606
6414,1572.731
6415,1575.760
6416,1577.695
6417,1578.644
6418,1578.826
6419,1578.534
6420,1577.731
6421,1576.381
6422,1574.337
6423,1571.636
6424,1568.387
6425,1564.700
6426,1560.649
6427,1556.159
6428,1551.304
6429,1546.085
6430,1540.646
6431,1535.025
6432,1529.367
6433,1523.782
6434,1518.417
6435,1513.416
6436,1508.817
6437,1504.656
6438,1500.933
6439,1497.720
6440,1495.019
6441,1493.085
6442,1492.172
6443,1492.501
6444,1494.253
6445,1497.501
6446,1502.210
6447,1508.233
6448,1515.241
6449,1522.870
6450,1530.864
6451,1538.930
6452,1546.705
6453,1554.078
6454,1561.050
6455,1567.803
6456,1574.629
6457,1581.746
6458,1589.120
6459,1596.785
6460,1604.523
6461,1612.225
6462,1619.744
6463,1626.935
6464,1633.797
6465,1640.440
6466,1646.792
6467,1652.778
6468,1658.180
6469,1662.889
6470,1666.794
6471,1669.934
6472,1672.233
6473,1673.584
6474,1673.839
6475,1672.854
6476,1670.664
6477,1667.232
6478,1662.706
6479,1657.158
6480,1650.661
6481,1643.215
6482,1634.710
6483,1624.964
6484,1613.904
6485,1601.530
6486,1587.915
6487,1573.132
6488,1557.254
6489,1540.390
6490,1522.651
6491,1504.291
6492,1485.566
6493,1466.767
6494,1448.334
6495,1430.704
6496,1414.169
6497,1398.985
6498,1385.224
6499,1373.178
6500,1362.958
6501,1354.562
6502,1347.846
6503,1342.663
6504,1338.794
6505,1336.166
6506,1334.706
6507,1334.377
6508,1335.144
6509,1336.969
6510,1339.706
6511,1343.174
6512,1347.335
6513,1352.044
6514,1357.154
6515,1362.629
6516,1368.323
6517,1374.127
6518,1379.894
6519,1385.479
6520,1390.735
6521,1395.517
6522,1399.897
6523,1403.949
6524,1407.964
6525,1412.161
6526,1416.797
6527,1421.834
6528,1427.127
6529,1432.493
6530,1437.603
6531,1442.531
6532,1447.312
6533,1452.167
6534,1457.131
6535,1462.314
6536,1467.753
6537,1473.447
6538,1479.397
6539,1485.529
6540,1491.771
6541,1497.903
6542,1503.816
6543,1509.474
6544,1514.986
6545,1520.497
6546,1526.155
6547,1532.068
6548,1538.054
6549,1543.858
6550,1549.187
6551,1553.859
6552,1557.729
6553,1560.722
6554,1562.948
6555,1564.372
6556,1565.102
6557,1565.138
6558,1564.335
6559,1562.474
6560,1559.335
6561,1554.699
6562,1548.384
6563,1540.390
6564,1530.864
6565,1520.023
6566,1508.123
6567,1495.311
6568,1481.623
6569,1466.986
6570,1451.510
6571,1435.157
6572,1418.038
6573,1400.226
6574,1381.865
6575,1363.067
6576,1343.868
6577,1324.047
6578,1303.570
6579,1282.472
6580,1260.900
6581,1239.291
6582,1218.084
6583,1197.570
6584,1178.006
6585,1159.536
6586,1142.344
6587,1126.393
6588,1111.683
6589,1098.104
6590,1085.621
6591,1074.196
6592,1063.903
6593,1054.814
6594,1046.966
6595,1040.542
6596,1035.760
6597,1032.585
6598,1030.869
6599,1030.541
6600,1031.380
6601,1033.242
6602,1035.943
6603,1039.264
6604,1042.878
6605,1046.638
6606,1050.543
6607,1054.595
6608,1058.866
6609,1063.319
6610,1067.918
6611,1072.809
6612,1077.992
6613,1083.540
6614,1089.673
6615,1096.681
6616,1104.711
6617,1113.654
6618,1123.363
6619,1133.730
6620,1144.680
6621,1156.288
6622,1168.625
6623,1181.619
6624,1195.125
6625,1209.105
6626,1223.559
6627,1238.379
6628,1253.563
6629,1269.040
6630,1284.663
6631,1300.249
6632,1315.470
6633,1329.924
6634,1343.211
6635,1355.256
6636,1366.206
6637,1376.098
6638,1385.005
6639,1392.743
6640,1399.313
6641,1404.642
6642,1408.730
6643,1411.614
6644,1413.366
6645,1414.023
6646,1413.695
6647,1412.454
6648,1410.263
6649,1407.234
6650,1403.474
6651,1399.350
6652,1395.188
6653,1391.246
6654,1387.560
6655,1384.311
6656,1381.683
6657,1379.894
6658,1379.018
6659,1379.018
6660,1379.748
6661,1381.208
6662,1383.325
6663,1386.027
6664,1389.202
6665,1392.925
6666,1397.159
6667,1401.795
6668,1406.577
6669,1411.139
6670,1415.301
6671,1419.060
6672,1422.528
6673,1425.813
6674,1429.025
6675,1432.164
6676,1435.303
6677,1438.515
6678,1442.093
6679,1446.035
6680,1450.415
6681,1455.050
6682,1459.723
6683,1464.139
6684,1468.081
6685,1471.294
6686,1473.703
6687,1475.309
6688,1476.221
6689,1476.732
6690,1477.170
6691,1477.900
6692,1479.178
6693,1481.185
6694,1483.850
6695,1487.245
6696,1491.260
6697,1495.895
6698,1500.969
6699,1506.262
6700,1511.591
6701,1516.811
6702,1521.811
6703,1526.557
6704,1531.265
6705,1536.193
6706,1541.778
6707,1548.202
6708,1555.648
6709,1564.226
6710,1573.899
6711,1584.630
6712,1596.383
6713,1609.268
6714,1623.248
6715,1638.214
6716,1653.982
6717,1670.627
6718,1688.184
6719,1706.836
6720,1726.474
6721,1746.878
6722,1767.757
6723,1788.855
6724,1809.806
6725,1830.211
6726,1849.593
6727,1867.515
6728,1883.503
6729,1897.081
6730,1908.031
6731,1916.062
6732,1920.989
6733,1922.559
6734,1920.515
6735,1914.711
6736,1905.367
6737,1892.737
6738,1877.151
6739,1858.864
6740,1837.985
6741,1814.515
6742,1788.563
6743,1760.420
6744,1730.380
6745,1698.770
6746,1665.955
6747,1632.155
6748,1597.478
6749,1562.109
6750,1526.337
6751,1490.420
6752,1454.612
6753,1419.060
6754,1383.727
6755,1348.686
6756,1314.083
6757,1280.100
6758,1246.920
6759,1214.690
6760,1183.371
6761,1152.710
6762,1122.341
6763,1092.082
6764,1061.895
6765,1032.074
6766,1003.055
6767,975.314
6768,949.362
6769,925.636
6770,904.757
6771,886.908
6772,872.089
6773,860.080
6774,850.662
6775,843.837
6776,839.456
6777,837.412
6778,837.485
6779,839.675
6780,844.129
6781,850.954
6782,860.080
6783,871.140
6784,883.805
6785,897.858
6786,913.262
6787,930.016
6788,948.084
6789,967.247
6790,987.396
6791,1008.384
6792,1030.176
6793,1052.916
6794,1076.678
6795,1101.426
6796,1126.940
6797,1152.929
6798,1179.137
6799,1205.345
6800,1231.334
6801,1256.885
6802,1281.852
6803,1306.344
6804,1330.399
6805,1354.124
6806,1377.339
6807,1399.678
6808,1420.776
6809,1440.267
6810,1458.007
6811,1473.995
6812,1488.303
6813,1500.860
6814,1511.664
6815,1520.643
6816,1527.871
6817,1533.382
6818,1537.324
6819,1539.770
6820,1540.938
6821,1540.975
6822,1540.098
6823,1538.492
6824,1536.375
6825,1534.076
6826,1531.813
6827,1529.878
6828,1528.309
6829,1527.214
6830,1526.703
6831,1526.812
6832,1527.688
6833,1529.477
6834,1532.287
6835,1536.229
6836,1541.376
6837,1547.800
6838,1555.612
6839,1564.700
6840,1575.249
6841,1587.331
6842,1600.910
6843,1615.875
6844,1632.009
6845,1649.018
6846,1666.466
6847,1683.877
6848,1700.704
6849,1716.290
6850,1729.832
6851,1740.746
6852,1748.630
6853,1753.412
6854,1755.018
6855,1753.485
6856,1748.667
6857,1740.491
6858,1728.774
6859,1713.407
6860,1694.353
6861,1671.540
6862,1645.259
6863,1615.948
6864,1584.192
6865,1550.538
6866,1515.387
6867,1479.032
6868,1441.910
6869,1404.460
6870,1367.265
6871,1330.910
6872,1296.160
6873,1263.711
6874,1234.218
6875,1208.484
6876,1187.168
6877,1171.034
6878,1160.558
6879,1155.667
6880,1155.996
6881,1160.887
6882,1169.647
6883,1181.619
6884,1196.147
6885,1212.426
6886,1229.728
6887,1247.322
6888,1264.514
6889,1280.684
6890,1295.211
6891,1307.512
6892,1317.331
6893,1324.412
6894,1328.574
6895,1329.742
6896,1327.990
6897,1323.573
6898,1316.893
6899,1308.607
6900,1299.373
6901,1290.065
6902,1281.414
6903,1274.187
6904,1268.821
6905,1265.572
6906,1264.587
6907,1266.083
6908,1270.427
6909,1277.837
6910,1288.240
6911,1301.271
6912,1316.382
6913,1332.917
6914,1350.146
6915,1367.228
6916,1383.471
6917,1398.437
6918,1411.760
6919,1423.148
6920,1432.420
6921,1439.428
6922,1444.100
6923,1446.363
6924,1446.473
6925,1444.830
6926,1441.910
6927,1438.114
6928,1433.624
6929,1428.551
6930,1422.929
6931,1416.943
6932,1410.920
6933,1405.190
6934,1400.007
6935,1395.517
6936,1391.903
6937,1389.093
6938,1386.903
6939,1384.932
6940,1382.778
6941,1380.259
6942,1377.412
6943,1374.419
6944,1371.353
6945,1368.287
6946,1365.257
6947,1362.228
6948,1359.089
6949,1355.658
6950,1351.788
6951,1347.372
6952,1342.371
6953,1336.859
6954,1330.946
6955,1324.814
6956,1318.463
6957,1312.038
6958,1305.578
6959,1299.044
6960,1292.474
6961,1285.831
6962,1279.370
6963,1273.238
6964,1267.507
6965,1262.324
6966,1257.688
6967,1253.490
6968,1249.621
6969,1245.971
6970,1242.577
6971,1239.474
6972,1236.663
6973,1234.108
6974,1231.772
6975,1229.509
6976,1227.246
6977,1224.873
6978,1222.428
6979,1219.909
6980,1217.354
6981,1214.982
6982,1212.974
6983,1211.477
6984,1210.492
6985,1209.981
6986,1209.944
6987,1210.455
6988,1211.769
6989,1214.106
6990,1217.719
6991,1222.756
6992,1229.327
6993,1237.612
6994,1247.869
6995,1260.353
6996,1275.282
6997,1292.948
6998,1313.535
6999,1337.370
7000,1364.418
7001,1394.385
7002,1426.762
7003,1461.256
7004,1497.392
7005,1534.806
7006,1573.132
7007,1611.933
7008,1650.624
7009,1688.440
7010,1724.649
7011,1758.340
7012,1788.672
7013,1814.698
7014,1835.686
7015,1850.907
7016,1859.850
7017,1862.186
7018,1857.842
7019,1847.001
7020,1830.211
7021,1808.310
7022,1782.248
7023,1753.010
7024,1721.546
7025,1688.695
7026,1655.224
7027,1621.934
7028,1589.594
7029,1558.897
7030,1530.280
7031,1504.218
7032,1481.112
7033,1461.292
7034,1444.976
7035,1432.201
7036,1422.820
7037,1416.651
7038,1413.257
7039,1412.308
7040,1413.403
7041,1416.140
7042,1420.009
7043,1424.645
7044,1429.792
7045,1435.194
7046,1440.669
7047,1446.071
7048,1451.291
7049,1456.292
7050,1461.146
7051,1466.037
7052,1470.929
7053,1475.601
7054,1479.689
7055,1482.937
7056,1485.201
7057,1486.369
7058,1486.478
7059,1485.566
7060,1483.777
7061,1481.039
7062,1477.316
7063,1472.571
7064,1466.840
7065,1460.197
7066,1452.787
7067,1444.940
7068,1437.019
7069,1429.500
7070,1422.637
7071,1416.432
7072,1410.628
7073,1404.898
7074,1398.948
7075,1392.925
7076,1387.268
7077,1382.595
7078,1379.310
7079,1377.741
7080,1377.704
7081,1378.909
7082,1380.880
7083,1383.325
7084,1385.954
7085,1388.545
7086,1390.845
7087,1392.743
7088,1394.130
7089,1394.860
7090,1394.896
7091,1394.239
7092,1393.144
7093,1391.867
7094,1390.845
7095,1390.407
7096,1390.772
7097,1391.940
7098,1393.874
7099,1396.575
7100,1399.897
7101,1403.730
7102,1407.708
7103,1411.431
7104,1414.644
7105,1417.308
7106,1419.644
7107,1421.980
7108,1424.499
7109,1427.237
7110,1430.011
7111,1432.712
7112,1435.303
7113,1437.712
7114,1439.829
7115,1441.655
7116,1442.932
7117,1443.553
7118,1443.407
7119,1442.458
7120,1440.596
7121,1437.858
7122,1434.208
7123,1429.792
7124,1424.681
7125,1419.024
7126,1412.782
7127,1405.883
7128,1398.255
7129,1389.823
7130,1380.442
7131,1370.039
7132,1358.870
7133,1347.226
7134,1335.472
7135,1323.828
7136,1312.367
7137,1301.015
7138,1289.919
7139,1279.224
7140,1269.222
7141,1260.134
7142,1252.249
7143,1245.825
7144,1241.043
7145,1237.868
7146,1236.152
7147,1235.605
7148,1236.043
7149,1237.101
7150,1238.452
7151,1239.802
7152,1240.824
7153,1241.409
7154,1241.409
7155,1240.788
7156,1239.620
7157,1238.160
7158,1236.590
7159,1235.167
7160,1233.853
7161,1232.612
7162,1231.079
7163,1228.925
7164,1226.005
7165,1222.391
7166,1218.522
7167,1214.836
7168,1211.769
7169,1209.579
7170,1208.411
7171,1208.411
7172,1209.543
7173,1211.769
7174,1214.945
7175,1218.924
7176,1223.632
7177,1229.035
7178,1235.094
7179,1241.774
7180,1249.074
7181,1256.995
7182,1265.463
7183,1274.515
7184,1284.225
7185,1294.664
7186,1305.870
7187,1317.696
7188,1330.034
7189,1342.627
7190,1355.256
7191,1367.739
7192,1379.821
7193,1391.319
7194,1402.087
7195,1412.015
7196,1421.177
7197,1429.828
7198,1438.296
7199,1446.947
7200,1456.146
7201,1466.147
7202,1476.988
7203,1488.741
7204,1501.188
7205,1513.927
7206,1526.630
7207,1539.040
7208,1551.122
7209,1562.766
7210,1573.862
7211,1584.192
7212,1593.427
7213,1601.202
7214,1607.224
7215,1611.458
7216,1613.904
7217,1614.671
7218,1613.795
7219,1611.276
7220,1607.261
7221,1602.151
7222,1596.383
7223,1590.397
7224,1584.375
7225,1578.279
7226,1571.818
7227,1564.773
7228,1557.181
7229,1549.297
7230,1541.559
7231,1534.295
7232,1527.834
7233,1522.432
7234,1518.198
7235,1515.022
7236,1512.723
7237,1511.189
7238,1510.204
7239,1509.474
7240,1508.780
7241,1507.831
7242,1506.335
7243,1503.926
7244,1500.166
7245,1494.581
7246,1486.807
7247,1476.696
7248,1464.395
7249,1450.086
7250,1434.099
7251,1416.907
7252,1398.912
7253,1380.588
7254,1362.447
7255,1344.890
7256,1328.099
7257,1312.184
7258,1297.109
7259,1282.874
7260,1269.514
7261,1256.995
7262,1245.205
7263,1234.108
7264,1223.632
7265,1213.923
7266,1205.090
7267,1197.351
7268,1190.927
7269,1186.036
7270,1183.006
7271,1182.021
7272,1183.225
7273,1186.657
7274,1192.168
7275,1199.688
7276,1208.995
7277,1220.092
7278,1232.904
7279,1247.395
7280,1263.455
7281,1280.976
7282,1299.847
7283,1319.886
7284,1340.546
7285,1361.169
7286,1381.281
7287,1400.408
7288,1418.367
7289,1434.975
7290,1450.159
7291,1463.774
7292,1475.783
7293,1486.077
7294,1494.727
7295,1501.699
7296,1507.065
7297,1510.788
7298,1513.051
7299,1513.927
7300,1513.672
7301,1512.467
7302,1510.423
7303,1507.649
7304,1504.181
7305,1500.166
7306,1495.786
7307,1491.333
7308,1486.953
7309,1482.864
7310,1479.141
7311,1475.820
7312,1472.863
7313,1470.053
7314,1467.278
7315,1464.358
7316,1461.256
7317,1457.825
7318,1453.919
7319,1449.612
7320,1444.976
7321,1440.048
7322,1434.975
7323,1429.938
7324,1425.302
7325,1421.214
7326,1417.746
7327,1414.644
7328,1411.833
7329,1409.132
7330,1406.577
7331,1404.058
7332,1401.467
7333,1398.766
7334,1396.028
7335,1393.400
7336,1390.808
7337,1388.217
7338,1385.735
7339,1383.617
7340,1382.011
7341,1381.062
7342,1380.661
7343,1380.551
7344,1380.515
7345,1380.442
7346,1380.259
7347,1380.077
7348,1379.931
7349,1379.894
7350,1379.785
7351,1379.456
7352,1378.799
7353,1377.777
7354,1376.463
7355,1374.967
7356,1373.616
7357,1372.558
7358,1372.010
7359,1372.083
7360,1372.886
7361,1374.565
7362,1377.084
7363,1380.442
7364,1384.567
7365,1389.348
7366,1394.714
7367,1400.554
7368,1406.796
7369,1413.439
7370,1420.484
7371,1427.784
7372,1435.157
7373,1442.458
7374,1449.466
7375,1455.963
7376,1461.767
7377,1466.658
7378,1470.600
7379,1473.703
7380,1476.075
7381,1477.791
7382,1478.922
7383,1479.433
7384,1479.470
7385,1478.995
7386,1478.119
7387,1476.805
7388,1475.017
7389,1472.681
7390,1469.724
7391,1466.183
7392,1462.059
7393,1457.423
7394,1452.422
7395,1447.203
7396,1441.983
7397,1436.800
7398,1431.580
7399,1426.068
7400,1420.082
7401,1413.512
7402,1406.358
7403,1398.620
7404,1390.334
7405,1381.683
7406,1372.777
7407,1363.688
7408,1354.562
7409,1345.474
7410,1336.677
7411,1328.355
7412,1320.726
7413,1313.900
7414,1308.060
7415,1303.424
7416,1300.030
7417,1297.949
7418,1297.000
7419,1297.109
7420,1297.985
7421,1299.409
7422,1301.344
7423,1303.826
7424,1307.001
7425,1310.907
7426,1315.689
7427,1321.200
7428,1327.406
7429,1334.231
7430,1341.495
7431,1348.905
7432,1356.169
7433,1362.994
7434,1369.236
7435,1374.784
7436,1379.529
7437,1383.325
7438,1386.063
7439,1387.706
7440,1388.144
7441,1387.231
7442,1384.932
7443,1381.427
7444,1376.974
7445,1371.864
7446,1366.170
7447,1360.038
7448,1353.577
7449,1347.116
7450,1340.765
7451,1334.414
7452,1328.026
7453,1321.529
7454,1314.886
7455,1308.060
7456,1300.979
7457,1293.642
7458,1286.013
7459,1278.129
7460,1270.026
7461,1261.776
7462,1253.490
7463,1245.241
7464,1237.174
7465,1229.546
7466,1222.647
7467,1216.697
7468,1211.879
7469,1208.265
7470,1205.966
7471,1204.907
7472,1205.053
7473,1206.258
7474,1208.484
7475,1211.660
7476,1215.639
7477,1220.384
7478,1225.749
7479,1231.553
7480,1237.576
7481,1243.745
7482,1249.877
7483,1255.827
7484,1261.448
7485,1266.594
7486,1271.376
7487,1275.939
7488,1280.319
7489,1284.626
7490,1288.970
7491,1293.423
7492,1298.095
7493,1303.059
7494,1308.242
7495,1313.608
7496,1318.974
7497,1324.157
7498,1329.048
7499,1333.720
7500,1338.283
7501,1342.919
7502,1347.919
7503,1353.467
7504,1359.636
7505,1366.389
7506,1373.470
7507,1380.661
7508,1387.669
7509,1394.422
7510,1400.919
7511,1407.343
7512,1413.731
7513,1420.082
7514,1426.141
7515,1431.544
7516,1435.851
7517,1438.698
7518,1439.501
7519,1437.749
7520,1432.712
7521,1423.696
7522,1410.008
7523,1391.027
7524,1366.279
7525,1335.472
7526,1298.351
7527,1254.695
7528,1204.396
7529,1147.637
7530,1085.074
7531,1017.838
7532,947.354
7533,875.228
7534,803.357
7535,733.603
7536,667.791
7537,607.783
7538,555.111
7539,511.054
7540,476.524
7541,452.141
7542,438.015
7543,433.964
7544,439.439
7545,453.747
7546,476.050
7547,505.652
7548,542.044
7549,584.604
7550,632.640
7551,685.494
7552,742.582
7553,803.284
7554,867.051
7555,933.301
7556,1001.413
7557,1070.656
7558,1140.409
7559,1210.017
7560,1278.822
7561,1346.058
7562,1410.847
7563,1472.352
7564,1529.842
7565,1582.878
7566,1631.206
7567,1674.788
7568,1713.699
7569,1748.083
7570,1778.196
7571,1804.295
7572,1826.889
7573,1846.563
7574,1864.011
7575,1880.071
7576,1895.475
7577,1910.915
7578,1927.085
7579,1944.533
7580,1963.769
7581,1985.305
7582,2009.322
7583,2036.005
7584,2065.096
7585,2096.378
7586,2129.266
7587,2163.102
7588,2196.976
7589,2229.900
7590,2260.780
7591,2288.521
7592,2312.174
7593,2331.081
7594,2344.587
7595,2352.288
7596,2353.895
7597,2349.295
7598,2338.564
7599,2321.992
7600,2300.019
7601,2273.008
7602,2241.398
7603,2205.663
7604,2166.351
7605,2124.192
7606,2079.843
7607,2033.815
7608,1986.473
7609,1938.145
7610,1889.087
7611,1839.628
7612,1789.986
7613,1740.344
7614,1690.958
7615,1642.266
7616,1594.668
7617,1548.786
7618,1505.057
7619,1463.847
7620,1425.521
7621,1390.297
7622,1358.614
7623,1330.800
7624,1307.111
7625,1287.619
7626,1272.179
7627,1260.754
7628,1253.271
7629,1249.621
7630,1249.585
7631,1252.833
7632,1259.039
7633,1268.018
7634,1279.552
7635,1293.350
7636,1309.155
7637,1326.712
7638,1345.839
7639,1366.279
7640,1387.560
7641,1409.132
7642,1430.339
7643,1450.889
7644,1470.527
7645,1489.179
7646,1506.663
7647,1522.979
7648,1537.908
7649,1551.268
7650,1562.766
7651,1572.402
7652,1580.286
7653,1586.565
7654,1591.529
7655,1595.398
7656,1598.428
7657,1600.837
7658,1602.844
7659,1604.633
7660,1606.312
7661,1607.881
7662,1609.268
7663,1610.254
7664,1610.692
7665,1610.363
7666,1609.195
7667,1606.969
7668,1603.793
7669,1599.888
7670,1595.434
7671,1590.653
7672,1585.324
7673,1579.191
7674,1571.782
7675,1562.839
7676,1552.253
7677,1540.208
7678,1526.958
7679,1512.796
7680,1497.757
7681,1481.806
7682,1464.906
7683,1447.239
7684,1428.952
7685,1410.227
7686,1391.210
7687,1371.937
7688,1352.482
7689,1332.990
7690,1313.608
7691,1294.591
7692,1276.085
7693,1258.126
7694,1240.861
7695,1224.362
7696,1208.776
7697,1194.322
7698,1181.291
7699,1169.793
7700,1159.828
7701,1151.104
7702,1143.476
7703,1136.686
7704,1130.481
7705,1124.641
7706,1119.093
7707,1114.019
7708,1109.493
7709,1105.697
7710,1102.667
7711,1100.550
7712,1099.382
7713,1099.090
7714,1099.455
7715,1100.185
7716,1100.952
7717,1101.572
7718,1102.302
7719,1103.288
7720,1104.711
7721,1106.755
7722,1109.602
7723,1113.362
7724,1118.180
7725,1124.130
7726,1131.248
7727,1139.570
7728,1149.243
7729,1160.339
7730,1172.823
7731,1186.657
7732,1201.732
7733,1217.938
7734,1234.875
7735,1252.067
7736,1269.076
7737,1285.539
7738,1301.161
7739,1315.762
7740,1328.829
7741,1339.998
7742,1349.014
7743,1355.950
7744,1360.841
7745,1363.761
7746,1364.929
7747,1364.783
7748,1363.688
7749,1362.045
7750,1360.001
7751,1357.738
7752,1355.256
7753,1352.664
7754,1349.927
7755,1347.007
7756,1343.795
7757,1340.436
7758,1337.297
7759,1334.961
7760,1333.903
7761,1334.633
7762,1337.261
7763,1341.714
7764,1347.664
7765,1354.672
7766,1362.301
7767,1370.222
7768,1378.288
7769,1386.538
7770,1394.933
7771,1403.255
7772,1411.249
7773,1418.586
7774,1425.083
7775,1430.668
7776,1435.267
7777,1439.026
7778,1442.166
7779,1444.940
7780,1447.641
7781,1450.597
7782,1453.919
7783,1457.715
7784,1461.949
7785,1466.548
7786,1471.440
7787,1476.659
7788,1482.207
7789,1488.084
7790,1494.107
7791,1500.239
7792,1506.408
7793,1512.467
7794,1518.271
7795,1523.782
7796,1528.966
7797,1533.930
7798,1538.675
7799,1543.201
7800,1547.472
7801,1551.487
7802,1555.393
7803,1559.408
7804,1563.678
7805,1568.423
7806,1573.643
7807,1579.374
7808,1585.506
7809,1592.040
7810,1598.829
7811,1605.874
7812,1613.028
7813,1620.219
7814,1627.446
7815,1634.673
7816,1641.974
7817,1649.456
7818,1657.122
7819,1664.933
7820,1672.781
7821,1680.519
7822,1688.111
7823,1695.448
7824,1702.639
7825,1709.829
7826,1717.057
7827,1724.247
7828,1731.110
7829,1737.461
7830,1742.973
7831,1747.426
7832,1750.674
7833,1752.645
7834,1753.266
7835,1752.499
7836,1750.346
7837,1746.732
7838,1741.622
7839,1735.125
7840,1727.277
7841,1718.006
7842,1707.238
7843,1695.046
7844,1681.504
7845,1666.940
7846,1651.683
7847,1636.097
7848,1620.657
7849,1605.655
7850,1591.383
7851,1578.096
7852,1565.795
7853,1554.516
7854,1544.041
7855,1534.076
7856,1524.439
7857,1514.840
7858,1505.057
7859,1494.910
7860,1484.361
7861,1473.520
7862,1462.679
7863,1451.911
7864,1441.436
7865,1431.252
7866,1421.396
7867,1411.760
7868,1402.160
7869,1392.633
7870,1383.216
7871,1374.200
7872,1365.732
7873,1358.140
7874,1351.533
7875,1346.058
7876,1341.714
7877,1338.429
7878,1336.020
7879,1334.341
7880,1333.063
7881,1331.859
7882,1330.508
7883,1329.012
7884,1327.588
7885,1326.383
7886,1325.471
7887,1324.923
7888,1324.850
7889,1325.398
7890,1326.675
7891,1328.756
7892,1331.676
7893,1335.436
7894,1339.998
7895,1345.291
7896,1351.204
7897,1357.592
7898,1364.308
7899,1371.061
7900,1377.595
7901,1383.654
7902,1389.166
7903,1394.130
7904,1398.766
7905,1403.182
7906,1407.453
7907,1411.504
7908,1415.337
7909,1418.878
7910,1422.090
7911,1425.010
7912,1427.857
7913,1430.814
7914,1433.916
7915,1437.128
7916,1440.596
7917,1444.429
7918,1448.736
7919,1453.481
7920,1458.445
7921,1463.373
7922,1468.118
7923,1472.608
7924,1476.805
7925,1480.674
7926,1484.179
7927,1487.208
7928,1489.873
7929,1492.136
7930,1494.107
7931,1495.786
7932,1497.173
7933,1498.341
7934,1499.108
7935,1499.181
7936,1498.341
7937,1496.479
7938,1493.523
7939,1489.617
7940,1484.690
7941,1478.776
7942,1471.878
7943,1463.920
7944,1454.941
7945,1444.830
7946,1433.515
7947,1421.104
7948,1407.708
7949,1393.619
7950,1378.872
7951,1363.323
7952,1346.897
7953,1329.377
7954,1310.870
7955,1291.525
7956,1271.705
7957,1251.592
7958,1231.334
7959,1211.222
7960,1191.475
7961,1172.093
7962,1153.039
7963,1134.277
7964,1115.808
7965,1097.739
7966,1080.255
7967,1063.574
7968,1047.842
7969,1033.242
7970,1019.955
7971,1008.165
7972,997.689
7973,988.126
7974,979.110
7975,970.496
7976,962.064
7977,953.742
7978,945.566
7979,937.754
7980,930.746
7981,925.125
7982,921.365
7983,919.723
7984,920.161
7985,922.387
7986,926.037
7987,930.929
7988,936.842
7989,943.960
7990,952.391
7991,962.466
7992,974.402
7993,988.382
7994,1004.515
7995,1022.729
7996,1042.805
7997,1064.487
7998,1087.556
7999,1111.792
8000,1137.197
8001,1163.697
8002,1191.292
8003,1219.946
8004,1249.548
8005,1279.881
8006,1310.469
8007,1340.765
8008,1370.112
8009,1397.816
8010,1423.221
8011,1445.779
8012,1465.198
8013,1481.441
8014,1494.800
8015,1505.495
8016,1513.745
8017,1519.585
8018,1523.125
8019,1524.585
8020,1524.366
8021,1522.833
8022,1520.388
8023,1517.285
8024,1513.818
8025,1510.350
8026,1507.430
8027,1505.532
8028,1505.021
8029,1505.970
8030,1508.306
8031,1512.029
8032,1517.322
8033,1524.476
8034,1533.638
8035,1544.844
8036,1557.948
8037,1572.548
8038,1588.244
8039,1604.669
8040,1621.350
8041,1637.885
8042,1653.690
8043,1668.254
8044,1681.139
8045,1691.871
8046,1700.303
8047,1706.325
8048,1710.012
8049,1711.362
8050,1710.377
8051,1707.201
8052,1701.872
8053,1694.535
8054,1685.410
8055,1674.788
8056,1662.925
8057,1650.150
8058,1636.754
8059,1622.956
8060,1609.086
8061,1595.398
8062,1581.965
8063,1568.971
8064,1556.597
8065,1545.026
8066,1534.331
8067,1524.585
8068,1515.789
8069,1508.233
8070,1502.174
8071,1497.793
8072,1495.019
8073,1493.632
8074,1493.304
8075,1493.815
8076,1495.202
8077,1497.538
8078,1500.823
8079,1504.984
8080,1509.875
8081,1515.460
8082,1521.994
8083,1529.696
8084,1538.857
8085,1549.625
8086,1561.999
8087,1575.760
8088,1590.653
8089,1606.202
8090,1622.080
8091,1638.031
8092,1653.873
8093,1669.423
8094,1684.388
8095,1698.514
8096,1711.581
8097,1723.262
8098,1733.409
8099,1741.878
8100,1748.630
8101,1753.594
8102,1756.661
8103,1757.865
8104,1757.318
8105,1755.091
8106,1751.331
8107,1746.112
8108,1739.541
8109,1731.621
8110,1722.386
8111,1711.837
8112,1700.011
8113,1687.162
8114,1673.401
8115,1658.983
8116,1644.127
8117,1629.235
8118,1614.561
8119,1600.216
8120,1586.273
8121,1572.767
8122,1559.773
8123,1547.362
8124,1535.536
8125,1524.147
8126,1512.942
8127,1501.736
8128,1490.384
8129,1478.922
8130,1467.424
8131,1455.963
8132,1444.648
8133,1433.624
8134,1423.002
8135,1412.965
8136,1403.620
8137,1394.969
8138,1386.903
8139,1379.274
8140,1371.864
8141,1364.637
8142,1357.738
8143,1351.241
8144,1345.364
8145,1340.181
8146,1335.728
8147,1331.932
8148,1328.756
8149,1326.201
8150,1324.266
8151,1323.062
8152,1322.697
8153,1323.171
8154,1324.412
8155,1326.201
8156,1328.428
8157,1331.092
8158,1334.450
8159,1338.648
8160,1343.868
8161,1350.219
8162,1357.811
8163,1366.571
8164,1376.208
8165,1386.392
8166,1396.794
8167,1407.088
8168,1417.089
8169,1426.689
8170,1436.033
8171,1445.341
8172,1455.087
8173,1465.672
8174,1477.280
8175,1489.873
8176,1503.269
8177,1517.139
8178,1531.156
8179,1545.136
8180,1558.860
8181,1572.256
8182,1585.287
8183,1597.990
8184,1610.290
8185,1621.971
8186,1632.629
8187,1641.901
8188,1649.347
8189,1654.676
8190,1657.523
8191,1657.815
8192,1655.589
8193,1650.916
8194,1643.981
8195,1634.856
8196,1623.869
8197,1611.239
8198,1597.332
8199,1582.403
8200,1566.708
8201,1550.428
8202,1533.747
8203,1516.738
8204,1499.473
8205,1481.988
8206,1464.431
8207,1446.947
8208,1429.865
8209,1413.549
8210,1398.364
8211,1384.676
8212,1372.594
8213,1362.301
8214,1353.832
8215,1347.226
8216,1342.481
8217,1339.451
8218,1338.100
8219,1338.283
8220,1339.779
8221,1342.444
8222,1345.839
8223,1349.525
8224,1353.029
8225,1355.913
8226,1358.030
8227,1359.308
8228,1359.381
8229,1357.921
8230,1354.708
8231,1349.744
8232,1343.211
8233,1335.253
8234,1326.237
8235,1316.528
8236,1306.454
8237,1296.452
8238,1286.743
8239,1277.472
8240,1268.383
8241,1259.112
8242,1249.256
8243,1238.525
8244,1226.881
8245,1214.179
8246,1200.527
8247,1186.036
8248,1170.998
8249,1155.594
8250,1139.898
8251,1123.838
8252,1107.303
8253,1090.257
8254,1072.809
8255,1055.142
8256,1037.549
8257,1020.138
8258,1003.238
8259,987.214
8260,972.394
8261,958.852
8262,946.661
8263,935.966
8264,927.169
8265,920.562
8266,916.109
8267,913.737
8268,913.153
8269,914.321
8270,917.314
8271,922.168
8272,928.629
8273,936.331
8274,944.945
8275,954.180
8276,963.816
8277,973.562
8278,983.235
8279,992.908
8280,1002.581
8281,1012.399
8282,1022.255
8283,1031.891
8284,1041.089
8285,1049.740
8286,1057.990
8287,1065.983
8288,1073.941
8289,1082.044
8290,1090.439
8291,1099.163
8292,1107.996
8293,1116.720
8294,1125.298
8295,1133.803
8296,1142.673
8297,1152.418
8298,1163.296
8299,1175.378
8300,1188.372
8301,1201.987
8302,1215.858
8303,1229.947
8304,1244.183
8305,1258.637
8306,1273.128
8307,1287.473
8308,1301.526
8309,1315.105
8310,1328.063
8311,1340.254
8312,1351.825
8313,1362.812
8314,1373.434
8315,1383.837
8316,1393.984
8317,1403.620
8318,1412.600
8319,1420.812
8320,1428.332
8321,1435.340
8322,1441.947
8323,1448.225
8324,1454.247
8325,1460.124
8326,1466.110
8327,1472.462
8328,1479.397
8329,1486.953
8330,1495.165
8331,1504.072
8332,1513.526
8333,1523.381
8334,1533.346
8335,1542.946
8336,1551.815
8337,1559.809
8338,1566.927
8339,1573.388
8340,1579.264
8341,1584.667
8342,1589.667
8343,1594.449
8344,1599.231
8345,1604.122
8346,1609.086
8347,1614.087
8348,1618.941
8349,1623.577
8350,1628.030
8351,1632.410
8352,1636.827
8353,1641.280
8354,1645.733
8355,1650.077
8356,1654.165
8357,1657.888
8358,1661.246
8359,1664.203
8360,1666.940
8361,1669.496
8362,1672.124
8363,1675.044
8364,1678.438
8365,1682.344
8366,1686.724
8367,1691.579
8368,1696.871
8369,1702.420
8370,1708.150
8371,1713.772
8372,1719.174
8373,1724.138
8374,1728.591
8375,1732.314
8376,1735.198
8377,1737.351
8378,1738.811
8379,1739.687
8380,1740.125
8381,1739.979
8382,1739.213
8383,1737.607
8384,1734.942
8385,1731.146
8386,1726.109
8387,1719.867
8388,1712.421
8389,1703.843
8390,1694.353
8391,1684.060
8392,1673.073
8393,1661.538
8394,1649.456
8395,1636.827
8396,1623.759
8397,1610.436
8398,1596.894
8399,1583.206
8400,1569.263
8401,1555.101
8402,1540.792
8403,1526.447
8404,1512.285
8405,1498.451
8406,1485.201
8407,1472.717
8408,1461.146
8409,1450.451
8410,1440.705
8411,1431.872
8412,1424.024
8413,1417.126
8414,1411.212
8415,1406.102
8416,1401.649
8417,1397.962
8418,1395.261
8419,1393.728
8420,1393.327
8421,1393.947
8422,1395.261
8423,1397.123
8424,1399.167
8425,1401.321
8426,1403.401
8427,1405.445
8428,1407.489
8429,1409.460
8430,1411.212
8431,1412.454
8432,1413.147
8433,1413.403
8434,1413.549
8435,1413.695
8436,1413.804
8437,1413.695
8438,1413.147
8439,1412.015
8440,1410.300
8441,1407.927
8442,1404.971
8443,1401.430
8444,1397.196
8445,1392.159
8446,1386.136
8447,1378.945
8448,1370.623
8449,1361.279
8450,1351.168
8451,1340.327
8452,1328.720
8453,1316.309
8454,1303.278
8455,1289.700
8456,1275.683
8457,1261.338
8458,1246.738
8459,1231.918
8460,1216.989
8461,1202.389
8462,1188.518
8463,1175.779
8464,1164.464
8465,1154.608
8466,1146.140
8467,1139.022
8468,1133.328
8469,1129.167
8470,1126.648
8471,1125.663
8472,1125.882
8473,1127.087
8474,1128.948
8475,1131.321
8476,1134.022
8477,1137.161
8478,1140.847
8479,1145.228
8480,1150.520
8481,1156.762
8482,1163.916
8483,1171.764
8484,1179.940
8485,1188.153
8486,1196.183
8487,1203.885
8488,1211.003
8489,1217.464
8490,1223.377
8491,1228.852
8492,1233.816
8493,1238.050
8494,1241.263
8495,1243.161
8496,1243.672
8497,1242.942
8498,1241.117
8499,1238.415
8500,1234.984
8501,1230.933
8502,1226.406
8503,1221.406
8504,1215.967
8505,1210.200
8506,1204.396
8507,1198.629
8508,1192.971
8509,1187.387
8510,1181.948
8511,1177.093
8512,1173.334
8513,1171.180
8514,1170.925
8515,1172.567
8516,1175.816
8517,1180.159
8518,1185.051
8519,1190.088
8520,1195.052
8521,1200.126
8522,1205.601
8523,1211.660
8524,1218.413
8525,1225.640
8526,1233.086
8527,1240.532
8528,1247.979
8529,1255.498
8530,1263.273
8531,1271.267
8532,1279.333
8533,1287.181
8534,1294.591
8535,1301.490
8536,1307.695
8537,1313.061
8538,1317.441
8539,1320.616
8540,1322.660
8541,1323.755
8542,1324.303
8543,1324.668
8544,1325.142
8545,1325.945
8546,1327.187
8547,1328.756
8548,1330.399
8549,1331.749
8550,1332.698
8551,1333.209
8552,1333.501
8553,1333.647
8554,1333.647
8555,1333.574
8556,1333.538
8557,1333.574
8558,1333.793
8559,1334.304
8560,1335.436
8561,1337.626
8562,1341.094
8563,1345.839
8564,1351.533
8565,1357.629
8566,1363.724
8567,1369.711
8568,1375.660
8569,1381.756
8570,1388.107
8571,1394.714
8572,1401.503
8573,1408.329
8574,1415.045
8575,1421.542
8576,1427.821
8577,1433.916
8578,1439.829
8579,1445.451
8580,1450.889
8581,1456.146
8582,1461.219
8583,1466.220
8584,1471.330
8585,1476.805
8586,1482.718
8587,1489.106
8588,1495.968
8589,1503.305
8590,1511.335
8591,1520.132
8592,1529.732
8593,1540.025
8594,1550.720
8595,1561.379
8596,1571.563
8597,1580.761
8598,1588.718
8599,1595.434
8600,1601.092
8601,1606.093
8602,1610.692
8603,1615.072
8604,1619.270
8605,1623.248
8606,1627.118
8607,1631.023
8608,1635.075
8609,1639.309
8610,1643.689
8611,1647.996
8612,1652.084
8613,1655.954
8614,1659.640
8615,1663.254
8616,1666.867
8617,1670.408
8618,1673.803
8619,1676.832
8620,1679.278
8621,1680.957
8622,1681.833
8623,1682.015
8624,1681.614
8625,1680.774
8626,1679.533
8627,1677.745
8628,1675.226
8629,1672.051
8630,1668.254
8631,1664.057
8632,1659.567
8633,1654.822
8634,1649.566
8635,1643.653
8636,1636.900
8637,1629.271
8638,1620.839
8639,1611.677
8640,1602.078
8641,1592.405
8642,1582.987
8643,1574.045
8644,1565.759
8645,1557.948
8646,1550.465
8647,1542.946
8648,1535.207
8649,1527.141
8650,1518.745
8651,1510.167
8652,1501.480
8653,1492.683
8654,1483.814
8655,1474.834
8656,1465.745
8657,1456.511
8658,1447.093
8659,1437.457
