'sample interval','wrist_ppg'
'0.00390625 sec','mV'
0,1333.949
1,1329.848
2,1326.501
3,1324.005
4,1322.301
5,1321.349
6,1321.118
7,1321.449
8,1322.010
9,1322.464
10,1322.595
11,1322.361
12,1321.895
13,1321.341
14,1320.752
15,1320.119
16,1319.482
17,1318.989
18,1318.786
19,1318.810
20,1318.833
21,1318.682
22,1318.384
23,1318.105
24,1317.906
25,1317.707
26,1317.452
27,1317.261
28,1317.345
29,1317.806
30,1318.487
31,1319.056
32,1319.255
33,1318.993
34,1318.308
35,1317.400
36,1316.568
37,1316.055
38,1316.035
39,1316.560
40,1317.476
41,1318.463
42,1319.208
43,1319.622
44,1319.797
45,1319.900
46,1320.048
47,1320.314
48,1320.740
49,1321.353
50,1322.150
51,1323.073
52,1324.056
53,1325.012
54,1325.888
55,1326.676
56,1327.400
57,1328.165
58,1329.168
59,1330.553
60,1332.229
61,1333.885
62,1335.223
63,1336.158
64,1336.751
65,1337.014
66,1336.899
67,1336.437
68,1335.764
69,1334.948
70,1333.909
71,1332.528
72,1330.784
73,1328.829
74,1326.938
75,1325.362
76,1324.188
77,1323.352
78,1322.723
79,1322.181
80,1321.636
81,1321.114
82,1320.732
83,1320.585
84,1320.708
85,1321.107
86,1321.736
87,1322.544
88,1323.483
89,1324.454
90,1325.271
91,1325.740
92,1325.812
93,1325.637
94,1325.501
95,1325.629
96,1326.051
97,1326.660
98,1327.277
99,1327.655
100,1327.536
101,1326.724
102,1325.163
103,1322.882
104,1319.948
105,1316.533
106,1312.910
107,1309.459
108,1306.592
109,1304.693
110,1303.957
111,1304.383
112,1305.772
113,1307.810
114,1310.064
115,1312.110
116,1313.670
117,1314.650
118,1315.064
119,1314.992
120,1314.677
121,1314.494
122,1314.721
123,1315.374
124,1316.206
125,1316.879
126,1317.193
127,1317.146
128,1316.859
129,1316.445
130,1315.876
131,1314.988
132,1313.595
133,1311.636
134,1309.267
135,1306.847
136,1304.829
137,1303.511
138,1302.910
139,1302.807
140,1302.950
141,1303.165
142,1303.280
143,1303.125
144,1302.651
145,1301.983
146,1301.338
147,1300.916
148,1300.788
149,1300.868
150,1300.987
151,1301.055
152,1301.087
153,1301.115
154,1301.139
155,1301.151
156,1301.083
157,1300.784
158,1300.155
159,1299.220
160,1298.093
161,1296.931
162,1295.800
163,1294.690
164,1293.599
165,1292.624
166,1291.887
167,1291.405
168,1291.019
169,1290.530
170,1289.901
171,1289.343
172,1289.104
173,1289.280
174,1289.857
175,1290.828
176,1292.245
177,1294.208
178,1296.736
179,1299.642
180,1302.608
181,1305.358
182,1307.711
183,1309.574
184,1310.908
185,1311.644
186,1311.716
187,1311.158
188,1310.211
189,1309.236
190,1308.551
191,1308.324
192,1308.591
193,1309.283
194,1310.259
195,1311.314
196,1312.293
197,1313.197
198,1314.144
199,1315.247
200,1316.501
201,1317.814
202,1319.056
203,1320.091
204,1320.856
205,1321.397
206,1321.755
207,1321.946
208,1321.982
209,1321.931
210,1321.867
211,1321.791
212,1321.700
213,1321.616
214,1321.572
215,1321.612
216,1321.803
217,1322.213
218,1322.890
219,1323.833
220,1325.040
221,1326.524
222,1328.177
223,1329.765
224,1331.039
225,1331.855
226,1332.213
227,1332.189
228,1331.843
229,1331.206
230,1330.370
231,1329.554
232,1329.040
233,1329.005
234,1329.403
235,1330.055
236,1330.872
237,1331.859
238,1332.954
239,1333.861
240,1334.223
241,1333.853
242,1332.790
243,1331.186
244,1329.148
245,1326.811
246,1324.343
247,1321.835
248,1319.236
249,1316.481
250,1313.579
251,1310.657
252,1307.902
253,1305.446
254,1303.344
255,1301.572
256,1300.076
257,1298.766
258,1297.572
259,1296.477
260,1295.541
261,1294.785
262,1294.200
263,1293.790
264,1293.519
265,1293.288
266,1292.994
267,1292.532
268,1291.855
269,1290.991
270,1290.000
271,1288.957
272,1287.922
273,1286.939
274,1286.063
275,1285.382
276,1284.984
277,1284.921
278,1285.239
279,1285.928
280,1286.927
281,1288.149
282,1289.522
283,1291.003
284,1292.600
285,1294.347
286,1296.254
287,1298.276
288,1300.247
289,1301.883
290,1302.962
291,1303.539
292,1303.953
293,1304.725
294,1306.334
295,1309.013
296,1312.691
297,1317.138
298,1322.102
299,1327.277
300,1332.281
301,1336.715
302,1340.290
303,1342.858
304,1344.355
305,1344.765
306,1344.096
307,1342.416
308,1339.884
309,1336.751
310,1333.352
311,1330.083
312,1327.245
313,1324.904
314,1322.970
315,1321.369
316,1320.191
317,1319.646
318,1319.888
319,1320.915
320,1322.552
321,1324.554
322,1326.763
323,1329.120
324,1331.560
325,1334.028
326,1336.548
327,1339.192
328,1341.962
329,1344.773
330,1347.452
331,1349.721
332,1351.353
333,1352.336
334,1352.870
335,1353.260
336,1353.773
337,1354.578
338,1355.744
339,1357.296
340,1359.171
341,1361.214
342,1363.244
343,1365.119
344,1366.743
345,1368.077
346,1369.124
347,1369.964
348,1370.716
349,1371.433
350,1372.117
351,1372.738
352,1373.216
353,1373.518
354,1373.682
355,1373.706
356,1373.495
357,1372.917
358,1371.898
359,1370.537
360,1369.084
361,1367.782
362,1366.659
363,1365.501
364,1363.984
365,1361.870
366,1359.100
367,1355.740
368,1351.926
369,1347.802
370,1343.590
371,1339.570
372,1335.947
373,1332.762
374,1329.940
375,1327.380
376,1325.040
377,1322.922
378,1321.023
379,1319.291
380,1317.711
381,1316.365
382,1315.378
383,1314.833
384,1314.677
385,1314.737
386,1314.821
387,1314.789
388,1314.697
389,1314.785
390,1315.283
391,1316.286
392,1317.759
393,1319.538
394,1321.333
395,1322.810
396,1323.865
397,1324.673
398,1325.501
399,1326.397
400,1327.130
401,1327.364
402,1326.915
403,1325.832
404,1324.347
405,1322.723
406,1321.111
407,1319.391
408,1317.285
409,1314.638
410,1311.572
411,1308.435
412,1305.653
413,1303.579
414,1302.385
415,1302.046
416,1302.341
417,1302.934
418,1303.551
419,1304.021
420,1304.232
421,1304.080
422,1303.539
423,1302.647
424,1301.481
425,1300.195
426,1298.877
427,1297.532
428,1296.155
429,1294.797
430,1293.571
431,1292.600
432,1291.895
433,1291.362
434,1290.912
435,1290.474
436,1290.024
437,1289.614
438,1289.335
439,1289.327
440,1289.698
441,1290.462
442,1291.557
443,1292.930
444,1294.582
445,1296.501
446,1298.607
447,1300.788
448,1302.954
449,1305.100
450,1307.317
451,1309.709
452,1312.265
453,1314.841
454,1317.225
455,1319.200
456,1320.661
457,1321.588
458,1321.939
459,1321.680
460,1320.816
461,1319.391
462,1317.456
463,1315.127
464,1312.659
465,1310.366
466,1308.447
467,1306.831
468,1305.247
469,1303.511
470,1301.696
471,1300.056
472,1298.778
473,1297.910
474,1297.544
475,1297.894
476,1299.148
477,1301.246
478,1303.798
479,1306.246
480,1308.109
481,1309.160
482,1309.451
483,1309.244
484,1308.830
485,1308.420
486,1308.069
487,1307.803
488,1307.699
489,1307.874
490,1308.328
491,1309.053
492,1310.119
493,1311.580
494,1313.348
495,1315.243
496,1317.122
497,1318.845
498,1320.267
499,1321.322
500,1321.970
501,1322.150
502,1321.799
503,1320.900
504,1319.399
505,1317.201
506,1314.212
507,1310.430
508,1306.103
509,1301.660
510,1297.651
511,1294.586
512,1292.823
513,1292.532
514,1293.651
515,1295.880
516,1298.730
517,1301.660
518,1304.200
519,1306.059
520,1307.074
521,1307.134
522,1306.166
523,1304.244
524,1301.648
525,1298.877
526,1296.505
527,1294.976
528,1294.491
529,1295.016
530,1296.338
531,1298.157
532,1300.279
533,1302.687
534,1305.406
535,1308.356
536,1311.314
537,1314.116
538,1316.803
539,1319.590
540,1322.707
541,1326.341
542,1330.529
543,1335.047
544,1339.458
545,1343.304
546,1346.297
547,1348.407
548,1349.797
549,1350.748
550,1351.476
551,1352.050
552,1352.476
553,1352.826
554,1353.168
555,1353.527
556,1353.901
557,1354.303
558,1354.733
559,1355.155
560,1355.509
561,1355.800
562,1356.130
563,1356.660
564,1357.412
565,1358.256
566,1359.056
567,1359.737
568,1360.258
569,1360.593
570,1360.756
571,1360.764
572,1360.668
573,1360.525
574,1360.334
575,1359.972
576,1359.327
577,1358.332
578,1356.954
579,1355.226
580,1353.260
581,1351.190
582,1349.160
583,1347.261
584,1345.505
585,1343.869
586,1342.408
587,1341.305
588,1340.776
589,1340.903
590,1341.560
591,1342.448
592,1343.228
593,1343.654
594,1343.646
595,1343.264
596,1342.551
597,1341.524
598,1340.223
599,1338.690
600,1336.986
601,1335.207
602,1333.499
603,1331.970
604,1330.688
605,1329.697
606,1329.036
607,1328.686
608,1328.559
609,1328.483
610,1328.308
611,1328.005
612,1327.679
613,1327.488
614,1327.540
615,1327.846
616,1328.312
617,1328.762
618,1328.993
619,1328.861
620,1328.316
621,1327.396
622,1326.142
623,1324.534
624,1322.540
625,1320.199
626,1317.695
627,1315.366
628,1313.575
629,1312.683
630,1312.958
631,1314.439
632,1316.887
633,1319.853
634,1322.822
635,1325.326
636,1327.038
637,1327.786
638,1327.528
639,1326.325
640,1324.391
641,1322.058
642,1319.689
643,1317.516
644,1315.609
645,1313.941
646,1312.516
647,1311.449
648,1310.935
649,1311.095
650,1311.863
651,1312.990
652,1314.212
653,1315.438
654,1316.763
655,1318.256
656,1319.785
657,1321.130
658,1322.150
659,1322.834
660,1323.256
661,1323.479
662,1323.547
663,1323.392
664,1322.818
665,1321.564
666,1319.415
667,1316.314
668,1312.416
669,1308.113
670,1303.925
671,1300.303
672,1297.520
673,1295.705
674,1294.857
675,1294.873
676,1295.577
677,1296.716
678,1297.946
679,1298.949
680,1299.582
681,1299.873
682,1299.869
683,1299.554
684,1298.889
685,1297.826
686,1296.381
687,1294.642
688,1292.751
689,1290.888
690,1289.216
691,1287.858
692,1286.839
693,1286.103
694,1285.573
695,1285.231
696,1285.104
697,1285.179
698,1285.414
699,1285.772
700,1286.258
701,1286.895
702,1287.723
703,1288.770
704,1290.048
705,1291.537
706,1293.185
707,1294.920
708,1296.640
709,1298.189
710,1299.459
711,1300.510
712,1301.557
713,1302.803
714,1304.279
715,1305.832
716,1307.265
717,1308.451
718,1309.387
719,1310.135
720,1310.760
721,1311.393
722,1312.285
723,1313.686
724,1315.597
725,1317.735
726,1319.697
727,1321.158
728,1321.923
729,1321.927
730,1321.238
731,1320.048
732,1318.654
733,1317.297
734,1316.138
735,1315.326
736,1314.932
737,1314.821
738,1314.685
739,1314.307
740,1313.710
741,1313.117
742,1312.802
743,1312.958
744,1313.646
745,1314.741
746,1316.003
747,1317.217
748,1318.288
749,1319.168
750,1319.789
751,1320.056
752,1319.908
753,1319.303
754,1318.220
755,1316.684
756,1314.737
757,1312.440
758,1309.892
759,1307.257
760,1304.829
761,1302.958
762,1301.887
763,1301.664
764,1302.126
765,1302.978
766,1304.013
767,1305.235
768,1306.795
769,1308.750
770,1310.995
771,1313.360
772,1315.748
773,1318.145
774,1320.533
775,1322.830
776,1324.908
777,1326.652
778,1327.997
779,1328.949
780,1329.526
781,1329.745
782,1329.649
783,1329.295
784,1328.766
785,1328.077
786,1327.157
787,1325.876
788,1324.164
789,1322.070
790,1319.781
791,1317.599
792,1315.888
793,1314.932
794,1314.896
795,1315.784
796,1317.432
797,1319.478
798,1321.465
799,1323.029
800,1324.001
801,1324.379
802,1324.287
803,1323.921
804,1323.439
805,1322.854
806,1322.070
807,1320.987
808,1319.614
809,1318.073
810,1316.572
811,1315.263
812,1314.176
813,1313.256
814,1312.480
815,1311.851
816,1311.417
817,1311.186
818,1311.099
819,1311.075
820,1311.099
821,1311.214
822,1311.469
823,1311.855
824,1312.305
825,1312.755
826,1313.205
827,1313.682
828,1314.192
829,1314.769
830,1315.541
831,1316.724
832,1318.531
833,1321.027
834,1323.953
835,1326.819
836,1329.108
837,1330.462
838,1330.756
839,1330.127
840,1328.949
841,1327.691
842,1326.759
843,1326.377
844,1326.509
845,1326.855
846,1327.010
847,1326.716
848,1325.955
849,1324.777
850,1323.220
851,1321.357
852,1319.319
853,1317.245
854,1315.259
855,1313.459
856,1311.959
857,1310.872
858,1310.302
859,1310.275
860,1310.728
861,1311.541
862,1312.548
863,1313.595
864,1314.554
865,1315.259
866,1315.454
867,1314.988
868,1313.933
869,1312.564
870,1311.170
871,1309.912
872,1308.909
873,1308.352
874,1308.420
875,1309.136
876,1310.390
877,1312.038
878,1313.981
879,1316.059
880,1318.001
881,1319.518
882,1320.398
883,1320.557
884,1320.028
885,1318.953
886,1317.536
887,1315.959
888,1314.379
889,1312.882
890,1311.525
891,1310.366
892,1309.459
893,1308.830
894,1308.424
895,1308.045
896,1307.512
897,1306.851
898,1306.298
899,1306.111
900,1306.381
901,1307.066
902,1308.061
903,1309.208
904,1310.350
905,1311.449
906,1312.627
907,1314.009
908,1315.557
909,1316.986
910,1317.894
911,1317.974
912,1317.193
913,1315.764
914,1314.072
915,1312.504
916,1311.314
917,1310.665
918,1310.589
919,1311.019
920,1311.799
921,1312.703
922,1313.479
923,1313.933
924,1313.941
925,1313.451
926,1312.476
927,1311.051
928,1309.331
929,1307.651
930,1306.489
931,1306.218
932,1307.034
933,1308.941
934,1311.744
935,1315.024
936,1318.236
937,1320.904
938,1322.675
939,1323.328
940,1322.818
941,1321.266
942,1318.929
943,1316.182
944,1313.427
945,1310.955
946,1308.913
947,1307.341
948,1306.166
949,1305.271
950,1304.610
951,1304.164
952,1303.889
953,1303.746
954,1303.678
955,1303.607
956,1303.436
957,1303.089
958,1302.532
959,1301.811
960,1301.039
961,1300.410
962,1300.127
963,1300.382
964,1301.338
965,1303.089
966,1305.553
967,1308.443
968,1311.405
969,1314.200
970,1316.724
971,1318.877
972,1320.569
973,1321.779
974,1322.532
975,1322.842
976,1322.739
977,1322.293
978,1321.632
979,1320.852
980,1319.928
981,1318.857
982,1317.834
983,1317.221
984,1317.376
985,1318.392
986,1320.020
987,1321.779
988,1323.185
989,1323.893
990,1323.722
991,1322.651
992,1320.780
993,1318.324
994,1315.589
995,1312.990
996,1310.943
997,1309.713
998,1309.228
999,1309.200
1000,1309.359
1001,1309.522
1002,1309.474
1003,1309.025
1004,1308.161
1005,1306.974
1006,1305.518
1007,1303.905
1008,1302.420
1009,1301.485
1010,1301.437
1011,1302.436
1012,1304.415
1013,1307.046
1014,1309.841
1015,1312.325
1016,1314.228
1017,1315.513
1018,1316.302
1019,1316.664
1020,1316.588
1021,1316.130
1022,1315.482
1023,1314.817
1024,1314.220
1025,1313.702
1026,1313.264
1027,1312.910
1028,1312.687
1029,1312.699
1030,1313.057
1031,1313.841
1032,1315.103
1033,1316.823
1034,1318.909
1035,1321.134
1036,1323.173
1037,1324.689
1038,1325.442
1039,1325.318
1040,1324.363
1041,1322.802
1042,1320.963
1043,1319.168
1044,1317.603
1045,1316.282
1046,1315.060
1047,1313.734
1048,1312.201
1049,1310.533
1050,1308.961
1051,1307.763
1052,1307.174
1053,1307.329
1054,1308.189
1055,1309.518
1056,1310.927
1057,1312.074
1058,1312.826
1059,1313.236
1060,1313.396
1061,1313.443
1062,1313.595
1063,1314.064
1064,1314.912
1065,1316.027
1066,1317.221
1067,1318.336
1068,1319.224
1069,1319.761
1070,1319.920
1071,1319.749
1072,1319.395
1073,1319.084
1074,1318.973
1075,1319.060
1076,1319.240
1077,1319.379
1078,1319.335
1079,1318.961
1080,1318.121
1081,1316.664
1082,1314.542
1083,1311.891
1084,1308.997
1085,1306.190
1086,1303.786
1087,1302.094
1088,1301.354
1089,1301.608
1090,1302.671
1091,1304.252
1092,1306.083
1093,1307.890
1094,1309.343
1095,1310.135
1096,1310.163
1097,1309.522
1098,1308.451
1099,1307.229
1100,1306.107
1101,1305.314
1102,1305.020
1103,1305.227
1104,1305.808
1105,1306.560
1106,1307.265
1107,1307.814
1108,1308.228
1109,1308.495
1110,1308.495
1111,1308.197
1112,1307.783
1113,1307.611
1114,1308.041
1115,1309.252
1116,1311.210
1117,1313.718
1118,1316.497
1119,1319.220
1120,1321.576
1121,1323.368
1122,1324.498
1123,1324.924
1124,1324.638
1125,1323.690
1126,1322.173
1127,1320.227
1128,1318.025
1129,1315.780
1130,1313.634
1131,1311.636
1132,1309.761
1133,1308.002
1134,1306.497
1135,1305.545
1136,1305.438
1137,1306.270
1138,1307.902
1139,1310.024
1140,1312.185
1141,1313.941
1142,1315.028
1143,1315.478
1144,1315.561
1145,1315.705
1146,1316.290
1147,1317.440
1148,1319.076
1149,1321.039
1150,1323.117
1151,1325.036
1152,1326.528
1153,1327.380
1154,1327.500
1155,1326.891
1156,1325.700
1157,1324.188
1158,1322.603
1159,1321.111
1160,1319.868
1161,1319.036
1162,1318.690
1163,1318.762
1164,1319.100
1165,1319.498
1166,1319.841
1167,1320.231
1168,1320.911
1169,1322.038
1170,1323.531
1171,1325.155
1172,1326.640
1173,1327.751
1174,1328.280
1175,1328.101
1176,1327.134
1177,1325.374
1178,1322.878
1179,1319.777
1180,1316.302
1181,1312.771
1182,1309.486
1183,1306.584
1184,1304.080
1185,1302.130
1186,1301.035
1187,1301.107
1188,1302.448
1189,1304.920
1190,1308.141
1191,1311.588
1192,1314.765
1193,1317.309
1194,1319.033
1195,1319.920
1196,1320.091
1197,1319.737
1198,1319.100
1199,1318.519
1200,1318.352
1201,1318.770
1202,1319.618
1203,1320.561
1204,1321.298
1205,1321.664
1206,1321.624
1207,1321.314
1208,1320.959
1209,1320.732
1210,1320.657
1211,1320.621
1212,1320.430
1213,1319.932
1214,1319.112
1215,1318.077
1216,1317.046
1217,1316.234
1218,1315.752
1219,1315.545
1220,1315.541
1221,1315.712
1222,1316.007
1223,1316.270
1224,1316.266
1225,1315.840
1226,1314.944
1227,1313.595
1228,1311.871
1229,1309.976
1230,1308.205
1231,1306.831
1232,1305.932
1233,1305.358
1234,1304.912
1235,1304.554
1236,1304.399
1237,1304.594
1238,1305.203
1239,1306.051
1240,1306.807
1241,1307.213
1242,1307.217
1243,1306.955
1244,1306.724
1245,1306.863
1246,1307.548
1247,1308.654
1248,1309.817
1249,1310.713
1250,1311.218
1251,1311.405
1252,1311.373
1253,1311.194
1254,1310.959
1255,1310.812
1256,1310.840
1257,1311.091
1258,1311.600
1259,1312.416
1260,1313.575
1261,1315.099
1262,1316.974
1263,1319.152
1264,1321.493
1265,1323.782
1266,1325.820
1267,1327.464
1268,1328.602
1269,1329.132
1270,1328.933
1271,1327.926
1272,1326.075
1273,1323.439
1274,1320.195
1275,1316.632
1276,1313.049
1277,1309.689
1278,1306.803
1279,1304.753
1280,1303.873
1281,1304.287
1282,1305.816
1283,1308.006
1284,1310.283
1285,1312.122
1286,1313.232
1287,1313.615
1288,1313.515
1289,1313.153
1290,1312.532
1291,1311.529
1292,1310.111
1293,1308.424
1294,1306.612
1295,1304.797
1296,1303.197
1297,1302.134
1298,1301.819
1299,1302.197
1300,1303.002
1301,1303.929
1302,1304.904
1303,1306.099
1304,1307.723
1305,1309.785
1306,1312.066
1307,1314.248
1308,1316.055
1309,1317.297
1310,1317.866
1311,1317.775
1312,1317.177
1313,1316.381
1314,1315.732
1315,1315.498
1316,1315.776
1317,1316.493
1318,1317.496
1319,1318.662
1320,1319.876
1321,1321.031
1322,1322.058
1323,1322.982
1324,1323.861
1325,1324.701
1326,1325.430
1327,1325.943
1328,1326.158
1329,1326.039
1330,1325.661
1331,1325.107
1332,1324.403
1333,1323.543
1334,1322.512
1335,1321.341
1336,1320.068
1337,1318.770
1338,1317.583
1339,1316.700
1340,1316.266
1341,1316.318
1342,1316.771
1343,1317.504
1344,1318.348
1345,1319.180
1346,1319.996
1347,1320.768
1348,1321.310
1349,1321.333
1350,1320.681
1351,1319.423
1352,1317.838
1353,1316.302
1354,1315.099
1355,1314.351
1356,1314.033
1357,1314.029
1358,1314.164
1359,1314.315
1360,1314.459
1361,1314.610
1362,1314.781
1363,1315.016
1364,1315.338
1365,1315.724
1366,1316.186
1367,1316.751
1368,1317.329
1369,1317.723
1370,1317.842
1371,1317.771
1372,1317.647
1373,1317.476
1374,1317.165
1375,1316.668
1376,1315.987
1377,1315.135
1378,1314.216
1379,1313.463
1380,1313.137
1381,1313.372
1382,1314.056
1383,1314.869
1384,1315.466
1385,1315.617
1386,1315.227
1387,1314.271
1388,1312.826
1389,1311.087
1390,1309.315
1391,1307.747
1392,1306.489
1393,1305.557
1394,1304.877
1395,1304.331
1396,1303.834
1397,1303.356
1398,1302.930
1399,1302.572
1400,1302.301
1401,1302.114
1402,1302.006
1403,1301.998
1404,1302.134
1405,1302.377
1406,1302.619
1407,1302.799
1408,1302.974
1409,1303.177
1410,1303.356
1411,1303.432
1412,1303.376
1413,1303.173
1414,1302.787
1415,1302.178
1416,1301.385
1417,1300.478
1418,1299.582
1419,1298.810
1420,1298.185
1421,1297.532
1422,1296.660
1423,1295.629
1424,1294.773
1425,1294.538
1426,1295.267
1427,1297.074
1428,1299.845
1429,1303.217
1430,1306.652
1431,1309.586
1432,1311.644
1433,1312.783
1434,1313.284
1435,1313.591
1436,1314.100
1437,1314.984
1438,1316.230
1439,1317.715
1440,1319.251
1441,1320.621
1442,1321.644
1443,1322.193
1444,1322.181
1445,1321.584
1446,1320.490
1447,1319.164
1448,1317.958
1449,1317.158
1450,1316.803
1451,1316.771
1452,1317.030
1453,1317.675
1454,1318.750
1455,1320.123
1456,1321.548
1457,1322.870
1458,1323.993
1459,1324.829
1460,1325.219
1461,1325.024
1462,1324.196
1463,1322.810
1464,1321.091
1465,1319.327
1466,1317.715
1467,1316.194
1468,1314.538
1469,1312.591
1470,1310.402
1471,1308.217
1472,1306.294
1473,1304.717
1474,1303.424
1475,1302.389
1476,1301.672
1477,1301.274
1478,1301.043
1479,1300.768
1480,1300.398
1481,1300.092
1482,1300.076
1483,1300.406
1484,1300.947
1485,1301.521
1486,1302.018
1487,1302.428
1488,1302.830
1489,1303.356
1490,1304.025
1491,1304.717
1492,1305.330
1493,1305.856
1494,1306.369
1495,1306.911
1496,1307.496
1497,1308.137
1498,1308.822
1499,1309.550
1500,1310.386
1501,1311.381
1502,1312.436
1503,1313.368
1504,1314.104
1505,1314.610
1506,1314.805
1507,1314.614
1508,1314.172
1509,1313.790
1510,1313.774
1511,1314.236
1512,1315.163
1513,1316.600
1514,1318.599
1515,1321.031
1516,1323.571
1517,1325.915
1518,1327.874
1519,1329.359
1520,1330.338
1521,1330.800
1522,1330.696
1523,1329.920
1524,1328.324
1525,1325.796
1526,1322.305
1527,1317.958
1528,1313.013
1529,1307.934
1530,1303.288
1531,1299.590
1532,1297.146
1533,1296.011
1534,1295.975
1535,1296.648
1536,1297.568
1537,1298.348
1538,1298.774
1539,1298.822
1540,1298.579
1541,1298.229
1542,1297.926
1543,1297.779
1544,1297.862
1545,1298.221
1546,1298.893
1547,1299.968
1548,1301.561
1549,1303.643
1550,1305.924
1551,1307.950
1552,1309.339
1553,1309.964
1554,1309.944
1555,1309.514
1556,1308.857
1557,1308.065
1558,1307.225
1559,1306.501
1560,1306.047
1561,1305.848
1562,1305.681
1563,1305.259
1564,1304.387
1565,1303.101
1566,1301.680
1567,1300.458
1568,1299.550
1569,1298.826
1570,1298.109
1571,1297.373
1572,1296.680
1573,1296.027
1574,1295.350
1575,1294.638
1576,1293.870
1577,1293.065
1578,1292.440
1579,1292.365
1580,1293.121
1581,1294.741
1582,1297.034
1583,1299.686
1584,1302.341
1585,1304.670
1586,1306.401
1587,1307.396
1588,1307.675
1589,1307.456
1590,1307.134
1591,1307.122
1592,1307.588
1593,1308.416
1594,1309.291
1595,1309.885
1596,1309.956
1597,1309.474
1598,1308.595
1599,1307.592
1600,1306.724
1601,1306.135
1602,1305.804
1603,1305.693
1604,1305.776
1605,1306.055
1606,1306.545
1607,1307.193
1608,1307.894
1609,1308.587
1610,1309.232
1611,1309.745
1612,1310.088
1613,1310.199
1614,1309.932
1615,1309.076
1616,1307.584
1617,1305.653
1618,1303.623
1619,1301.879
1620,1300.760
1621,1300.518
1622,1301.230
1623,1302.787
1624,1304.912
1625,1307.237
1626,1309.375
1627,1310.947
1628,1311.608
1629,1311.142
1630,1309.578
1631,1307.178
1632,1304.295
1633,1301.218
1634,1298.053
1635,1294.849
1636,1291.716
1637,1288.878
1638,1286.593
1639,1285.044
1640,1284.327
1641,1284.491
1642,1285.498
1643,1287.198
1644,1289.363
1645,1291.756
1646,1294.232
1647,1296.760
1648,1299.355
1649,1302.018
1650,1304.697
1651,1307.245
1652,1309.459
1653,1311.230
1654,1312.544
1655,1313.404
1656,1313.814
1657,1313.794
1658,1313.328
1659,1312.408
1660,1311.166
1661,1309.912
1662,1309.056
1663,1308.981
1664,1309.809
1665,1311.326
1666,1313.141
1667,1314.932
1668,1316.552
1669,1317.930
1670,1318.985
1671,1319.673
1672,1320.111
1673,1320.517
1674,1321.107
1675,1321.994
1676,1323.216
1677,1324.721
1678,1326.401
1679,1328.192
1680,1330.020
1681,1331.787
1682,1333.483
1683,1335.091
1684,1336.441
1685,1337.265
1686,1337.412
1687,1336.950
1688,1336.011
1689,1334.665
1690,1332.846
1691,1330.458
1692,1327.496
1693,1324.052
1694,1320.267
1695,1316.381
1696,1312.759
1697,1309.757
1698,1307.512
1699,1305.916
1700,1304.670
1701,1303.503
1702,1302.317
1703,1301.178
1704,1300.171
1705,1299.327
1706,1298.694
1707,1298.356
1708,1298.308
1709,1298.376
1710,1298.308
1711,1298.018
1712,1297.643
1713,1297.448
1714,1297.612
1715,1298.157
1716,1299.061
1717,1300.374
1718,1302.102
1719,1304.037
1720,1305.820
1721,1307.110
1722,1307.699
1723,1307.432
1724,1306.178
1725,1303.937
1726,1300.928
1727,1297.596
1728,1294.518
1729,1292.213
1730,1291.011
1731,1291.043
1732,1292.257
1733,1294.491
1734,1297.544
1735,1301.226
1736,1305.318
1737,1309.451
1738,1313.209
1739,1316.290
1740,1318.595
1741,1320.151
1742,1321.063
1743,1321.485
1744,1321.580
1745,1321.497
1746,1321.333
1747,1321.099
1748,1320.685
1749,1319.912
1750,1318.607
1751,1316.712
1752,1314.347
1753,1311.851
1754,1309.638
1755,1308.049
1756,1307.162
1757,1306.783
1758,1306.509
1759,1305.947
1760,1304.908
1761,1303.455
1762,1301.740
1763,1299.817
1764,1297.715
1765,1295.601
1766,1293.810
1767,1292.612
1768,1292.070
1769,1292.054
1770,1292.309
1771,1292.624
1772,1292.894
1773,1293.141
1774,1293.452
1775,1293.969
1776,1294.805
1777,1295.995
1778,1297.488
1779,1299.180
1780,1300.908
1781,1302.385
1782,1303.260
1783,1303.296
1784,1302.464
1785,1300.940
1786,1298.989
1787,1296.744
1788,1294.168
1789,1291.270
1790,1288.280
1791,1285.546
1792,1283.356
1793,1281.875
1794,1281.167
1795,1281.234
1796,1282.054
1797,1283.563
1798,1285.689
1799,1288.372
1800,1291.565
1801,1295.163
1802,1298.961
1803,1302.619
1804,1305.756
1805,1308.145
1806,1309.801
1807,1310.840
1808,1311.405
1809,1311.668
1810,1311.831
1811,1312.062
1812,1312.492
1813,1313.209
1814,1314.212
1815,1315.426
1816,1316.751
1817,1318.129
1818,1319.478
1819,1320.716
1820,1321.767
1821,1322.524
1822,1322.850
1823,1322.727
1824,1322.329
1825,1321.907
1826,1321.592
1827,1321.453
1828,1321.505
1829,1321.720
1830,1322.058
1831,1322.583
1832,1323.431
1833,1324.689
1834,1326.294
1835,1327.989
1836,1329.494
1837,1330.661
1838,1331.449
1839,1331.831
1840,1331.775
1841,1331.377
1842,1330.820
1843,1330.227
1844,1329.558
1845,1328.730
1846,1327.683
1847,1326.421
1848,1325.024
1849,1323.591
1850,1322.193
1851,1320.904
1852,1319.801
1853,1318.957
1854,1318.471
1855,1318.463
1856,1319.009
1857,1319.984
1858,1321.051
1859,1321.847
1860,1322.189
1861,1322.082
1862,1321.692
1863,1321.206
1864,1320.621
1865,1319.697
1866,1318.145
1867,1315.828
1868,1312.862
1869,1309.574
1870,1306.377
1871,1303.658
1872,1301.672
1873,1300.510
1874,1300.139
1875,1300.374
1876,1300.892
1877,1301.465
1878,1302.134
1879,1303.181
1880,1304.825
1881,1307.038
1882,1309.598
1883,1312.289
1884,1314.972
1885,1317.448
1886,1319.399
1887,1320.497
1888,1320.573
1889,1319.618
1890,1317.755
1891,1315.279
1892,1312.580
1893,1310.052
1894,1308.006
1895,1306.600
1896,1305.744
1897,1305.147
1898,1304.486
1899,1303.599
1900,1302.472
1901,1301.115
1902,1299.471
1903,1297.436
1904,1295.028
1905,1292.389
1906,1289.694
1907,1287.042
1908,1284.415
1909,1281.776
1910,1279.224
1911,1276.975
1912,1275.160
1913,1273.706
1914,1272.433
1915,1271.143
1916,1269.750
1917,1268.312
1918,1266.915
1919,1265.601
1920,1264.415
1921,1263.372
1922,1262.469
1923,1261.852
1924,1261.852
1925,1262.803
1926,1264.885
1927,1268.038
1928,1272.019
1929,1276.413
1930,1280.796
1931,1284.960
1932,1288.917
1933,1292.795
1934,1296.740
1935,1300.808
1936,1304.944
1937,1309.084
1938,1313.193
1939,1317.289
1940,1321.401
1941,1325.513
1942,1329.534
1943,1333.236
1944,1336.385
1945,1338.845
1946,1340.653
1947,1341.946
1948,1342.938
1949,1343.793
1950,1344.526
1951,1344.992
1952,1345.024
1953,1344.510
1954,1343.451
1955,1341.926
1956,1340.008
1957,1337.842
1958,1335.744
1959,1334.076
1960,1333.097
1961,1332.814
1962,1333.009
1963,1333.348
1964,1333.531
1965,1333.403
1966,1332.914
1967,1332.074
1968,1330.919
1969,1329.498
1970,1327.830
1971,1325.995
1972,1324.108
1973,1322.301
1974,1320.649
1975,1319.208
1976,1318.133
1977,1317.623
1978,1317.838
1979,1318.710
1980,1319.936
1981,1321.111
1982,1321.891
1983,1322.098
1984,1321.708
1985,1320.812
1986,1319.622
1987,1318.455
1988,1317.607
1989,1317.150
1990,1316.923
1991,1316.720
1992,1316.441
1993,1316.170
1994,1316.079
1995,1316.298
1996,1316.807
1997,1317.504
1998,1318.272
1999,1319.048
2000,1319.797
2001,1320.406
2002,1320.689
2003,1320.537
2004,1319.948
2005,1319.013
2006,1317.938
2007,1317.002
2008,1316.381
2009,1316.115
2010,1316.150
2011,1316.377
2012,1316.640
2013,1316.839
2014,1316.958
2015,1316.943
2016,1316.628
2017,1315.892
2018,1314.817
2019,1313.666
2020,1312.779
2021,1312.428
2022,1312.763
2023,1313.742
2024,1315.195
2025,1316.899
2026,1318.622
2027,1320.143
2028,1321.222
2029,1321.712
2030,1321.612
2031,1321.079
2032,1320.318
2033,1319.478
2034,1318.646
2035,1317.994
2036,1317.787
2037,1318.204
2038,1319.176
2039,1320.370
2040,1321.349
2041,1321.696
2042,1321.186
2043,1319.880
2044,1318.133
2045,1316.509
2046,1315.545
2047,1315.521
2048,1316.357
2049,1317.719
2050,1319.184
2051,1320.382
2052,1321.126
2053,1321.385
2054,1321.198
2055,1320.581
2056,1319.542
2057,1318.097
2058,1316.333
2059,1314.486
2060,1312.914
2061,1311.959
2062,1311.716
2063,1311.970
2064,1312.349
2065,1312.611
2066,1312.822
2067,1313.240
2068,1314.009
2069,1314.988
2070,1315.892
2071,1316.477
2072,1316.636
2073,1316.361
2074,1315.681
2075,1314.677
2076,1313.515
2077,1312.460
2078,1311.759
2079,1311.517
2080,1311.668
2081,1312.042
2082,1312.476
2083,1312.938
2084,1313.503
2085,1314.216
2086,1315.036
2087,1315.959
2088,1317.018
2089,1318.189
2090,1319.395
2091,1320.633
2092,1321.954
2093,1323.284
2094,1324.379
2095,1324.984
2096,1324.948
2097,1324.216
2098,1322.818
2099,1320.808
2100,1318.228
2101,1315.179
2102,1311.883
2103,1308.595
2104,1305.486
2105,1302.643
2106,1300.080
2107,1297.763
2108,1295.709
2109,1293.953
2110,1292.528
2111,1291.362
2112,1290.319
2113,1289.327
2114,1288.507
2115,1288.145
2116,1288.487
2117,1289.554
2118,1291.159
2119,1293.089
2120,1295.227
2121,1297.544
2122,1300.060
2123,1302.826
2124,1305.792
2125,1308.722
2126,1311.322
2127,1313.336
2128,1314.646
2129,1315.247
2130,1315.235
2131,1314.817
2132,1314.248
2133,1313.826
2134,1313.845
2135,1314.566
2136,1316.126
2137,1318.408
2138,1321.035
2139,1323.575
2140,1325.752
2141,1327.504
2142,1328.825
2143,1329.701
2144,1330.103
2145,1330.107
2146,1329.888
2147,1329.542
2148,1329.013
2149,1328.216
2150,1327.130
2151,1325.792
2152,1324.311
2153,1322.830
2154,1321.572
2155,1320.836
2156,1320.931
2157,1321.994
2158,1323.857
2159,1326.146
2160,1328.499
2161,1330.712
2162,1332.731
2163,1334.562
2164,1336.210
2165,1337.639
2166,1338.797
2167,1339.645
2168,1340.155
2169,1340.318
2170,1340.147
2171,1339.693
2172,1339.028
2173,1338.216
2174,1337.281
2175,1336.178
2176,1334.825
2177,1333.153
2178,1331.138
2179,1328.841
2180,1326.401
2181,1323.989
2182,1321.823
2183,1320.087
2184,1318.853
2185,1318.105
2186,1317.866
2187,1318.193
2188,1319.048
2189,1320.282
2190,1321.755
2191,1323.380
2192,1325.048
2193,1326.620
2194,1327.914
2195,1328.786
2196,1329.283
2197,1329.602
2198,1329.888
2199,1330.195
2200,1330.470
2201,1330.665
2202,1330.768
2203,1330.784
2204,1330.712
2205,1330.458
2206,1329.876
2207,1328.937
2208,1327.667
2209,1326.019
2210,1323.857
2211,1321.154
2212,1318.141
2213,1315.247
2214,1312.946
2215,1311.572
2216,1311.238
2217,1311.843
2218,1313.053
2219,1314.367
2220,1315.255
2221,1315.430
2222,1314.908
2223,1313.933
2224,1312.731
2225,1311.421
2226,1310.044
2227,1308.662
2228,1307.392
2229,1306.381
2230,1305.768
2231,1305.649
2232,1306.003
2233,1306.736
2234,1307.683
2235,1308.635
2236,1309.355
2237,1309.626
2238,1309.351
2239,1308.642
2240,1307.759
2241,1306.951
2242,1306.314
2243,1305.816
2244,1305.390
2245,1304.940
2246,1304.431
2247,1303.873
2248,1303.264
2249,1302.564
2250,1301.752
2251,1300.959
2252,1300.466
2253,1300.526
2254,1301.298
2255,1302.775
2256,1304.821
2257,1307.217
2258,1309.813
2259,1312.556
2260,1315.390
2261,1318.093
2262,1320.366
2263,1322.042
2264,1323.169
2265,1323.865
2266,1324.196
2267,1324.188
2268,1323.909
2269,1323.559
2270,1323.392
2271,1323.579
2272,1324.076
2273,1324.765
2274,1325.625
2275,1326.712
2276,1328.017
2277,1329.446
2278,1330.939
2279,1332.468
2280,1333.941
2281,1335.119
2282,1335.744
2283,1335.692
2284,1335.028
2285,1333.905
2286,1332.492
2287,1330.887
2288,1329.188
2289,1327.536
2290,1326.031
2291,1324.586
2292,1323.005
2293,1321.194
2294,1319.287
2295,1317.548
2296,1316.130
2297,1314.988
2298,1314.029
2299,1313.268
2300,1312.751
2301,1312.408
2302,1312.130
2303,1311.927
2304,1311.891
2305,1312.078
2306,1312.456
2307,1312.906
2308,1313.244
2309,1313.296
2310,1312.986
2311,1312.337
2312,1311.473
2313,1310.458
2314,1309.379
2315,1308.404
2316,1307.703
2317,1307.369
2318,1307.420
2319,1307.826
2320,1308.479
2321,1309.176
2322,1309.737
2323,1310.060
2324,1310.103
2325,1309.900
2326,1309.689
2327,1309.873
2328,1310.784
2329,1312.516
2330,1314.880
2331,1317.552
2332,1320.167
2333,1322.464
2334,1324.391
2335,1326.035
2336,1327.444
2337,1328.463
2338,1328.865
2339,1328.515
2340,1327.444
2341,1325.848
2342,1324.068
2343,1322.532
2344,1321.584
2345,1321.357
2346,1321.716
2347,1322.329
2348,1322.870
2349,1323.149
2350,1323.157
2351,1323.029
2352,1322.982
2353,1323.129
2354,1323.380
2355,1323.531
2356,1323.427
2357,1322.982
2358,1322.098
2359,1320.728
2360,1318.949
2361,1316.970
2362,1315.016
2363,1313.240
2364,1311.724
2365,1310.498
2366,1309.598
2367,1308.977
2368,1308.507
2369,1308.061
2370,1307.615
2371,1307.209
2372,1306.907
2373,1306.744
2374,1306.700
2375,1306.764
2376,1307.002
2377,1307.588
2378,1308.698
2379,1310.418
2380,1312.643
2381,1315.195
2382,1317.902
2383,1320.649
2384,1323.288
2385,1325.565
2386,1327.145
2387,1327.778
2388,1327.376
2389,1326.023
2390,1323.961
2391,1321.529
2392,1319.100
2393,1317.066
2394,1315.800
2395,1315.533
2396,1316.262
2397,1317.703
2398,1319.439
2399,1321.099
2400,1322.404
2401,1323.161
2402,1323.284
2403,1322.862
2404,1322.118
2405,1321.373
2406,1320.892
2407,1320.700
2408,1320.689
2409,1320.828
2410,1321.278
2411,1322.253
2412,1323.758
2413,1325.501
2414,1327.054
2415,1328.033
2416,1328.137
2417,1327.157
2418,1325.060
2419,1322.034
2420,1318.495
2421,1314.992
2422,1312.070
2423,1310.123
2424,1309.307
2425,1309.514
2426,1310.454
2427,1311.839
2428,1313.491
2429,1315.322
2430,1317.249
2431,1319.172
2432,1320.979
2433,1322.643
2434,1324.224
2435,1325.780
2436,1327.233
2437,1328.372
2438,1328.981
2439,1328.933
2440,1328.252
2441,1327.098
2442,1325.756
2443,1324.610
2444,1323.949
2445,1323.802
2446,1323.965
2447,1324.200
2448,1324.351
2449,1324.307
2450,1323.973
2451,1323.276
2452,1322.253
2453,1321.071
2454,1320.048
2455,1319.470
2456,1319.435
2457,1319.821
2458,1320.354
2459,1320.776
2460,1320.991
2461,1321.150
2462,1321.465
2463,1321.939
2464,1322.281
2465,1322.102
2466,1321.091
2467,1319.164
2468,1316.489
2469,1313.483
2470,1310.689
2471,1308.583
2472,1307.377
2473,1306.963
2474,1307.026
2475,1307.285
2476,1307.580
2477,1307.814
2478,1307.994
2479,1308.213
2480,1308.515
2481,1308.842
2482,1309.184
2483,1309.610
2484,1310.127
2485,1310.637
2486,1311.071
2487,1311.469
2488,1311.939
2489,1312.631
2490,1313.615
2491,1314.737
2492,1315.685
2493,1316.214
2494,1316.333
2495,1316.222
2496,1315.971
2497,1315.541
2498,1314.920
2499,1314.279
2500,1313.941
2501,1314.315
2502,1315.705
2503,1318.117
2504,1321.202
2505,1324.415
2506,1327.201
2507,1329.168
2508,1330.099
2509,1329.956
2510,1328.829
2511,1326.903
2512,1324.474
2513,1321.915
2514,1319.598
2515,1317.842
2516,1316.903
2517,1316.947
2518,1318.013
2519,1319.932
2520,1322.392
2521,1325.064
2522,1327.695
2523,1330.059
2524,1331.978
2525,1333.272
2526,1333.801
2527,1333.598
2528,1332.894
2529,1332.066
2530,1331.453
2531,1331.194
2532,1331.254
2533,1331.564
2534,1332.086
2535,1332.739
2536,1333.403
2537,1333.941
2538,1334.215
2539,1334.108
2540,1333.535
2541,1332.456
2542,1330.880
2543,1328.877
2544,1326.600
2545,1324.232
2546,1321.839
2547,1319.347
2548,1316.688
2549,1313.901
2550,1311.146
2551,1308.603
2552,1306.373
2553,1304.415
2554,1302.596
2555,1300.888
2556,1299.375
2557,1298.189
2558,1297.492
2559,1297.428
2560,1298.069
2561,1299.403
2562,1301.290
2563,1303.535
2564,1306.039
2565,1308.814
2566,1311.919
2567,1315.390
2568,1319.136
2569,1322.878
2570,1326.282
2571,1329.136
2572,1331.337
2573,1332.906
2574,1333.921
2575,1334.462
2576,1334.554
2577,1334.172
2578,1333.304
2579,1332.046
2580,1330.637
2581,1329.411
2582,1328.710
2583,1328.726
2584,1329.438
2585,1330.577
2586,1331.735
2587,1332.587
2588,1332.997
2589,1333.005
2590,1332.631
2591,1331.747
2592,1330.243
2593,1328.212
2594,1325.979
2595,1323.905
2596,1322.157
2597,1320.708
2598,1319.526
2599,1318.666
2600,1318.185
2601,1318.069
2602,1318.268
2603,1318.702
2604,1319.208
2605,1319.646
2606,1319.992
2607,1320.318
2608,1320.736
2609,1321.385
2610,1322.325
2611,1323.439
2612,1324.510
2613,1325.438
2614,1326.266
2615,1327.138
2616,1328.161
2617,1329.279
2618,1330.239
2619,1330.708
2620,1330.462
2621,1329.450
2622,1327.802
2623,1325.784
2624,1323.738
2625,1322.062
2626,1321.114
2627,1321.083
2628,1321.895
2629,1323.196
2630,1324.506
2631,1325.442
2632,1325.848
2633,1325.796
2634,1325.450
2635,1324.984
2636,1324.530
2637,1324.224
2638,1324.251
2639,1324.837
2640,1326.118
2641,1328.009
2642,1330.195
2643,1332.253
2644,1333.845
2645,1334.773
2646,1334.996
2647,1334.582
2648,1333.662
2649,1332.424
2650,1331.043
2651,1329.630
2652,1328.300
2653,1327.213
2654,1326.473
2655,1326.055
2656,1325.872
2657,1325.808
2658,1325.752
2659,1325.692
2660,1325.772
2661,1326.198
2662,1327.042
2663,1328.188
2664,1329.454
2665,1330.740
2666,1332.006
2667,1333.180
2668,1334.188
2669,1334.952
2670,1335.426
2671,1335.545
2672,1335.199
2673,1334.279
2674,1332.683
2675,1330.326
2676,1327.165
2677,1323.216
2678,1318.603
2679,1313.607
2680,1308.678
2681,1304.359
2682,1301.035
2683,1298.802
2684,1297.556
2685,1297.114
2686,1297.285
2687,1297.858
2688,1298.535
2689,1298.965
2690,1298.885
2691,1298.300
2692,1297.416
2693,1296.465
2694,1295.565
2695,1294.769
2696,1294.116
2697,1293.619
2698,1293.280
2699,1293.097
2700,1293.089
2701,1293.268
2702,1293.619
2703,1294.057
2704,1294.483
2705,1294.865
2706,1295.231
2707,1295.613
2708,1296.051
2709,1296.565
2710,1297.094
2711,1297.619
2712,1298.173
2713,1298.734
2714,1299.164
2715,1299.375
2716,1299.387
2717,1299.291
2718,1299.104
2719,1298.806
2720,1298.412
2721,1298.037
2722,1297.823
2723,1297.807
2724,1297.890
2725,1298.010
2726,1298.268
2727,1298.838
2728,1299.721
2729,1300.713
2730,1301.576
2731,1302.261
2732,1302.882
2733,1303.559
2734,1304.287
2735,1304.976
2736,1305.514
2737,1305.776
2738,1305.653
2739,1305.187
2740,1304.646
2741,1304.383
2742,1304.590
2743,1305.231
2744,1306.178
2745,1307.385
2746,1308.873
2747,1310.573
2748,1312.221
2749,1313.427
2750,1313.830
2751,1313.284
2752,1311.951
2753,1310.251
2754,1308.678
2755,1307.611
2756,1307.217
2757,1307.460
2758,1308.145
2759,1308.961
2760,1309.638
2761,1310.103
2762,1310.462
2763,1310.832
2764,1311.326
2765,1312.118
2766,1313.392
2767,1315.346
2768,1318.097
2769,1321.568
2770,1325.418
2771,1329.172
2772,1332.400
2773,1334.793
2774,1336.174
2775,1336.508
2776,1335.903
2777,1334.518
2778,1332.528
2779,1330.155
2780,1327.695
2781,1325.390
2782,1323.344
2783,1321.596
2784,1320.179
2785,1319.104
2786,1318.372
2787,1317.942
2788,1317.711
2789,1317.516
2790,1317.241
2791,1316.871
2792,1316.556
2793,1316.576
2794,1317.197
2795,1318.547
2796,1320.545
2797,1322.910
2798,1325.179
2799,1326.879
2800,1327.751
2801,1327.818
2802,1327.321
2803,1326.536
2804,1325.708
2805,1325.071
2806,1324.753
2807,1324.725
2808,1324.900
2809,1325.219
2810,1325.613
2811,1325.967
2812,1326.190
2813,1326.206
2814,1325.955
2815,1325.394
2816,1324.582
2817,1323.702
2818,1322.970
2819,1322.544
2820,1322.540
2821,1322.934
2822,1323.471
2823,1323.754
2824,1323.451
2825,1322.376
2826,1320.545
2827,1318.169
2828,1315.561
2829,1312.970
2830,1310.569
2831,1308.567
2832,1307.150
2833,1306.346
2834,1305.983
2835,1305.868
2836,1305.836
2837,1305.788
2838,1305.701
2839,1305.625
2840,1305.609
2841,1305.577
2842,1305.314
2843,1304.630
2844,1303.555
2845,1302.397
2846,1301.541
2847,1301.158
2848,1301.131
2849,1301.222
2850,1301.318
2851,1301.429
2852,1301.565
2853,1301.708
2854,1301.923
2855,1302.337
2856,1302.974
2857,1303.706
2858,1304.391
2859,1305.028
2860,1305.649
2861,1306.178
2862,1306.473
2863,1306.449
2864,1306.103
2865,1305.518
2866,1304.861
2867,1304.371
2868,1304.228
2869,1304.502
2870,1305.239
2871,1306.549
2872,1308.467
2873,1310.864
2874,1313.567
2875,1316.405
2876,1319.156
2877,1321.620
2878,1323.674
2879,1325.251
2880,1326.306
2881,1326.807
2882,1326.731
2883,1326.075
2884,1324.896
2885,1323.324
2886,1321.529
2887,1319.693
2888,1318.057
2889,1316.871
2890,1316.278
2891,1316.150
2892,1316.234
2893,1316.361
2894,1316.509
2895,1316.680
2896,1316.783
2897,1316.712
2898,1316.501
2899,1316.322
2900,1316.274
2901,1316.250
2902,1316.011
2903,1315.390
2904,1314.431
2905,1313.443
2906,1312.834
2907,1312.858
2908,1313.503
2909,1314.558
2910,1315.792
2911,1317.058
2912,1318.280
2913,1319.407
2914,1320.406
2915,1321.254
2916,1321.887
2917,1322.181
2918,1321.998
2919,1321.258
2920,1319.992
2921,1318.252
2922,1316.063
2923,1313.555
2924,1311.043
2925,1308.853
2926,1307.158
2927,1305.935
2928,1305.060
2929,1304.502
2930,1304.383
2931,1304.769
2932,1305.561
2933,1306.541
2934,1307.576
2935,1308.638
2936,1309.654
2937,1310.382
2938,1310.525
2939,1309.920
2940,1308.674
2941,1307.142
2942,1305.808
2943,1305.060
2944,1305.032
2945,1305.621
2946,1306.588
2947,1307.715
2948,1308.941
2949,1310.366
2950,1312.086
2951,1314.120
2952,1316.318
2953,1318.328
2954,1319.773
2955,1320.398
2956,1320.179
2957,1319.331
2958,1318.216
2959,1317.217
2960,1316.596
2961,1316.441
2962,1316.692
2963,1317.197
2964,1317.763
2965,1318.224
2966,1318.511
2967,1318.694
2968,1318.937
2969,1319.287
2970,1319.598
2971,1319.689
2972,1319.542
2973,1319.271
2974,1318.969
2975,1318.666
2976,1318.451
2977,1318.376
2978,1318.408
2979,1318.499
2980,1318.579
2981,1318.539
2982,1318.292
2983,1317.878
2984,1317.369
2985,1316.851
2986,1316.449
2987,1316.270
2988,1316.377
2989,1316.767
2990,1317.281
2991,1317.576
2992,1317.321
2993,1316.437
2994,1315.127
2995,1313.750
2996,1312.615
2997,1311.899
2998,1311.724
2999,1312.305
3000,1313.849
3001,1316.389
3002,1319.665
3003,1323.161
3004,1326.282
3005,1328.606
3006,1329.964
3007,1330.450
3008,1330.338
3009,1329.992
3010,1329.661
3011,1329.363
3012,1328.921
3013,1328.109
3014,1326.783
3015,1324.972
3016,1322.946
3017,1321.103
3018,1319.773
3019,1318.989
3020,1318.515
3021,1318.069
3022,1317.516
3023,1316.907
3024,1316.393
3025,1316.011
3026,1315.573
3027,1314.749
3028,1313.264
3029,1311.083
3030,1308.471
3031,1305.848
3032,1303.539
3033,1301.628
3034,1300.020
3035,1298.698
3036,1297.834
3037,1297.695
3038,1298.475
3039,1300.175
3040,1302.619
3041,1305.446
3042,1308.153
3043,1310.283
3044,1311.620
3045,1312.261
3046,1312.484
3047,1312.568
3048,1312.739
3049,1313.153
3050,1313.869
3051,1314.821
3052,1315.832
3053,1316.740
3054,1317.504
3055,1318.169
3056,1318.722
3057,1319.033
3058,1319.048
3059,1318.909
3060,1318.818
3061,1318.877
3062,1319.128
3063,1319.673
3064,1320.669
3065,1322.074
3066,1323.551
3067,1324.578
3068,1324.729
3069,1323.853
3070,1322.114
3071,1319.837
3072,1317.297
3073,1314.586
3074,1311.740
3075,1308.933
3076,1306.421
3077,1304.391
3078,1302.882
3079,1301.791
3080,1300.928
3081,1300.108
3082,1299.232
3083,1298.320
3084,1297.500
3085,1296.919
3086,1296.664
3087,1296.716
3088,1296.947
3089,1297.253
3090,1297.584
3091,1297.830
3092,1297.858
3093,1297.616
3094,1297.174
3095,1296.664
3096,1296.262
3097,1296.071
3098,1296.135
3099,1296.461
3100,1297.018
3101,1297.731
3102,1298.515
3103,1299.307
3104,1300.060
3105,1300.717
3106,1301.230
3107,1301.584
3108,1301.748
3109,1301.648
3110,1301.274
3111,1300.800
3112,1300.569
3113,1300.876
3114,1301.791
3115,1303.161
3116,1304.777
3117,1306.521
3118,1308.368
3119,1310.291
3120,1312.225
3121,1314.088
3122,1315.712
3123,1316.867
3124,1317.424
3125,1317.452
3126,1317.205
3127,1317.054
3128,1317.349
3129,1318.232
3130,1319.514
3131,1320.860
3132,1322.022
3133,1322.950
3134,1323.642
3135,1324.025
3136,1324.009
3137,1323.551
3138,1322.695
3139,1321.544
3140,1320.302
3141,1319.200
3142,1318.467
3143,1318.300
3144,1318.742
3145,1319.618
3146,1320.553
3147,1321.174
3148,1321.230
3149,1320.601
3150,1319.283
3151,1317.388
3152,1315.103
3153,1312.691
3154,1310.494
3155,1308.790
3156,1307.647
3157,1306.851
3158,1306.131
3159,1305.303
3160,1304.367
3161,1303.463
3162,1302.703
3163,1302.094
3164,1301.604
3165,1301.206
3166,1300.856
3167,1300.514
3168,1300.171
3169,1299.893
3170,1299.773
3171,1299.841
3172,1300.076
3173,1300.450
3174,1300.908
3175,1301.377
3176,1301.799
3177,1302.078
3178,1302.078
3179,1301.787
3180,1301.342
3181,1300.908
3182,1300.637
3183,1300.689
3184,1301.178
3185,1302.090
3186,1303.236
3187,1304.359
3188,1305.303
3189,1306.087
3190,1306.744
3191,1307.158
3192,1307.018
3193,1306.035
3194,1304.188
3195,1301.791
3196,1299.327
3197,1297.237
3198,1295.876
3199,1295.494
3200,1296.218
3201,1298.061
3202,1300.904
3203,1304.514
3204,1308.519
3205,1312.472
3206,1316.023
3207,1318.993
3208,1321.294
3209,1322.886
3210,1323.825
3211,1324.243
3212,1324.247
3213,1323.933
3214,1323.423
3215,1322.846
3216,1322.273
3217,1321.680
3218,1321.003
3219,1320.171
3220,1319.156
3221,1317.982
3222,1316.755
3223,1315.661
3224,1314.853
3225,1314.299
3226,1313.802
3227,1313.228
3228,1312.631
3229,1312.098
3230,1311.664
3231,1311.334
3232,1311.158
3233,1311.234
3234,1311.640
3235,1312.396
3236,1313.408
3237,1314.614
3238,1315.995
3239,1317.508
3240,1319.068
3241,1320.505
3242,1321.572
3243,1322.042
3244,1321.827
3245,1321.015
3246,1319.872
3247,1318.758
3248,1318.029
3249,1317.882
3250,1318.340
3251,1319.251
3252,1320.418
3253,1321.664
3254,1322.854
3255,1323.845
3256,1324.538
3257,1324.912
3258,1325.036
3259,1324.964
3260,1324.669
3261,1324.013
3262,1322.786
3263,1320.860
3264,1318.276
3265,1315.287
3266,1312.353
3267,1309.972
3268,1308.511
3269,1308.069
3270,1308.559
3271,1309.833
3272,1311.732
3273,1314.068
3274,1316.608
3275,1319.072
3276,1321.226
3277,1322.918
3278,1324.144
3279,1325.028
3280,1325.708
3281,1326.226
3282,1326.465
3283,1326.258
3284,1325.478
3285,1324.088
3286,1322.173
3287,1319.948
3288,1317.771
3289,1315.991
3290,1314.749
3291,1313.873
3292,1313.065
3293,1312.098
3294,1310.987
3295,1309.960
3296,1309.343
3297,1309.343
3298,1309.912
3299,1310.701
3300,1311.190
3301,1310.888
3302,1309.586
3303,1307.484
3304,1305.052
3305,1302.822
3306,1301.206
3307,1300.430
3308,1300.526
3309,1301.350
3310,1302.623
3311,1304.033
3312,1305.374
3313,1306.608
3314,1307.739
3315,1308.611
3316,1309.021
3317,1308.925
3318,1308.463
3319,1307.810
3320,1307.034
3321,1306.174
3322,1305.295
3323,1304.482
3324,1303.881
3325,1303.666
3326,1303.873
3327,1304.335
3328,1304.821
3329,1305.131
3330,1305.131
3331,1304.777
3332,1304.108
3333,1303.244
3334,1302.361
3335,1301.660
3336,1301.338
3337,1301.421
3338,1301.779
3339,1302.313
3340,1303.033
3341,1303.945
3342,1304.944
3343,1305.888
3344,1306.692
3345,1307.285
3346,1307.651
3347,1307.894
3348,1308.153
3349,1308.431
3350,1308.670
3351,1308.830
3352,1308.818
3353,1308.491
3354,1307.803
3355,1306.879
3356,1305.844
3357,1304.701
3358,1303.412
3359,1302.102
3360,1301.115
3361,1300.852
3362,1301.557
3363,1303.197
3364,1305.518
3365,1308.085
3366,1310.486
3367,1312.460
3368,1313.897
3369,1314.781
3370,1315.183
3371,1315.291
3372,1315.235
3373,1314.976
3374,1314.327
3375,1313.081
3376,1311.115
3377,1308.503
3378,1305.557
3379,1302.747
3380,1300.541
3381,1299.283
3382,1299.116
3383,1299.968
3384,1301.533
3385,1303.312
3386,1304.769
3387,1305.577
3388,1305.641
3389,1304.972
3390,1303.591
3391,1301.525
3392,1298.937
3393,1296.166
3394,1293.655
3395,1291.752
3396,1290.649
3397,1290.398
3398,1290.944
3399,1292.166
3400,1293.877
3401,1295.872
3402,1297.998
3403,1300.215
3404,1302.516
3405,1304.825
3406,1307.094
3407,1309.375
3408,1311.767
3409,1314.216
3410,1316.433
3411,1318.061
3412,1318.853
3413,1318.786
3414,1318.025
3415,1316.747
3416,1314.976
3417,1312.619
3418,1309.737
3419,1306.656
3420,1303.846
3421,1301.740
3422,1300.609
3423,1300.565
3424,1301.541
3425,1303.328
3426,1305.617
3427,1307.962
3428,1309.896
3429,1311.158
3430,1311.736
3431,1311.724
3432,1311.202
3433,1310.179
3434,1308.654
3435,1306.732
3436,1304.626
3437,1302.584
3438,1300.852
3439,1299.745
3440,1299.570
3441,1300.474
3442,1302.385
3443,1305.000
3444,1307.803
3445,1310.211
3446,1311.795
3447,1312.440
3448,1312.365
3449,1311.966
3450,1311.560
3451,1311.226
3452,1310.947
3453,1310.836
3454,1311.119
3455,1311.875
3456,1312.882
3457,1313.726
3458,1314.112
3459,1314.009
3460,1313.587
3461,1313.069
3462,1312.631
3463,1312.369
3464,1312.301
3465,1312.396
3466,1312.556
3467,1312.683
3468,1312.683
3469,1312.480
3470,1312.130
3471,1311.839
3472,1311.763
3473,1311.867
3474,1312.026
3475,1312.229
3476,1312.588
3477,1313.181
3478,1313.989
3479,1314.984
3480,1316.166
3481,1317.452
3482,1318.770
3483,1320.091
3484,1321.377
3485,1322.412
3486,1322.910
3487,1322.727
3488,1321.939
3489,1320.720
3490,1319.283
3491,1317.902
3492,1316.919
3493,1316.576
3494,1316.887
3495,1317.587
3496,1318.236
3497,1318.431
3498,1317.997
3499,1317.042
3500,1315.908
3501,1314.948
3502,1314.363
3503,1314.112
3504,1314.001
3505,1313.814
3506,1313.416
3507,1312.798
3508,1311.998
3509,1310.979
3510,1309.729
3511,1308.352
3512,1307.118
3513,1306.373
3514,1306.385
3515,1307.217
3516,1308.734
3517,1310.697
3518,1312.783
3519,1314.685
3520,1316.166
3521,1317.122
3522,1317.595
3523,1317.802
3524,1318.013
3525,1318.415
3526,1318.997
3527,1319.610
3528,1320.103
3529,1320.442
3530,1320.708
3531,1320.955
3532,1321.099
3533,1320.947
3534,1320.366
3535,1319.379
3536,1318.165
3537,1317.022
3538,1316.210
3539,1315.828
3540,1315.836
3541,1316.202
3542,1316.887
3543,1317.794
3544,1318.833
3545,1319.876
3546,1320.784
3547,1321.493
3548,1322.038
3549,1322.444
3550,1322.711
3551,1322.830
3552,1322.794
3553,1322.655
3554,1322.540
3555,1322.552
3556,1322.703
3557,1322.950
3558,1323.173
3559,1323.244
3560,1323.017
3561,1322.376
3562,1321.274
3563,1319.813
3564,1318.173
3565,1316.529
3566,1315.004
3567,1313.662
3568,1312.536
3569,1311.688
3570,1311.226
3571,1311.218
3572,1311.628
3573,1312.261
3574,1312.830
3575,1313.113
3576,1312.946
3577,1312.158
3578,1310.601
3579,1308.232
3580,1305.211
3581,1301.895
3582,1298.706
3583,1295.975
3584,1293.850
3585,1292.333
3586,1291.409
3587,1290.995
3588,1290.872
3589,1290.836
3590,1290.780
3591,1290.661
3592,1290.438
3593,1290.124
3594,1289.889
3595,1289.996
3596,1290.637
3597,1291.875
3598,1293.666
3599,1295.944
3600,1298.579
3601,1301.314
3602,1303.802
3603,1305.780
3604,1307.189
3605,1308.153
3606,1308.830
3607,1309.351
3608,1309.757
3609,1310.040
3610,1310.291
3611,1310.724
3612,1311.481
3613,1312.480
3614,1313.519
3615,1314.486
3616,1315.426
3617,1316.409
3618,1317.484
3619,1318.630
3620,1319.781
3621,1320.880
3622,1321.859
3623,1322.647
3624,1323.224
3625,1323.610
3626,1323.849
3627,1323.925
3628,1323.750
3629,1323.208
3630,1322.217
3631,1320.768
3632,1318.810
3633,1316.262
3634,1313.117
3635,1309.566
3636,1305.975
3637,1302.775
3638,1300.326
3639,1298.814
3640,1298.221
3641,1298.384
3642,1299.049
3643,1299.932
3644,1300.936
3645,1302.134
3646,1303.627
3647,1305.354
3648,1307.162
3649,1308.893
3650,1310.478
3651,1311.811
3652,1312.667
3653,1312.830
3654,1312.265
3655,1311.154
3656,1309.829
3657,1308.611
3658,1307.735
3659,1307.289
3660,1307.321
3661,1307.878
3662,1309.001
3663,1310.633
3664,1312.512
3665,1314.259
3666,1315.617
3667,1316.564
3668,1317.185
3669,1317.583
3670,1317.886
3671,1318.193
3672,1318.535
3673,1318.889
3674,1319.184
3675,1319.399
3676,1319.590
3677,1319.952
3678,1320.720
3679,1322.038
3680,1323.873
3681,1326.087
3682,1328.427
3683,1330.633
3684,1332.520
3685,1334.064
3686,1335.306
3687,1336.274
3688,1336.907
3689,1337.078
3690,1336.612
3691,1335.302
3692,1332.989
3693,1329.618
3694,1325.286
3695,1320.290
3696,1315.155
3697,1310.506
3698,1306.891
3699,1304.634
3700,1303.850
3701,1304.467
3702,1306.262
3703,1308.881
3704,1311.859
3705,1314.789
3706,1317.416
3707,1319.618
3708,1321.325
3709,1322.595
3710,1323.535
3711,1324.160
3712,1324.407
3713,1324.319
3714,1324.044
3715,1323.634
3716,1323.041
3717,1322.265
3718,1321.401
3719,1320.541
3720,1319.721
3721,1318.961
3722,1318.292
3723,1317.755
3724,1317.353
3725,1317.106
3726,1317.038
3727,1317.058
3728,1317.010
3729,1316.831
3730,1316.636
3731,1316.640
3732,1317.002
3733,1317.631
3734,1318.193
3735,1318.268
3736,1317.619
3737,1316.266
3738,1314.514
3739,1312.798
3740,1311.545
3741,1310.983
3742,1311.131
3743,1311.756
3744,1312.484
3745,1313.021
3746,1313.244
3747,1313.224
3748,1313.121
3749,1313.033
3750,1312.962
3751,1312.870
3752,1312.751
3753,1312.707
3754,1312.902
3755,1313.388
3756,1314.064
3757,1314.825
3758,1315.649
3759,1316.560
3760,1317.583
3761,1318.734
3762,1319.988
3763,1321.286
3764,1322.508
3765,1323.547
3766,1324.319
3767,1324.737
3768,1324.638
3769,1323.829
3770,1322.177
3771,1319.769
3772,1316.951
3773,1314.287
3774,1312.325
3775,1311.405
3776,1311.560
3777,1312.496
3778,1313.678
3779,1314.522
3780,1314.630
3781,1313.901
3782,1312.452
3783,1310.537
3784,1308.463
3785,1306.537
3786,1305.008
3787,1303.993
3788,1303.459
3789,1303.292
3790,1303.384
3791,1303.607
3792,1303.778
3793,1303.650
3794,1302.994
3795,1301.776
3796,1300.223
3797,1298.690
3798,1297.500
3799,1296.851
3800,1296.760
3801,1297.026
3802,1297.365
3803,1297.608
3804,1297.751
3805,1297.830
3806,1297.878
3807,1297.906
3808,1297.882
3809,1297.771
3810,1297.596
3811,1297.385
3812,1297.178
3813,1297.042
3814,1297.014
3815,1297.078
3816,1297.150
3817,1297.094
3818,1296.887
3819,1296.700
3820,1296.795
3821,1297.265
3822,1297.978
3823,1298.766
3824,1299.650
3825,1300.820
3826,1302.404
3827,1304.287
3828,1306.182
3829,1307.791
3830,1309.001
3831,1309.928
3832,1310.764
3833,1311.596
3834,1312.416
3835,1313.276
3836,1314.255
3837,1315.406
3838,1316.712
3839,1318.137
3840,1319.622
3841,1321.059
3842,1322.301
3843,1323.312
3844,1324.180
3845,1324.972
3846,1325.605
3847,1325.979
3848,1326.075
3849,1325.915
3850,1325.497
3851,1324.813
3852,1323.913
3853,1322.930
3854,1321.974
3855,1321.142
3856,1320.537
3857,1320.255
3858,1320.386
3859,1320.935
3860,1321.787
3861,1322.715
3862,1323.471
3863,1323.849
3864,1323.778
3865,1323.300
3866,1322.556
3867,1321.724
3868,1320.943
3869,1320.310
3870,1319.880
3871,1319.673
3872,1319.665
3873,1319.777
3874,1319.896
3875,1319.952
3876,1319.920
3877,1319.821
3878,1319.669
3879,1319.450
3880,1319.112
3881,1318.634
3882,1318.057
3883,1317.504
3884,1317.054
3885,1316.759
3886,1316.708
3887,1316.982
3888,1317.540
3889,1318.260
3890,1319.080
3891,1319.948
3892,1320.804
3893,1321.532
3894,1322.018
3895,1322.249
3896,1322.317
3897,1322.245
3898,1322.018
3899,1321.676
3900,1321.318
3901,1321.039
3902,1320.947
3903,1321.111
3904,1321.493
3905,1322.006
3906,1322.492
3907,1322.802
3908,1322.874
3909,1322.699
3910,1322.261
3911,1321.556
3912,1320.649
3913,1319.638
3914,1318.642
3915,1317.719
3916,1316.899
3917,1316.214
3918,1315.649
3919,1315.159
3920,1314.733
3921,1314.343
3922,1313.945
3923,1313.515
3924,1313.109
3925,1312.830
3926,1312.842
3927,1313.308
3928,1314.236
3929,1315.370
3930,1316.326
3931,1316.855
3932,1316.974
3933,1316.943
3934,1317.138
3935,1317.902
3936,1319.263
3937,1320.943
3938,1322.556
3939,1323.821
3940,1324.626
3941,1324.936
3942,1324.753
3943,1324.072
3944,1322.938
3945,1321.449
3946,1319.773
3947,1318.121
3948,1316.708
3949,1315.705
3950,1315.159
3951,1315.024
3952,1315.203
3953,1315.525
3954,1315.804
3955,1315.987
3956,1316.194
3957,1316.564
3958,1317.110
3959,1317.787
3960,1318.587
3961,1319.514
3962,1320.490
3963,1321.294
3964,1321.708
3965,1321.664
3966,1321.286
3967,1320.724
3968,1320.103
3969,1319.594
3970,1319.371
3971,1319.490
3972,1319.912
3973,1320.605
3974,1321.493
3975,1322.273
3976,1322.488
3977,1321.732
3978,1319.833
3979,1316.895
3980,1313.300
3981,1309.614
3982,1306.385
3983,1303.953
3984,1302.404
3985,1301.600
3986,1301.334
3987,1301.493
3988,1302.030
3989,1302.763
3990,1303.332
3991,1303.380
3992,1302.727
3993,1301.441
3994,1299.709
3995,1297.763
3996,1295.884
3997,1294.307
3998,1293.081
3999,1292.102
4000,1291.302
4001,1290.812
4002,1290.828
4003,1291.457
4004,1292.695
4005,1294.431
4006,1296.489
4007,1298.635
4008,1300.657
4009,1302.464
4010,1304.096
4011,1305.557
4012,1306.775
4013,1307.703
4014,1308.447
4015,1309.263
4016,1310.382
4017,1311.819
4018,1313.352
4019,1314.717
4020,1315.728
4021,1316.393
4022,1316.927
4023,1317.595
4024,1318.531
4025,1319.594
4026,1320.525
4027,1321.142
4028,1321.377
4029,1321.274
4030,1320.904
4031,1320.275
4032,1319.247
4033,1317.639
4034,1315.330
4035,1312.365
4036,1308.989
4037,1305.653
4038,1302.874
4039,1301.015
4040,1300.096
4041,1299.865
4042,1299.916
4043,1299.908
4044,1299.686
4045,1299.283
4046,1298.842
4047,1298.523
4048,1298.380
4049,1298.388
4050,1298.491
4051,1298.583
4052,1298.571
4053,1298.575
4054,1298.901
4055,1299.849
4056,1301.489
4057,1303.674
4058,1306.206
4059,1308.897
4060,1311.481
4061,1313.654
4062,1315.271
4063,1316.421
4064,1317.392
4065,1318.427
4066,1319.494
4067,1320.318
4068,1320.649
4069,1320.426
4070,1319.781
4071,1319.001
4072,1318.404
4073,1318.193
4074,1318.396
4075,1318.945
4076,1319.749
4077,1320.661
4078,1321.489
4079,1322.082
4080,1322.380
4081,1322.368
4082,1322.054
4083,1321.544
4084,1321.015
4085,1320.593
4086,1320.314
4087,1320.167
4088,1320.123
4089,1320.127
4090,1320.131
4091,1320.151
4092,1320.235
4093,1320.346
4094,1320.434
4095,1320.541
4096,1320.812
4097,1321.329
4098,1322.046
4099,1322.830
4100,1323.527
4101,1323.933
4102,1323.893
4103,1323.368
4104,1322.432
4105,1321.242
4106,1319.968
4107,1318.714
4108,1317.576
4109,1316.720
4110,1316.405
4111,1316.847
4112,1318.013
4113,1319.538
4114,1320.955
4115,1321.931
4116,1322.412
4117,1322.568
4118,1322.635
4119,1322.739
4120,1322.898
4121,1323.101
4122,1323.292
4123,1323.336
4124,1323.141
4125,1322.731
4126,1322.257
4127,1321.915
4128,1321.807
4129,1321.958
4130,1322.444
4131,1323.320
4132,1324.446
4133,1325.537
4134,1326.349
4135,1326.815
4136,1326.966
4137,1326.895
4138,1326.684
4139,1326.373
4140,1325.979
4141,1325.501
4142,1324.980
4143,1324.518
4144,1324.188
4145,1323.945
4146,1323.662
4147,1323.236
4148,1322.651
4149,1321.954
4150,1321.254
4151,1320.677
4152,1320.374
4153,1320.454
4154,1320.923
4155,1321.652
4156,1322.380
4157,1322.798
4158,1322.631
4159,1321.680
4160,1319.868
4161,1317.229
4162,1313.957
4163,1310.426
4164,1307.106
4165,1304.427
4166,1302.611
4167,1301.568
4168,1300.991
4169,1300.545
4170,1300.068
4171,1299.518
4172,1298.913
4173,1298.260
4174,1297.580
4175,1296.855
4176,1296.091
4177,1295.299
4178,1294.518
4179,1293.794
4180,1293.121
4181,1292.524
4182,1292.074
4183,1291.903
4184,1292.042
4185,1292.428
4186,1292.934
4187,1293.428
4188,1293.810
4189,1294.108
4190,1294.423
4191,1294.869
4192,1295.522
4193,1296.449
4194,1297.711
4195,1299.303
4196,1301.103
4197,1302.970
4198,1304.889
4199,1306.959
4200,1309.244
4201,1311.656
4202,1313.997
4203,1316.134
4204,1317.982
4205,1319.502
4206,1320.788
4207,1322.086
4208,1323.642
4209,1325.493
4210,1327.456
4211,1329.291
4212,1330.844
4213,1332.030
4214,1332.814
4215,1333.196
4216,1333.176
4217,1332.755
4218,1331.907
4219,1330.629
4220,1328.969
4221,1327.038
4222,1325.052
4223,1323.272
4224,1322.018
4225,1321.628
4226,1322.341
4227,1324.092
4228,1326.517
4229,1329.124
4230,1331.473
4231,1333.248
4232,1334.239
4233,1334.307
4234,1333.391
4235,1331.540
4236,1328.925
4237,1325.792
4238,1322.472
4239,1319.327
4240,1316.720
4241,1314.837
4242,1313.638
4243,1312.886
4244,1312.329
4245,1311.899
4246,1311.592
4247,1311.357
4248,1311.115
4249,1310.860
4250,1310.665
4251,1310.613
4252,1310.701
4253,1310.768
4254,1310.633
4255,1310.310
4256,1309.960
4257,1309.749
4258,1309.813
4259,1310.299
4260,1311.286
4261,1312.655
4262,1314.180
4263,1315.708
4264,1317.241
4265,1318.833
4266,1320.505
4267,1322.165
4268,1323.678
4269,1325.020
4270,1326.214
4271,1327.277
4272,1328.184
4273,1328.913
4274,1329.446
4275,1329.841
4276,1330.163
4277,1330.446
4278,1330.637
4279,1330.593
4280,1330.167
4281,1329.307
4282,1328.057
4283,1326.524
4284,1324.936
4285,1323.591
4286,1322.739
4287,1322.364
4288,1322.146
4289,1321.588
4290,1320.350
4291,1318.439
4292,1316.150
4293,1313.877
4294,1311.919
4295,1310.434
4296,1309.355
4297,1308.439
4298,1307.444
4299,1306.353
4300,1305.374
4301,1304.773
4302,1304.725
4303,1305.231
4304,1306.186
4305,1307.548
4306,1309.319
4307,1311.449
4308,1313.706
4309,1315.697
4310,1317.054
4311,1317.619
4312,1317.464
4313,1316.815
4314,1315.912
4315,1314.976
4316,1314.188
4317,1313.607
4318,1313.181
4319,1312.806
4320,1312.396
4321,1311.943
4322,1311.453
4323,1310.927
4324,1310.362
4325,1309.845
4326,1309.586
4327,1309.821
4328,1310.701
4329,1312.265
4330,1314.443
4331,1317.094
4332,1319.964
4333,1322.691
4334,1324.924
4335,1326.425
4336,1327.038
4337,1326.731
4338,1325.569
4339,1323.758
4340,1321.600
4341,1319.454
4342,1317.627
4343,1316.266
4344,1315.370
4345,1314.904
4346,1314.849
4347,1315.159
4348,1315.752
4349,1316.533
4350,1317.444
4351,1318.523
4352,1319.801
4353,1321.214
4354,1322.615
4355,1323.817
4356,1324.630
4357,1324.868
4358,1324.403
4359,1323.220
4360,1321.425
4361,1319.160
4362,1316.656
4363,1314.263
4364,1312.305
4365,1310.931
4366,1310.103
4367,1309.789
4368,1310.008
4369,1310.752
4370,1311.943
4371,1313.463
4372,1315.095
4373,1316.473
4374,1317.229
4375,1317.106
4376,1315.987
4377,1313.925
4378,1311.134
4379,1307.910
4380,1304.443
4381,1300.804
4382,1297.150
4383,1293.834
4384,1291.270
4385,1289.749
4386,1289.296
4387,1289.706
4388,1290.645
4389,1291.851
4390,1293.189
4391,1294.522
4392,1295.677
4393,1296.577
4394,1297.293
4395,1297.954
4396,1298.591
4397,1299.156
4398,1299.662
4399,1300.299
4400,1301.294
4401,1302.799
4402,1304.813
4403,1307.178
4404,1309.554
4405,1311.600
4406,1313.105
4407,1314.037
4408,1314.455
4409,1314.459
4410,1314.180
4411,1313.746
4412,1313.244
4413,1312.735
4414,1312.329
4415,1312.158
4416,1312.293
4417,1312.675
4418,1313.236
4419,1313.957
4420,1314.817
4421,1315.780
4422,1316.843
4423,1318.009
4424,1319.327
4425,1320.844
4426,1322.480
4427,1323.981
4428,1325.083
4429,1325.665
4430,1325.736
4431,1325.370
4432,1324.685
4433,1323.845
4434,1322.958
4435,1322.086
4436,1321.310
4437,1320.661
4438,1320.020
4439,1319.224
4440,1318.284
4441,1317.380
4442,1316.656
4443,1316.051
4444,1315.386
4445,1314.590
4446,1313.841
4447,1313.420
4448,1313.471
4449,1313.889
4450,1314.462
4451,1315.028
4452,1315.533
4453,1316.051
4454,1316.744
4455,1317.719
4456,1318.901
4457,1320.064
4458,1320.987
4459,1321.513
4460,1321.501
4461,1320.876
4462,1319.646
4463,1317.946
4464,1316.031
4465,1314.244
4466,1312.846
4467,1311.919
4468,1311.433
4469,1311.341
4470,1311.568
4471,1311.990
4472,1312.520
4473,1313.133
4474,1313.806
4475,1314.530
4476,1315.334
4477,1316.234
4478,1317.177
4479,1318.041
4480,1318.626
4481,1318.778
4482,1318.515
4483,1317.990
4484,1317.376
4485,1316.823
4486,1316.469
4487,1316.445
4488,1316.795
4489,1317.484
4490,1318.415
4491,1319.510
4492,1320.629
4493,1321.600
4494,1322.261
4495,1322.504
4496,1322.237
4497,1321.501
4498,1320.466
4499,1319.331
4500,1318.220
4501,1317.197
4502,1316.341
4503,1315.740
4504,1315.442
4505,1315.398
4506,1315.577
4507,1316.007
4508,1316.600
4509,1317.185
4510,1317.703
4511,1318.232
4512,1318.818
4513,1319.411
4514,1319.924
4515,1320.298
4516,1320.474
4517,1320.398
4518,1320.036
4519,1319.443
4520,1318.718
4521,1317.950
4522,1317.253
4523,1316.724
4524,1316.389
4525,1316.218
4526,1316.190
4527,1316.322
4528,1316.628
4529,1317.110
4530,1317.806
4531,1318.678
4532,1319.498
4533,1319.956
4534,1319.845
4535,1319.156
4536,1318.017
4537,1316.608
4538,1314.980
4539,1312.994
4540,1310.438
4541,1307.297
4542,1303.810
4543,1300.374
4544,1297.412
4545,1295.275
4546,1294.236
4547,1294.419
4548,1295.804
4549,1298.185
4550,1301.202
4551,1304.343
4552,1307.098
4553,1309.160
4554,1310.553
4555,1311.529
4556,1312.289
4557,1312.846
4558,1313.153
4559,1313.256
4560,1313.276
4561,1313.328
4562,1313.519
4563,1314.001
4564,1314.884
4565,1316.142
4566,1317.591
4567,1318.989
4568,1320.131
4569,1320.896
4570,1321.262
4571,1321.274
4572,1321.043
4573,1320.657
4574,1320.171
4575,1319.646
4576,1319.084
4577,1318.431
4578,1317.655
4579,1316.799
4580,1315.939
4581,1315.159
4582,1314.443
4583,1313.575
4584,1312.241
4585,1310.302
4586,1307.926
4587,1305.458
4588,1303.189
4589,1301.218
4590,1299.522
4591,1298.089
4592,1296.955
4593,1296.162
4594,1295.661
4595,1295.295
4596,1294.841
4597,1294.200
4598,1293.444
4599,1292.731
4600,1292.206
4601,1291.947
4602,1292.003
4603,1292.349
4604,1292.914
4605,1293.635
4606,1294.439
4607,1295.195
4608,1295.772
4609,1296.174
4610,1296.505
4611,1296.863
4612,1297.182
4613,1297.257
4614,1296.951
4615,1296.358
4616,1295.677
4617,1295.072
4618,1294.666
4619,1294.574
4620,1294.901
4621,1295.725
4622,1296.955
4623,1298.364
4624,1299.741
4625,1300.940
4626,1301.831
4627,1302.337
4628,1302.528
4629,1302.528
4630,1302.377
4631,1302.102
4632,1301.772
4633,1301.461
4634,1301.202
4635,1301.039
4636,1301.043
4637,1301.365
4638,1302.209
4639,1303.758
4640,1306.007
4641,1308.638
4642,1311.099
4643,1312.830
4644,1313.491
4645,1312.990
4646,1311.421
4647,1309.013
4648,1306.123
4649,1303.236
4650,1300.900
4651,1299.550
4652,1299.427
4653,1300.549
4654,1302.679
4655,1305.354
4656,1308.045
4657,1310.386
4658,1312.245
4659,1313.642
4660,1314.673
4661,1315.501
4662,1316.258
4663,1317.010
4664,1317.751
4665,1318.400
4666,1318.857
4667,1319.021
4668,1318.822
4669,1318.248
4670,1317.361
4671,1316.266
4672,1315.127
4673,1314.140
4674,1313.423
4675,1312.926
4676,1312.476
4677,1311.931
4678,1311.286
4679,1310.661
4680,1310.259
4681,1310.370
4682,1311.298
4683,1313.189
4684,1315.876
4685,1318.937
4686,1321.915
4687,1324.514
4688,1326.564
4689,1327.926
4690,1328.483
4691,1328.153
4692,1326.931
4693,1324.868
4694,1322.114
4695,1318.925
4696,1315.641
4697,1312.524
4698,1309.646
4699,1306.955
4700,1304.447
4701,1302.245
4702,1300.458
4703,1299.053
4704,1297.938
4705,1297.090
4706,1296.624
4707,1296.696
4708,1297.424
4709,1298.790
4710,1300.629
4711,1302.619
4712,1304.403
4713,1305.685
4714,1306.346
4715,1306.417
4716,1306.007
4717,1305.275
4718,1304.407
4719,1303.658
4720,1303.340
4721,1303.726
4722,1304.900
4723,1306.736
4724,1308.921
4725,1311.019
4726,1312.544
4727,1313.121
4728,1312.659
4729,1311.345
4730,1309.594
4731,1307.858
4732,1306.525
4733,1305.804
4734,1305.760
4735,1306.346
4736,1307.424
4737,1308.750
4738,1310.048
4739,1311.162
4740,1312.106
4741,1312.886
4742,1313.451
4743,1313.790
4744,1313.977
4745,1314.041
4746,1313.961
4747,1313.746
4748,1313.384
4749,1312.854
4750,1312.233
4751,1311.688
4752,1311.282
4753,1310.824
4754,1309.980
4755,1308.523
4756,1306.525
4757,1304.315
4758,1302.305
4759,1300.800
4760,1299.964
4761,1299.829
4762,1300.319
4763,1301.258
4764,1302.424
4765,1303.599
4766,1304.682
4767,1305.649
4768,1306.413
4769,1306.851
4770,1306.963
4771,1306.827
4772,1306.493
4773,1306.047
4774,1305.617
4775,1305.263
4776,1304.968
4777,1304.733
4778,1304.586
4779,1304.463
4780,1304.224
4781,1303.798
4782,1303.324
4783,1303.089
4784,1303.388
4785,1304.363
4786,1305.904
4787,1307.723
4788,1309.498
4789,1310.927
4790,1311.759
4791,1311.931
4792,1311.672
4793,1311.409
4794,1311.489
4795,1312.026
4796,1312.990
4797,1314.383
4798,1316.250
4799,1318.483
4800,1320.760
4801,1322.671
4802,1323.917
4803,1324.339
4804,1323.881
4805,1322.591
4806,1320.585
4807,1317.994
4808,1314.944
4809,1311.592
4810,1308.213
4811,1305.076
4812,1302.309
4813,1299.916
4814,1297.910
4815,1296.294
4816,1295.044
4817,1294.144
4818,1293.583
4819,1293.308
4820,1293.213
4821,1293.145
4822,1292.974
4823,1292.655
4824,1292.237
4825,1291.823
4826,1291.569
4827,1291.620
4828,1292.026
4829,1292.783
4830,1293.925
4831,1295.565
4832,1297.834
4833,1300.733
4834,1304.037
4835,1307.432
4836,1310.609
4837,1313.252
4838,1315.119
4839,1316.126
4840,1316.322
4841,1315.892
4842,1315.159
4843,1314.534
4844,1314.323
4845,1314.570
4846,1315.135
4847,1315.872
4848,1316.680
4849,1317.472
4850,1318.212
4851,1318.889
4852,1319.470
4853,1319.928
4854,1320.259
4855,1320.501
4856,1320.780
4857,1321.254
4858,1321.950
4859,1322.747
4860,1323.503
4861,1324.176
4862,1324.681
4863,1324.817
4864,1324.327
4865,1323.053
4866,1320.983
4867,1318.308
4868,1315.358
4869,1312.476
4870,1309.805
4871,1307.357
4872,1305.131
4873,1303.185
4874,1301.501
4875,1300.048
4876,1298.850
4877,1297.970
4878,1297.432
4879,1297.198
4880,1297.217
4881,1297.472
4882,1297.950
4883,1298.647
4884,1299.550
4885,1300.621
4886,1301.815
4887,1303.145
4888,1304.697
4889,1306.560
4890,1308.690
4891,1310.927
4892,1313.025
4893,1314.697
4894,1315.708
4895,1315.979
4896,1315.637
4897,1314.976
4898,1314.315
4899,1313.861
4900,1313.770
4901,1314.152
4902,1315.004
4903,1316.230
4904,1317.751
4905,1319.486
4906,1321.282
4907,1322.878
4908,1324.044
4909,1324.681
4910,1324.833
4911,1324.642
4912,1324.315
4913,1324.021
4914,1323.726
4915,1323.240
4916,1322.424
4917,1321.357
4918,1320.219
4919,1319.088
4920,1317.962
4921,1316.931
4922,1316.190
4923,1315.892
4924,1315.935
4925,1315.995
4926,1315.712
4927,1314.900
4928,1313.642
4929,1312.217
4930,1310.908
4931,1309.837
4932,1308.989
4933,1308.344
4934,1307.914
4935,1307.671
4936,1307.428
4937,1306.943
4938,1306.123
4939,1305.171
4940,1304.514
4941,1304.602
4942,1305.709
4943,1307.806
4944,1310.565
4945,1313.475
4946,1315.983
4947,1317.663
4948,1318.260
4949,1317.751
4950,1316.306
4951,1314.275
4952,1312.150
4953,1310.446
4954,1309.510
4955,1309.447
4956,1310.084
4957,1311.039
4958,1311.919
4959,1312.488
4960,1312.711
4961,1312.779
4962,1312.942
4963,1313.284
4964,1313.630
4965,1313.746
4966,1313.535
4967,1313.085
4968,1312.488
4969,1311.763
4970,1310.920
4971,1310.032
4972,1309.140
4973,1308.308
4974,1307.572
4975,1306.923
4976,1306.314
4977,1305.748
4978,1305.203
4979,1304.666
4980,1304.216
4981,1303.969
4982,1304.033
4983,1304.411
4984,1304.948
4985,1305.370
4986,1305.518
4987,1305.458
4988,1305.418
4989,1305.613
4990,1306.150
4991,1307.074
4992,1308.404
4993,1310.040
4994,1311.744
4995,1313.340
4996,1314.785
4997,1316.055
4998,1317.054
4999,1317.655
5000,1317.878
5001,1317.886
5002,1317.830
5003,1317.798
5004,1317.850
5005,1317.994
5006,1318.169
5007,1318.360
5008,1318.571
5009,1318.682
5010,1318.419
5011,1317.508
5012,1315.820
5013,1313.443
5014,1310.637
5015,1307.767
5016,1305.199
5017,1303.121
5018,1301.461
5019,1299.988
5020,1298.519
5021,1297.070
5022,1295.824
5023,1294.960
5024,1294.491
5025,1294.280
5026,1294.168
5027,1294.065
5028,1293.881
5029,1293.499
5030,1292.882
5031,1292.098
5032,1291.238
5033,1290.370
5034,1289.538
5035,1288.786
5036,1288.121
5037,1287.516
5038,1286.963
5039,1286.425
5040,1285.820
5041,1285.100
5042,1284.371
5043,1283.802
5044,1283.479
5045,1283.396
5046,1283.511
5047,1283.778
5048,1284.160
5049,1284.622
5050,1285.064
5051,1285.414
5052,1285.836
5053,1286.692
5054,1288.348
5055,1291.047
5056,1294.837
5057,1299.514
5058,1304.610
5059,1309.518
5060,1313.730
5061,1316.986
5062,1319.299
5063,1320.856
5064,1321.899
5065,1322.611
5066,1323.105
5067,1323.463
5068,1323.726
5069,1323.877
5070,1323.897
5071,1323.857
5072,1323.821
5073,1323.817
5074,1323.917
5075,1324.267
5076,1324.948
5077,1325.864
5078,1326.811
5079,1327.659
5080,1328.411
5081,1329.072
5082,1329.578
5083,1329.809
5084,1329.630
5085,1328.909
5086,1327.563
5087,1325.561
5088,1322.954
5089,1319.912
5090,1316.751
5091,1313.770
5092,1311.119
5093,1308.794
5094,1306.732
5095,1304.837
5096,1303.025
5097,1301.322
5098,1299.897
5099,1299.005
5100,1298.782
5101,1299.128
5102,1299.777
5103,1300.510
5104,1301.238
5105,1301.919
5106,1302.508
5107,1303.065
5108,1303.750
5109,1304.709
5110,1305.991
5111,1307.548
5112,1309.208
5113,1310.697
5114,1311.712
5115,1312.078
5116,1311.811
5117,1311.146
5118,1310.406
5119,1309.841
5120,1309.586
5121,1309.705
5122,1310.199
5123,1310.971
5124,1311.919
5125,1312.914
5126,1313.814
5127,1314.550
5128,1315.151
5129,1315.597
5130,1315.728
5131,1315.302
5132,1314.088
5133,1311.994
5134,1309.160
5135,1305.896
5136,1302.584
5137,1299.670
5138,1297.588
5139,1296.712
5140,1297.241
5141,1299.124
5142,1302.066
5143,1305.569
5144,1309.064
5145,1311.994
5146,1313.897
5147,1314.498
5148,1313.786
5149,1311.978
5150,1309.486
5151,1306.823
5152,1304.479
5153,1302.755
5154,1301.720
5155,1301.286
5156,1301.334
5157,1301.744
5158,1302.404
5159,1303.252
5160,1304.204
5161,1305.020
5162,1305.394
5163,1305.107
5164,1304.140
5165,1302.703
5166,1301.174
5167,1299.936
5168,1299.252
5169,1299.228
5170,1299.924
5171,1301.401
5172,1303.662
5173,1306.525
5174,1309.650
5175,1312.595
5176,1315.008
5177,1316.803
5178,1318.129
5179,1319.168
5180,1320.016
5181,1320.653
5182,1321.031
5183,1321.095
5184,1320.856
5185,1320.346
5186,1319.582
5187,1318.579
5188,1317.412
5189,1316.218
5190,1315.119
5191,1314.204
5192,1313.467
5193,1312.854
5194,1312.361
5195,1312.078
5196,1312.126
5197,1312.552
5198,1313.368
5199,1314.550
5200,1315.987
5201,1317.456
5202,1318.742
5203,1319.689
5204,1320.219
5205,1320.354
5206,1320.151
5207,1319.673
5208,1319.025
5209,1318.411
5210,1318.053
5211,1318.041
5212,1318.280
5213,1318.638
5214,1319.132
5215,1319.924
5216,1321.150
5217,1322.723
5218,1324.287
5219,1325.418
5220,1325.828
5221,1325.398
5222,1324.168
5223,1322.325
5224,1320.227
5225,1318.348
5226,1317.102
5227,1316.704
5228,1317.241
5229,1318.730
5230,1321.015
5231,1323.714
5232,1326.369
5233,1328.622
5234,1330.251
5235,1331.146
5236,1331.242
5237,1330.485
5238,1328.853
5239,1326.361
5240,1323.093
5241,1319.204
5242,1314.980
5243,1310.800
5244,1307.046
5245,1303.989
5246,1301.644
5247,1299.845
5248,1298.408
5249,1297.194
5250,1296.079
5251,1295.000
5252,1293.937
5253,1292.894
5254,1291.879
5255,1290.956
5256,1290.243
5257,1289.841
5258,1289.797
5259,1290.159
5260,1290.940
5261,1292.082
5262,1293.467
5263,1294.901
5264,1296.162
5265,1297.158
5266,1297.914
5267,1298.491
5268,1298.881
5269,1299.049
5270,1298.961
5271,1298.678
5272,1298.380
5273,1298.260
5274,1298.428
5275,1298.941
5276,1299.781
5277,1300.868
5278,1302.221
5279,1303.933
5280,1305.959
5281,1308.002
5282,1309.666
5283,1310.689
5284,1311.071
5285,1311.067
5286,1311.007
5287,1311.035
5288,1311.055
5289,1310.951
5290,1310.780
5291,1310.677
5292,1310.701
5293,1310.828
5294,1311.027
5295,1311.214
5296,1311.310
5297,1311.286
5298,1311.123
5299,1310.796
5300,1310.310
5301,1309.602
5302,1308.583
5303,1307.289
5304,1305.852
5305,1304.467
5306,1303.288
5307,1302.420
5308,1301.891
5309,1301.712
5310,1301.891
5311,1302.404
5312,1303.121
5313,1303.818
5314,1304.295
5315,1304.447
5316,1304.283
5317,1303.925
5318,1303.471
5319,1302.974
5320,1302.488
5321,1302.086
5322,1301.807
5323,1301.692
5324,1301.708
5325,1301.752
5326,1301.748
5327,1301.744
5328,1301.831
5329,1302.114
5330,1302.695
5331,1303.714
5332,1305.370
5333,1307.842
5334,1311.142
5335,1314.996
5336,1318.925
5337,1322.432
5338,1325.207
5339,1327.106
5340,1328.089
5341,1328.121
5342,1327.173
5343,1325.302
5344,1322.699
5345,1319.725
5346,1316.855
5347,1314.538
5348,1312.990
5349,1312.038
5350,1311.266
5351,1310.279
5352,1308.933
5353,1307.317
5354,1305.569
5355,1303.850
5356,1302.361
5357,1301.290
5358,1300.685
5359,1300.410
5360,1300.299
5361,1300.251
5362,1300.199
5363,1300.072
5364,1299.769
5365,1299.200
5366,1298.400
5367,1297.548
5368,1296.807
5369,1296.274
5370,1295.971
5371,1295.884
5372,1296.007
5373,1296.354
5374,1296.903
5375,1297.631
5376,1298.487
5377,1299.367
5378,1300.072
5379,1300.315
5380,1299.897
5381,1298.858
5382,1297.440
5383,1295.967
5384,1294.662
5385,1293.647
5386,1292.950
5387,1292.588
5388,1292.576
5389,1292.878
5390,1293.344
5391,1293.858
5392,1294.431
5393,1295.151
5394,1296.091
5395,1297.253
5396,1298.599
5397,1300.004
5398,1301.242
5399,1302.130
5400,1302.719
5401,1303.312
5402,1304.299
5403,1305.995
5404,1308.515
5405,1311.708
5406,1315.211
5407,1318.607
5408,1321.529
5409,1323.710
5410,1324.956
5411,1325.147
5412,1324.255
5413,1322.364
5414,1319.681
5415,1316.564
5416,1313.527
5417,1311.083
5418,1309.558
5419,1308.973
5420,1309.140
5421,1309.908
5422,1311.226
5423,1313.005
5424,1314.996
5425,1316.827
5426,1318.149
5427,1318.718
5428,1318.447
5429,1317.440
5430,1315.939
5431,1314.220
5432,1312.384
5433,1310.378
5434,1308.161
5435,1305.856
5436,1303.758
5437,1302.118
5438,1300.991
5439,1300.326
5440,1300.187
5441,1300.780
5442,1302.213
5443,1304.383
5444,1307.002
5445,1309.674
5446,1311.986
5447,1313.638
5448,1314.494
5449,1314.570
5450,1313.965
5451,1312.775
5452,1311.075
5453,1308.945
5454,1306.580
5455,1304.240
5456,1302.178
5457,1300.593
5458,1299.658
5459,1299.423
5460,1299.737
5461,1300.271
5462,1300.725
5463,1301.051
5464,1301.346
5465,1301.624
5466,1301.811
5467,1301.947
5468,1302.237
5469,1302.882
5470,1303.877
5471,1305.012
5472,1306.031
5473,1306.823
5474,1307.472
5475,1308.169
5476,1309.056
5477,1310.095
5478,1311.059
5479,1311.740
5480,1312.189
5481,1312.735
5482,1313.802
5483,1315.637
5484,1318.161
5485,1321.047
5486,1323.913
5487,1326.485
5488,1328.599
5489,1330.151
5490,1331.102
5491,1331.449
5492,1331.238
5493,1330.497
5494,1329.251
5495,1327.591
5496,1325.700
5497,1323.814
5498,1322.173
5499,1320.923
5500,1319.972
5501,1319.088
5502,1318.177
5503,1317.392
5504,1317.002
5505,1317.110
5506,1317.556
5507,1318.017
5508,1318.216
5509,1317.997
5510,1317.345
5511,1316.401
5512,1315.442
5513,1314.745
5514,1314.538
5515,1314.928
5516,1315.860
5517,1317.054
5518,1318.069
5519,1318.443
5520,1317.834
5521,1316.138
5522,1313.555
5523,1310.589
5524,1307.854
5525,1305.812
5526,1304.566
5527,1303.925
5528,1303.595
5529,1303.384
5530,1303.205
5531,1303.029
5532,1302.906
5533,1302.902
5534,1303.014
5535,1303.137
5536,1303.105
5537,1302.886
5538,1302.619
5539,1302.492
5540,1302.596
5541,1302.926
5542,1303.475
5543,1304.248
5544,1305.195
5545,1306.174
5546,1307.074
5547,1307.830
5548,1308.380
5549,1308.722
5550,1309.001
5551,1309.387
5552,1309.885
5553,1310.390
5554,1310.935
5555,1311.736
5556,1313.013
5557,1314.773
5558,1316.755
5559,1318.646
5560,1320.211
5561,1321.258
5562,1321.584
5563,1320.999
5564,1319.407
5565,1316.847
5566,1313.519
5567,1309.789
5568,1306.202
5569,1303.372
5570,1301.772
5571,1301.525
5572,1302.349
5573,1303.702
5574,1305.052
5575,1306.043
5576,1306.521
5577,1306.549
5578,1306.381
5579,1306.322
5580,1306.477
5581,1306.724
5582,1306.863
5583,1306.752
5584,1306.389
5585,1305.987
5586,1305.852
5587,1306.194
5588,1306.959
5589,1307.874
5590,1308.583
5591,1308.694
5592,1307.894
5593,1306.055
5594,1303.308
5595,1299.988
5596,1296.501
5597,1293.241
5598,1290.542
5599,1288.627
5600,1287.620
5601,1287.560
5602,1288.436
5603,1290.171
5604,1292.663
5605,1295.752
5606,1299.168
5607,1302.504
5608,1305.287
5609,1307.086
5610,1307.631
5611,1306.927
5612,1305.259
5613,1303.113
5614,1301.095
5615,1299.733
5616,1299.395
5617,1300.187
5618,1301.955
5619,1304.295
5620,1306.696
5621,1308.658
5622,1309.837
5623,1310.119
5624,1309.681
5625,1308.929
5626,1308.324
5627,1308.117
5628,1308.221
5629,1308.384
5630,1308.467
5631,1308.443
5632,1308.288
5633,1307.966
5634,1307.540
5635,1307.142
5636,1306.783
5637,1306.369
5638,1305.868
5639,1305.370
5640,1305.024
5641,1304.928
5642,1305.028
5643,1305.175
5644,1305.307
5645,1305.454
5646,1305.621
5647,1305.808
5648,1306.154
5649,1306.927
5650,1308.308
5651,1310.211
5652,1312.301
5653,1314.152
5654,1315.370
5655,1315.705
5656,1315.103
5657,1313.722
5658,1311.851
5659,1309.761
5660,1307.599
5661,1305.422
5662,1303.260
5663,1301.123
5664,1299.073
5665,1297.257
5666,1295.792
5667,1294.757
5668,1294.264
5669,1294.443
5670,1295.283
5671,1296.565
5672,1297.978
5673,1299.367
5674,1300.776
5675,1302.237
5676,1303.647
5677,1304.845
5678,1305.641
5679,1305.776
5680,1304.972
5681,1303.149
5682,1300.482
5683,1297.436
5684,1294.630
5685,1292.667
5686,1291.971
5687,1292.775
5688,1295.108
5689,1298.810
5690,1303.447
5691,1308.380
5692,1312.966
5693,1316.736
5694,1319.470
5695,1321.122
5696,1321.704
5697,1321.282
5698,1319.984
5699,1318.049
5700,1315.772
5701,1313.423
5702,1311.194
5703,1309.232
5704,1307.763
5705,1307.098
5706,1307.436
5707,1308.706
5708,1310.581
5709,1312.655
5710,1314.518
5711,1315.748
5712,1315.999
5713,1315.151
5714,1313.336
5715,1310.963
5716,1308.623
5717,1306.871
5718,1306.075
5719,1306.381
5720,1307.731
5721,1309.797
5722,1312.026
5723,1313.897
5724,1315.091
5725,1315.553
5726,1315.362
5727,1314.658
5728,1313.595
5729,1312.420
5730,1311.445
5731,1311.015
5732,1311.425
5733,1312.787
5734,1314.964
5735,1317.548
5736,1319.992
5737,1321.775
5738,1322.548
5739,1322.157
5740,1320.665
5741,1318.336
5742,1315.589
5743,1312.854
5744,1310.378
5745,1308.137
5746,1305.912
5747,1303.495
5748,1300.836
5749,1298.061
5750,1295.315
5751,1292.627
5752,1290.032
5753,1287.651
5754,1285.645
5755,1284.136
5756,1283.225
5757,1282.994
5758,1283.503
5759,1284.789
5760,1286.859
5761,1289.662
5762,1293.065
5763,1296.784
5764,1300.446
5765,1303.746
5766,1306.608
5767,1309.096
5768,1311.198
5769,1312.743
5770,1313.515
5771,1313.380
5772,1312.349
5773,1310.613
5774,1308.535
5775,1306.553
5776,1305.064
5777,1304.371
5778,1304.670
5779,1305.971
5780,1308.061
5781,1310.549
5782,1313.065
5783,1315.430
5784,1317.635
5785,1319.725
5786,1321.712
5787,1323.559
5788,1325.127
5789,1326.222
5790,1326.692
5791,1326.477
5792,1325.625
5793,1324.259
5794,1322.599
5795,1320.931
5796,1319.450
5797,1318.153
5798,1316.887
5799,1315.589
5800,1314.331
5801,1313.256
5802,1312.468
5803,1312.042
5804,1312.062
5805,1312.576
5806,1313.451
5807,1314.470
5808,1315.501
5809,1316.548
5810,1317.603
5811,1318.587
5812,1319.387
5813,1319.888
5814,1319.956
5815,1319.458
5816,1318.312
5817,1316.556
5818,1314.391
5819,1312.142
5820,1310.036
5821,1308.105
5822,1306.250
5823,1304.407
5824,1302.611
5825,1300.983
5826,1299.705
5827,1298.965
5828,1298.818
5829,1299.073
5830,1299.407
5831,1299.602
5832,1299.642
5833,1299.618
5834,1299.614
5835,1299.793
5836,1300.410
5837,1301.664
5838,1303.543
5839,1305.872
5840,1308.439
5841,1311.083
5842,1313.682
5843,1316.095
5844,1318.097
5845,1319.474
5846,1320.087
5847,1319.912
5848,1319.040
5849,1317.703
5850,1316.286
5851,1315.287
5852,1315.139
5853,1315.995
5854,1317.671
5855,1319.737
5856,1321.700
5857,1323.145
5858,1323.817
5859,1323.642
5860,1322.687
5861,1321.099
5862,1319.072
5863,1316.875
5864,1314.916
5865,1313.654
5866,1313.356
5867,1313.917
5868,1314.900
5869,1315.720
5870,1315.908
5871,1315.239
5872,1313.770
5873,1311.811
5874,1309.717
5875,1307.731
5876,1305.959
5877,1304.447
5878,1303.217
5879,1302.281
5880,1301.624
5881,1301.202
5882,1300.955
5883,1300.812
5884,1300.736
5885,1300.733
5886,1300.792
5887,1300.896
5888,1301.015
5889,1301.083
5890,1300.979
5891,1300.653
5892,1300.167
5893,1299.590
5894,1298.913
5895,1298.089
5896,1297.094
5897,1295.932
5898,1294.598
5899,1293.121
5900,1291.604
5901,1290.179
5902,1289.017
5903,1288.372
5904,1288.495
5905,1289.518
5906,1291.397
5907,1293.973
5908,1296.963
5909,1300.004
5910,1302.775
5911,1305.127
5912,1307.014
5913,1308.424
5914,1309.347
5915,1309.785
5916,1309.809
5917,1309.642
5918,1309.650
5919,1310.207
5920,1311.505
5921,1313.372
5922,1315.342
5923,1316.927
5924,1317.842
5925,1318.109
5926,1317.978
5927,1317.755
5928,1317.651
5929,1317.755
5930,1318.097
5931,1318.591
5932,1319.013
5933,1319.040
5934,1318.447
5935,1317.162
5936,1315.247
5937,1312.898
5938,1310.350
5939,1307.795
5940,1305.366
5941,1303.181
5942,1301.350
5943,1300.008
5944,1299.283
5945,1299.291
5946,1300.032
5947,1301.350
5948,1302.942
5949,1304.435
5950,1305.486
5951,1305.884
5952,1305.537
5953,1304.423
5954,1302.552
5955,1300.072
5956,1297.401
5957,1295.108
5958,1293.670
5959,1293.332
5960,1294.148
5961,1296.119
5962,1299.132
5963,1302.878
5964,1306.879
5965,1310.697
5966,1314.096
5967,1317.038
5968,1319.546
5969,1321.668
5970,1323.475
5971,1325.067
5972,1326.513
5973,1327.759
5974,1328.694
5975,1329.204
5976,1329.204
5977,1328.626
5978,1327.456
5979,1325.752
5980,1323.646
5981,1321.341
5982,1319.060
5983,1316.990
5984,1315.231
5985,1313.794
5986,1312.643
5987,1311.724
5988,1310.967
5989,1310.239
5990,1309.387
5991,1308.435
5992,1307.703
5993,1307.631
5994,1308.535
5995,1310.502
5996,1313.400
5997,1316.879
5998,1320.402
5999,1323.411
6000,1325.517
6001,1326.564
6002,1326.600
6003,1325.780
6004,1324.303
6005,1322.325
6006,1319.928
6007,1317.193
6008,1314.263
6009,1311.409
6010,1308.981
6011,1307.305
6012,1306.493
6013,1306.314
6014,1306.302
6015,1305.947
6016,1304.972
6017,1303.455
6018,1301.708
6019,1300.088
6020,1298.846
6021,1298.205
6022,1298.404
6023,1299.578
6024,1301.636
6025,1304.220
6026,1306.803
6027,1308.937
6028,1310.430
6029,1311.369
6030,1312.006
6031,1312.607
6032,1313.344
6033,1314.224
6034,1315.024
6035,1315.406
6036,1315.127
6037,1314.192
6038,1312.834
6039,1311.338
6040,1309.888
6041,1308.563
6042,1307.456
6043,1306.664
6044,1306.150
6045,1305.693
6046,1305.004
6047,1304.025
6048,1303.014
6049,1302.408
6050,1302.528
6051,1303.451
6052,1305.004
6053,1306.815
6054,1308.479
6055,1309.781
6056,1310.705
6057,1311.294
6058,1311.473
6059,1311.154
6060,1310.422
6061,1309.578
6062,1308.945
6063,1308.635
6064,1308.515
6065,1308.392
6066,1308.240
6067,1308.173
6068,1308.300
6069,1308.563
6070,1308.770
6071,1308.694
6072,1308.177
6073,1307.229
6074,1306.059
6075,1304.904
6076,1303.913
6077,1303.197
6078,1302.890
6079,1303.010
6080,1303.424
6081,1303.965
6082,1304.542
6083,1305.088
6084,1305.494
6085,1305.613
6086,1305.370
6087,1304.809
6088,1304.057
6089,1303.205
6090,1302.257
6091,1301.266
6092,1300.299
6093,1299.311
6094,1298.081
6095,1296.469
6096,1294.610
6097,1292.898
6098,1291.756
6099,1291.501
6100,1292.269
6101,1293.997
6102,1296.449
6103,1299.295
6104,1302.305
6105,1305.442
6106,1308.778
6107,1312.285
6108,1315.744
6109,1318.881
6110,1321.461
6111,1323.296
6112,1324.243
6113,1324.232
6114,1323.272
6115,1321.421
6116,1318.798
6117,1315.601
6118,1312.094
6119,1308.475
6120,1304.813
6121,1301.131
6122,1297.460
6123,1293.802
6124,1290.203
6125,1286.859
6126,1284.073
6127,1282.078
6128,1280.960
6129,1280.697
6130,1281.135
6131,1282.022
6132,1283.149
6133,1284.407
6134,1285.709
6135,1286.967
6136,1288.217
6137,1289.710
6138,1291.748
6139,1294.502
6140,1297.882
6141,1301.628
6142,1305.450
6143,1309.148
6144,1312.631
6145,1315.884
6146,1318.885
6147,1321.568
6148,1323.829
6149,1325.633
6150,1327.030
6151,1328.113
6152,1329.005
6153,1329.777
6154,1330.450
6155,1331.043
6156,1331.580
6157,1332.002
6158,1332.213
6159,1332.185
6160,1331.926
6161,1331.457
6162,1330.740
6163,1329.721
6164,1328.332
6165,1326.489
6166,1324.140
6167,1321.361
6168,1318.415
6169,1315.649
6170,1313.356
6171,1311.716
6172,1310.836
6173,1310.724
6174,1311.254
6175,1312.150
6176,1313.113
6177,1313.969
6178,1314.634
6179,1314.968
6180,1314.821
6181,1314.148
6182,1313.065
6183,1311.756
6184,1310.450
6185,1309.371
6186,1308.571
6187,1307.934
6188,1307.333
6189,1306.732
6190,1306.182
6191,1305.713
6192,1305.342
6193,1305.096
6194,1305.052
6195,1305.243
6196,1305.657
6197,1306.306
6198,1307.213
6199,1308.348
6200,1309.650
6201,1311.063
6202,1312.536
6203,1313.997
6204,1315.362
6205,1316.588
6206,1317.615
6207,1318.419
6208,1319.021
6209,1319.474
6210,1319.829
6211,1320.079
6212,1320.223
6213,1320.259
6214,1320.167
6215,1319.912
6216,1319.482
6217,1318.961
6218,1318.527
6219,1318.376
6220,1318.579
6221,1319.036
6222,1319.482
6223,1319.642
6224,1319.419
6225,1318.921
6226,1318.376
6227,1317.978
6228,1317.890
6229,1318.181
6230,1318.746
6231,1319.291
6232,1319.470
6233,1319.100
6234,1318.236
6235,1317.098
6236,1315.939
6237,1314.817
6238,1313.511
6239,1311.688
6240,1309.208
6241,1306.282
6242,1303.360
6243,1300.876
6244,1299.069
6245,1297.978
6246,1297.548
6247,1297.667
6248,1298.177
6249,1298.830
6250,1299.299
6251,1299.276
6252,1298.627
6253,1297.500
6254,1296.230
6255,1295.219
6256,1294.757
6257,1294.928
6258,1295.617
6259,1296.569
6260,1297.520
6261,1298.328
6262,1299.017
6263,1299.717
6264,1300.569
6265,1301.672
6266,1303.037
6267,1304.570
6268,1306.202
6269,1307.918
6270,1309.705
6271,1311.628
6272,1313.837
6273,1316.393
6274,1319.120
6275,1321.739
6276,1324.028
6277,1325.892
6278,1327.333
6279,1328.395
6280,1329.076
6281,1329.291
6282,1328.957
6283,1328.041
6284,1326.620
6285,1324.868
6286,1323.065
6287,1321.477
6288,1320.195
6289,1319.124
6290,1318.029
6291,1316.616
6292,1314.673
6293,1312.233
6294,1309.594
6295,1307.182
6296,1305.330
6297,1304.212
6298,1303.786
6299,1303.842
6300,1304.072
6301,1304.216
6302,1304.164
6303,1303.937
6304,1303.563
6305,1303.065
6306,1302.520
6307,1301.971
6308,1301.389
6309,1300.740
6310,1300.084
6311,1299.530
6312,1299.164
6313,1298.929
6314,1298.686
6315,1298.380
6316,1298.022
6317,1297.651
6318,1297.293
6319,1296.987
6320,1296.764
6321,1296.688
6322,1296.803
6323,1297.162
6324,1297.803
6325,1298.730
6326,1299.928
6327,1301.409
6328,1303.085
6329,1304.709
6330,1306.003
6331,1306.827
6332,1307.241
6333,1307.440
6334,1307.619
6335,1307.799
6336,1307.894
6337,1307.854
6338,1307.683
6339,1307.444
6340,1307.325
6341,1307.588
6342,1308.404
6343,1309.741
6344,1311.393
6345,1313.165
6346,1314.857
6347,1316.254
6348,1317.209
6349,1317.679
6350,1317.635
6351,1316.994
6352,1315.724
6353,1313.917
6354,1311.684
6355,1309.128
6356,1306.457
6357,1304.064
6358,1302.440
6359,1301.947
6360,1302.719
6361,1304.662
6362,1307.484
6363,1310.808
6364,1314.271
6365,1317.540
6366,1320.322
6367,1322.384
6368,1323.583
6369,1323.885
6370,1323.304
6371,1321.923
6372,1319.865
6373,1317.305
6374,1314.411
6375,1311.318
6376,1308.145
6377,1305.143
6378,1302.759
6379,1301.485
6380,1301.680
6381,1303.388
6382,1306.357
6383,1310.099
6384,1314.041
6385,1317.675
6386,1320.665
6387,1322.798
6388,1323.961
6389,1324.096
6390,1323.252
6391,1321.548
6392,1319.220
6393,1316.560
6394,1313.929
6395,1311.688
6396,1310.115
6397,1309.307
6398,1309.136
6399,1309.355
6400,1309.769
6401,1310.302
6402,1310.900
6403,1311.349
6404,1311.357
6405,1310.713
6406,1309.387
6407,1307.492
6408,1305.207
6409,1302.763
6410,1300.537
6411,1298.973
6412,1298.412
6413,1298.977
6414,1300.577
6415,1302.926
6416,1305.537
6417,1307.834
6418,1309.275
6419,1309.494
6420,1308.368
6421,1306.099
6422,1303.201
6423,1300.362
6424,1298.169
6425,1296.931
6426,1296.656
6427,1297.134
6428,1298.077
6429,1299.232
6430,1300.430
6431,1301.656
6432,1303.010
6433,1304.717
6434,1306.986
6435,1309.877
6436,1313.169
6437,1316.425
6438,1319.156
6439,1321.035
6440,1321.998
6441,1322.173
6442,1321.743
6443,1320.860
6444,1319.701
6445,1318.419
6446,1317.082
6447,1315.697
6448,1314.323
6449,1313.053
6450,1311.871
6451,1310.701
6452,1309.463
6453,1308.137
6454,1306.752
6455,1305.410
6456,1304.283
6457,1303.591
6458,1303.539
6459,1304.156
6460,1305.267
6461,1306.568
6462,1307.834
6463,1309.033
6464,1310.219
6465,1311.330
6466,1312.098
6467,1312.209
6468,1311.485
6469,1309.928
6470,1307.691
6471,1305.080
6472,1302.564
6473,1300.629
6474,1299.582
6475,1299.439
6476,1299.924
6477,1300.625
6478,1301.206
6479,1301.509
6480,1301.441
6481,1301.043
6482,1300.541
6483,1300.271
6484,1300.494
6485,1301.234
6486,1302.269
6487,1303.264
6488,1303.869
6489,1303.830
6490,1303.069
6491,1301.740
6492,1300.100
6493,1298.408
6494,1296.931
6495,1295.928
6496,1295.585
6497,1295.979
6498,1297.026
6499,1298.543
6500,1300.398
6501,1302.576
6502,1305.000
6503,1307.436
6504,1309.542
6505,1310.967
6506,1311.497
6507,1311.075
6508,1309.821
6509,1307.998
6510,1305.935
6511,1303.909
6512,1302.054
6513,1300.358
6514,1298.738
6515,1297.158
6516,1295.729
6517,1294.658
6518,1294.168
6519,1294.407
6520,1295.418
6521,1297.062
6522,1299.053
6523,1301.083
6524,1302.914
6525,1304.283
6526,1304.900
6527,1304.562
6528,1303.340
6529,1301.584
6530,1299.809
6531,1298.424
6532,1297.556
6533,1297.126
6534,1297.014
6535,1297.146
6536,1297.412
6537,1297.739
6538,1298.181
6539,1298.969
6540,1300.338
6541,1302.377
6542,1304.877
6543,1307.448
6544,1309.670
6545,1311.206
6546,1311.787
6547,1311.341
6548,1310.064
6549,1308.348
6550,1306.608
6551,1305.123
6552,1304.021
6553,1303.368
6554,1303.161
6555,1303.288
6556,1303.631
6557,1304.116
6558,1304.614
6559,1304.984
6560,1305.215
6561,1305.478
6562,1306.055
6563,1307.197
6564,1309.017
6565,1311.357
6566,1313.885
6567,1316.214
6568,1318.069
6569,1319.287
6570,1319.849
6571,1319.857
6572,1319.522
6573,1319.076
6574,1318.670
6575,1318.260
6576,1317.651
6577,1316.596
6578,1314.912
6579,1312.532
6580,1309.570
6581,1306.334
6582,1303.260
6583,1300.752
6584,1299.001
6585,1297.954
6586,1297.504
6587,1297.635
6588,1298.308
6589,1299.299
6590,1300.255
6591,1300.928
6592,1301.334
6593,1301.684
6594,1302.122
6595,1302.528
6596,1302.615
6597,1302.225
6598,1301.485
6599,1300.701
6600,1300.135
6601,1299.968
6602,1300.426
6603,1301.688
6604,1303.714
6605,1306.234
6606,1308.881
6607,1311.357
6608,1313.503
6609,1315.263
6610,1316.664
6611,1317.711
6612,1318.312
6613,1318.296
6614,1317.536
6615,1316.071
6616,1314.068
6617,1311.740
6618,1309.311
6619,1306.959
6620,1304.674
6621,1302.337
6622,1299.944
6623,1297.779
6624,1296.226
6625,1295.585
6626,1295.952
6627,1297.245
6628,1299.200
6629,1301.441
6630,1303.543
6631,1305.179
6632,1306.234
6633,1306.752
6634,1306.843
6635,1306.644
6636,1306.270
6637,1305.864
6638,1305.573
6639,1305.462
6640,1305.557
6641,1305.900
6642,1306.473
6643,1307.205
6644,1308.041
6645,1308.997
6646,1310.056
6647,1311.063
6648,1311.775
6649,1312.066
6650,1312.018
6651,1311.835
6652,1311.684
6653,1311.672
6654,1311.799
6655,1312.046
6656,1312.468
6657,1313.177
6658,1314.267
6659,1315.740
6660,1317.464
6661,1319.108
6662,1320.243
6663,1320.521
6664,1319.749
6665,1317.946
6666,1315.294
6667,1312.166
6668,1309.021
6669,1306.266
6670,1304.140
6671,1302.687
6672,1301.791
6673,1301.350
6674,1301.385
6675,1302.006
6676,1303.205
6677,1304.697
6678,1306.035
6679,1306.803
6680,1306.831
6681,1306.206
6682,1305.139
6683,1303.826
6684,1302.460
6685,1301.342
6686,1300.824
6687,1301.139
6688,1302.249
6689,1303.905
6690,1305.832
6691,1307.795
6692,1309.550
6693,1310.856
6694,1311.497
6695,1311.417
6696,1310.752
6697,1309.697
6698,1308.348
6699,1306.791
6700,1305.199
6701,1303.742
6702,1302.484
6703,1301.393
6704,1300.482
6705,1299.773
6706,1299.295
6707,1299.017
6708,1298.858
6709,1298.782
6710,1298.786
6711,1298.854
6712,1298.965
6713,1299.148
6714,1299.435
6715,1299.801
6716,1300.123
6717,1300.211
6718,1299.988
6719,1299.570
6720,1299.140
6721,1298.746
6722,1298.316
6723,1297.862
6724,1297.476
6725,1297.162
6726,1296.847
6727,1296.529
6728,1296.262
6729,1296.079
6730,1296.011
6731,1296.027
6732,1296.071
6733,1296.139
6734,1296.334
6735,1296.795
6736,1297.580
6737,1298.595
6738,1299.682
6739,1300.697
6740,1301.565
6741,1302.285
6742,1302.942
6743,1303.627
6744,1304.343
6745,1305.036
6746,1305.629
6747,1306.039
6748,1306.202
6749,1306.142
6750,1306.011
6751,1305.995
6752,1306.238
6753,1306.859
6754,1307.938
6755,1309.538
6756,1311.644
6757,1313.997
6758,1316.178
6759,1317.838
6760,1318.849
6761,1319.275
6762,1319.391
6763,1319.614
6764,1320.310
6765,1321.540
6766,1323.005
6767,1324.251
6768,1324.868
6769,1324.649
6770,1323.622
6771,1322.026
6772,1320.279
6773,1318.818
6774,1317.874
6775,1317.321
6776,1316.771
6777,1315.836
6778,1314.311
6779,1312.265
6780,1310.004
6781,1307.938
6782,1306.342
6783,1305.291
6784,1304.749
6785,1304.630
6786,1304.829
6787,1305.211
6788,1305.541
6789,1305.525
6790,1304.956
6791,1303.877
6792,1302.552
6793,1301.290
6794,1300.215
6795,1299.224
6796,1298.129
6797,1296.931
6798,1295.848
6799,1295.179
6800,1295.127
6801,1295.772
6802,1297.094
6803,1299.041
6804,1301.541
6805,1304.403
6806,1307.269
6807,1309.781
6808,1311.720
6809,1313.089
6810,1314.072
6811,1314.928
6812,1315.796
6813,1316.572
6814,1317.050
6815,1317.134
6816,1316.899
6817,1316.465
6818,1315.892
6819,1315.163
6820,1314.267
6821,1313.300
6822,1312.496
6823,1312.142
6824,1312.412
6825,1313.292
6826,1314.574
6827,1315.896
6828,1316.966
6829,1317.723
6830,1318.240
6831,1318.523
6832,1318.396
6833,1317.623
6834,1316.059
6835,1313.774
6836,1311.055
6837,1308.320
6838,1305.924
6839,1304.057
6840,1302.795
6841,1302.186
6842,1302.229
6843,1302.818
6844,1303.770
6845,1304.873
6846,1305.916
6847,1306.748
6848,1307.329
6849,1307.723
6850,1308.029
6851,1308.392
6852,1309.017
6853,1310.195
6854,1312.074
6855,1314.514
6856,1317.142
6857,1319.514
6858,1321.206
6859,1321.863
6860,1321.254
6861,1319.303
6862,1316.150
6863,1312.181
6864,1307.958
6865,1304.021
6866,1300.752
6867,1298.340
6868,1296.883
6869,1296.401
6870,1296.867
6871,1298.121
6872,1299.897
6873,1301.831
6874,1303.527
6875,1304.674
6876,1305.163
6877,1305.052
6878,1304.482
6879,1303.631
6880,1302.667
6881,1301.708
6882,1300.852
6883,1300.179
6884,1299.705
6885,1299.395
6886,1299.160
6887,1298.973
6888,1298.877
6889,1298.969
6890,1299.272
6891,1299.694
6892,1300.147
6893,1300.581
6894,1300.999
6895,1301.437
6896,1301.943
6897,1302.556
6898,1303.213
6899,1303.786
6900,1304.184
6901,1304.395
6902,1304.526
6903,1304.745
6904,1305.111
6905,1305.609
6906,1306.222
6907,1306.899
6908,1307.516
6909,1307.902
6910,1307.970
6911,1307.779
6912,1307.484
6913,1307.205
6914,1307.010
6915,1306.935
6916,1306.967
6917,1307.042
6918,1307.126
6919,1307.166
6920,1307.086
6921,1306.859
6922,1306.596
6923,1306.397
6924,1306.246
6925,1306.079
6926,1305.888
6927,1305.681
6928,1305.406
6929,1305.060
6930,1304.709
6931,1304.367
6932,1303.957
6933,1303.404
6934,1302.691
6935,1301.815
6936,1300.796
6937,1299.690
6938,1298.527
6939,1297.397
6940,1296.481
6941,1295.971
6942,1295.963
6943,1296.509
6944,1297.568
6945,1299.001
6946,1300.645
6947,1302.377
6948,1304.057
6949,1305.545
6950,1306.704
6951,1307.408
6952,1307.611
6953,1307.404
6954,1306.919
6955,1306.318
6956,1305.764
6957,1305.382
6958,1305.199
6959,1305.199
6960,1305.342
6961,1305.569
6962,1305.844
6963,1306.139
6964,1306.413
6965,1306.700
6966,1307.018
6967,1307.377
6968,1307.759
6969,1308.153
6970,1308.591
6971,1309.116
6972,1309.753
6973,1310.561
6974,1311.600
6975,1312.866
6976,1314.347
6977,1316.039
6978,1317.910
6979,1319.960
6980,1322.209
6981,1324.550
6982,1326.751
6983,1328.634
6984,1330.147
6985,1331.305
6986,1332.169
6987,1332.854
6988,1333.543
6989,1334.399
6990,1335.509
6991,1336.835
6992,1338.204
6993,1339.363
6994,1340.095
6995,1340.286
6996,1339.948
6997,1339.192
6998,1338.188
6999,1337.058
7000,1335.756
7001,1334.076
7002,1331.815
7003,1328.889
7004,1325.382
7005,1321.517
7006,1317.611
7007,1313.921
7008,1310.557
7009,1307.492
7010,1304.689
7011,1302.102
7012,1299.598
7013,1297.010
7014,1294.288
7015,1291.585
7016,1289.108
7017,1286.951
7018,1285.147
7019,1283.838
7020,1283.292
7021,1283.706
7022,1285.036
7023,1286.979
7024,1289.069
7025,1290.888
7026,1292.213
7027,1293.077
7028,1293.682
7029,1294.244
7030,1294.873
7031,1295.613
7032,1296.453
7033,1297.333
7034,1298.201
7035,1299.057
7036,1299.897
7037,1300.717
7038,1301.580
7039,1302.552
7040,1303.658
7041,1304.881
7042,1306.178
7043,1307.468
7044,1308.595
7045,1309.459
7046,1310.060
7047,1310.414
7048,1310.533
7049,1310.454
7050,1310.338
7051,1310.529
7052,1311.405
7053,1313.157
7054,1315.685
7055,1318.615
7056,1321.457
7057,1323.786
7058,1325.330
7059,1325.983
7060,1325.792
7061,1324.920
7062,1323.603
7063,1322.146
7064,1320.852
7065,1319.892
7066,1319.216
7067,1318.626
7068,1317.894
7069,1316.815
7070,1315.199
7071,1312.942
7072,1310.131
7073,1307.090
7074,1304.275
7075,1302.138
7076,1300.967
7077,1300.804
7078,1301.497
7079,1302.854
7080,1304.650
7081,1306.549
7082,1308.129
7083,1309.096
7084,1309.443
7085,1309.383
7086,1309.096
7087,1308.591
7088,1307.830
7089,1306.963
7090,1306.361
7091,1306.445
7092,1307.412
7093,1309.080
7094,1310.967
7095,1312.492
7096,1313.236
7097,1313.045
7098,1312.030
7099,1310.422
7100,1308.475
7101,1306.445
7102,1304.598
7103,1303.217
7104,1302.619
7105,1303.014
7106,1304.303
7107,1306.087
7108,1307.834
7109,1309.200
7110,1310.139
7111,1310.812
7112,1311.294
7113,1311.469
7114,1311.174
7115,1310.374
7116,1309.156
7117,1307.568
7118,1305.689
7119,1303.770
7120,1302.213
7121,1301.342
7122,1301.266
7123,1301.879
7124,1302.970
7125,1304.367
7126,1305.939
7127,1307.512
7128,1308.937
7129,1310.195
7130,1311.345
7131,1312.552
7132,1314.025
7133,1315.872
7134,1317.954
7135,1319.936
7136,1321.532
7137,1322.587
7138,1323.041
7139,1322.950
7140,1322.428
7141,1321.564
7142,1320.422
7143,1319.068
7144,1317.623
7145,1316.206
7146,1314.853
7147,1313.555
7148,1312.377
7149,1311.457
7150,1310.884
7151,1310.637
7152,1310.764
7153,1311.373
7154,1312.548
7155,1314.188
7156,1315.991
7157,1317.627
7158,1318.929
7159,1319.912
7160,1320.637
7161,1321.035
7162,1320.951
7163,1320.235
7164,1318.814
7165,1316.732
7166,1314.108
7167,1311.134
7168,1308.025
7169,1304.932
7170,1301.975
7171,1299.315
7172,1297.245
7173,1296.162
7174,1296.429
7175,1298.213
7176,1301.342
7177,1305.374
7178,1309.713
7179,1313.806
7180,1317.233
7181,1319.765
7182,1321.329
7183,1322.002
7184,1321.911
7185,1321.254
7186,1320.294
7187,1319.287
7188,1318.415
7189,1317.814
7190,1317.579
7191,1317.655
7192,1317.870
7193,1318.121
7194,1318.439
7195,1318.833
7196,1319.228
7197,1319.542
7198,1319.761
7199,1319.872
7200,1319.880
7201,1319.797
7202,1319.630
7203,1319.363
7204,1318.925
7205,1318.185
7206,1317.038
7207,1315.490
7208,1313.611
7209,1311.560
7210,1309.586
7211,1307.990
7212,1307.054
7213,1306.967
7214,1307.751
7215,1309.172
7216,1310.840
7217,1312.384
7218,1313.627
7219,1314.526
7220,1315.159
7221,1315.728
7222,1316.473
7223,1317.492
7224,1318.662
7225,1319.745
7226,1320.541
7227,1320.951
7228,1320.919
7229,1320.382
7230,1319.275
7231,1317.568
7232,1315.291
7233,1312.540
7234,1309.498
7235,1306.497
7236,1304.005
7237,1302.416
7238,1301.863
7239,1302.142
7240,1302.830
7241,1303.527
7242,1304.033
7243,1304.387
7244,1304.745
7245,1305.215
7246,1305.796
7247,1306.473
7248,1307.245
7249,1308.057
7250,1308.778
7251,1309.291
7252,1309.542
7253,1309.558
7254,1309.467
7255,1309.423
7256,1309.550
7257,1309.900
7258,1310.438
7259,1311.031
7260,1311.541
7261,1311.827
7262,1311.831
7263,1311.624
7264,1311.405
7265,1311.393
7266,1311.775
7267,1312.659
7268,1314.132
7269,1316.266
7270,1319.001
7271,1322.086
7272,1325.067
7273,1327.504
7274,1329.092
7275,1329.693
7276,1329.291
7277,1327.942
7278,1325.748
7279,1322.842
7280,1319.423
7281,1315.792
7282,1312.313
7283,1309.232
7284,1306.584
7285,1304.295
7286,1302.293
7287,1300.537
7288,1299.088
7289,1298.193
7290,1298.109
7291,1298.945
7292,1300.605
7293,1302.783
7294,1305.008
7295,1306.756
7296,1307.599
7297,1307.333
7298,1305.979
7299,1303.822
7300,1301.358
7301,1299.164
7302,1297.639
7303,1296.927
7304,1296.994
7305,1297.735
7306,1298.953
7307,1300.366
7308,1301.708
7309,1302.854
7310,1303.846
7311,1304.833
7312,1305.947
7313,1307.241
7314,1308.686
7315,1310.231
7316,1311.775
7317,1313.181
7318,1314.303
7319,1315.008
7320,1315.255
7321,1315.131
7322,1314.793
7323,1314.363
7324,1313.893
7325,1313.384
7326,1312.850
7327,1312.337
7328,1311.931
7329,1311.644
7330,1311.477
7331,1311.441
7332,1311.580
7333,1311.839
7334,1312.002
7335,1311.783
7336,1311.059
7337,1309.972
7338,1308.838
7339,1308.033
7340,1307.902
7341,1308.583
7342,1309.956
7343,1311.771
7344,1313.778
7345,1315.693
7346,1317.177
7347,1317.942
7348,1317.882
7349,1317.122
7350,1315.959
7351,1314.729
7352,1313.630
7353,1312.671
7354,1311.799
7355,1311.111
7356,1310.796
7357,1310.983
7358,1311.600
7359,1312.456
7360,1313.435
7361,1314.534
7362,1315.697
7363,1316.823
7364,1317.878
7365,1318.897
7366,1319.876
7367,1320.677
7368,1321.095
7369,1320.915
7370,1320.000
7371,1318.360
7372,1316.154
7373,1313.583
7374,1310.868
7375,1308.217
7376,1305.784
7377,1303.726
7378,1302.225
7379,1301.397
7380,1301.151
7381,1301.274
7382,1301.561
7383,1301.875
7384,1302.134
7385,1302.313
7386,1302.472
7387,1302.643
7388,1302.787
7389,1302.759
7390,1302.424
7391,1301.764
7392,1300.896
7393,1300.000
7394,1299.283
7395,1298.937
7396,1299.057
7397,1299.642
7398,1300.709
7399,1302.357
7400,1304.614
7401,1307.341
7402,1310.271
7403,1313.137
7404,1315.689
7405,1317.735
7406,1319.136
7407,1319.801
7408,1319.685
7409,1318.758
7410,1317.038
7411,1314.685
7412,1312.038
7413,1309.590
7414,1307.834
7415,1307.066
7416,1307.237
7417,1308.033
7418,1309.076
7419,1310.064
7420,1310.768
7421,1311.075
7422,1311.007
7423,1310.685
7424,1310.275
7425,1310.028
7426,1310.279
7427,1311.302
7428,1313.077
7429,1315.322
7430,1317.643
7431,1319.681
7432,1321.154
7433,1321.907
7434,1321.899
7435,1321.230
7436,1320.083
7437,1318.622
7438,1316.974
7439,1315.342
7440,1313.969
7441,1313.025
7442,1312.584
7443,1312.731
7444,1313.531
7445,1314.892
7446,1316.521
7447,1318.025
7448,1319.036
7449,1319.295
7450,1318.666
7451,1317.221
7452,1315.243
7453,1313.097
7454,1311.011
7455,1309.056
7456,1307.193
7457,1305.338
7458,1303.471
7459,1301.704
7460,1300.223
7461,1299.240
7462,1298.846
7463,1298.957
7464,1299.395
7465,1300.036
7466,1300.836
7467,1301.712
7468,1302.512
7469,1303.109
7470,1303.535
7471,1303.929
7472,1304.490
7473,1305.390
7474,1306.628
7475,1308.037
7476,1309.443
7477,1310.649
7478,1311.389
7479,1311.381
7480,1310.529
7481,1308.977
7482,1307.026
7483,1304.948
7484,1302.934
7485,1301.166
7486,1299.904
7487,1299.399
7488,1299.773
7489,1300.975
7490,1302.747
7491,1304.733
7492,1306.648
7493,1308.384
7494,1309.920
7495,1311.170
7496,1312.086
7497,1312.791
7498,1313.499
7499,1314.387
7500,1315.593
7501,1317.249
7502,1319.375
7503,1321.791
7504,1324.212
7505,1326.421
7506,1328.304
7507,1329.781
7508,1330.752
7509,1331.134
7510,1330.884
7511,1329.996
7512,1328.475
7513,1326.341
7514,1323.698
7515,1320.796
7516,1317.997
7517,1315.645
7518,1313.973
7519,1313.193
7520,1313.511
7521,1315.004
7522,1317.480
7523,1320.505
7524,1323.567
7525,1326.274
7526,1328.388
7527,1329.813
7528,1330.517
7529,1330.497
7530,1329.773
7531,1328.372
7532,1326.337
7533,1323.734
7534,1320.673
7535,1317.353
7536,1314.021
7537,1310.896
7538,1308.189
7539,1306.194
7540,1305.231
7541,1305.434
7542,1306.700
7543,1308.694
7544,1310.963
7545,1313.081
7546,1314.781
7547,1315.999
7548,1316.847
7549,1317.552
7550,1318.451
7551,1319.837
7552,1321.747
7553,1323.925
7554,1325.971
7555,1327.556
7556,1328.451
7557,1328.539
7558,1327.767
7559,1326.166
7560,1323.841
7561,1321.023
7562,1318.073
7563,1315.482
7564,1313.746
7565,1313.157
7566,1313.634
7567,1314.717
7568,1315.772
7569,1316.314
7570,1316.182
7571,1315.541
7572,1314.765
7573,1314.208
7574,1314.068
7575,1314.415
7576,1315.294
7577,1316.700
7578,1318.431
7579,1320.087
7580,1321.314
7581,1321.982
7582,1322.245
7583,1322.448
7584,1322.894
7585,1323.610
7586,1324.339
7587,1324.729
7588,1324.526
7589,1323.587
7590,1321.891
7591,1319.530
7592,1316.700
7593,1313.627
7594,1310.422
7595,1307.098
7596,1303.710
7597,1300.486
7598,1297.779
7599,1295.852
7600,1294.761
7601,1294.315
7602,1294.208
7603,1294.228
7604,1294.315
7605,1294.455
7606,1294.554
7607,1294.538
7608,1294.506
7609,1294.674
7610,1295.116
7611,1295.705
7612,1296.278
7613,1296.744
7614,1297.046
7615,1297.174
7616,1297.213
7617,1297.237
7618,1297.233
7619,1297.182
7620,1297.142
7621,1297.201
7622,1297.412
7623,1297.787
7624,1298.213
7625,1298.459
7626,1298.352
7627,1297.966
7628,1297.588
7629,1297.588
7630,1298.209
7631,1299.566
7632,1301.632
7633,1304.240
7634,1307.018
7635,1309.542
7636,1311.545
7637,1313.005
7638,1314.005
7639,1314.570
7640,1314.725
7641,1314.578
7642,1314.244
7643,1313.826
7644,1313.423
7645,1313.121
7646,1312.926
7647,1312.783
7648,1312.675
7649,1312.619
7650,1312.647
7651,1312.802
7652,1313.161
7653,1313.786
7654,1314.697
7655,1315.884
7656,1317.380
7657,1319.184
7658,1321.170
7659,1323.065
7660,1324.634
7661,1325.752
7662,1326.317
7663,1326.198
7664,1325.290
7665,1323.591
7666,1321.230
7667,1318.475
7668,1315.685
7669,1313.173
7670,1311.083
7671,1309.474
7672,1308.459
7673,1308.125
7674,1308.447
7675,1309.248
7676,1310.283
7677,1311.393
7678,1312.588
7679,1313.929
7680,1315.390
7681,1316.819
7682,1318.045
7683,1318.953
7684,1319.506
7685,1319.821
7686,1320.131
7687,1320.661
7688,1321.461
7689,1322.388
7690,1323.264
7691,1323.949
7692,1324.371
7693,1324.542
7694,1324.534
7695,1324.454
7696,1324.411
7697,1324.466
7698,1324.586
7699,1324.649
7700,1324.514
7701,1324.048
7702,1323.169
7703,1321.831
7704,1320.099
7705,1318.089
7706,1315.951
7707,1313.873
7708,1312.042
7709,1310.553
7710,1309.351
7711,1308.396
7712,1307.739
7713,1307.440
7714,1307.516
7715,1307.890
7716,1308.412
7717,1308.909
7718,1309.283
7719,1309.542
7720,1309.757
7721,1309.980
7722,1310.255
7723,1310.609
7724,1311.059
7725,1311.604
7726,1312.261
7727,1313.041
7728,1313.873
7729,1314.642
7730,1315.298
7731,1315.884
7732,1316.417
7733,1316.847
7734,1317.102
7735,1317.130
7736,1316.903
7737,1316.525
7738,1316.278
7739,1316.465
7740,1317.185
7741,1318.244
7742,1319.247
7743,1319.868
7744,1320.004
7745,1319.805
7746,1319.590
7747,1319.757
7748,1320.613
7749,1322.229
7750,1324.391
7751,1326.704
7752,1328.778
7753,1330.318
7754,1331.138
7755,1331.095
7756,1330.123
7757,1328.200
7758,1325.402
7759,1321.911
7760,1318.025
7761,1314.116
7762,1310.502
7763,1307.353
7764,1304.721
7765,1302.671
7766,1301.274
7767,1300.533
7768,1300.378
7769,1300.717
7770,1301.433
7771,1302.341
7772,1303.232
7773,1304.017
7774,1304.765
7775,1305.633
7776,1306.756
7777,1308.105
7778,1309.435
7779,1310.426
7780,1310.856
7781,1310.705
7782,1310.147
7783,1309.431
7784,1308.698
7785,1307.914
7786,1307.062
7787,1306.294
7788,1305.800
7789,1305.657
7790,1305.844
7791,1306.294
7792,1306.919
7793,1307.572
7794,1308.185
7795,1308.790
7796,1309.419
7797,1310.084
7798,1310.784
7799,1311.556
7800,1312.448
7801,1313.471
7802,1314.558
7803,1315.545
7804,1316.282
7805,1316.664
7806,1316.656
7807,1316.302
7808,1315.744
7809,1315.135
7810,1314.582
7811,1314.136
7812,1313.834
7813,1313.670
7814,1313.579
7815,1313.427
7816,1313.101
7817,1312.595
7818,1311.959
7819,1311.166
7820,1310.159
7821,1309.017
7822,1308.033
7823,1307.564
7824,1307.822
7825,1308.786
7826,1310.175
7827,1311.592
7828,1312.679
7829,1313.264
7830,1313.400
7831,1313.201
7832,1312.679
7833,1311.803
7834,1310.677
7835,1309.534
7836,1308.615
7837,1308.073
7838,1307.942
7839,1308.145
7840,1308.447
7841,1308.563
7842,1308.312
7843,1307.687
7844,1306.835
7845,1305.991
7846,1305.275
7847,1304.618
7848,1303.889
7849,1303.125
7850,1302.536
7851,1302.337
7852,1302.532
7853,1303.025
7854,1303.778
7855,1304.813
7856,1306.083
7857,1307.416
7858,1308.730
7859,1310.064
7860,1311.433
7861,1312.771
7862,1314.048
7863,1315.322
7864,1316.612
7865,1317.798
7866,1318.658
7867,1319.025
7868,1318.857
7869,1318.292
7870,1317.536
7871,1316.744
7872,1315.999
7873,1315.426
7874,1315.231
7875,1315.501
7876,1316.047
7877,1316.453
7878,1316.333
7879,1315.470
7880,1313.921
7881,1312.038
7882,1310.342
7883,1309.295
7884,1309.049
7885,1309.403
7886,1309.896
7887,1310.088
7888,1309.773
7889,1309.021
7890,1307.958
7891,1306.660
7892,1305.175
7893,1303.619
7894,1302.046
7895,1300.474
7896,1299.057
7897,1298.105
7898,1297.898
7899,1298.515
7900,1299.833
7901,1301.604
7902,1303.603
7903,1305.641
7904,1307.540
7905,1309.160
7906,1310.549
7907,1311.871
7908,1313.201
7909,1314.435
7910,1315.446
7911,1316.250
7912,1317.022
7913,1317.986
7914,1319.243
7915,1320.744
7916,1322.384
7917,1324.056
7918,1325.545
7919,1326.572
7920,1326.919
7921,1326.473
7922,1325.211
7923,1323.240
7924,1320.816
7925,1318.316
7926,1316.130
7927,1314.538
7928,1313.642
7929,1313.427
7930,1313.778
7931,1314.435
7932,1315.040
7933,1315.366
7934,1315.390
7935,1315.171
7936,1314.677
7937,1313.778
7938,1312.440
7939,1310.824
7940,1309.232
7941,1307.918
7942,1307.046
7943,1306.672
7944,1306.732
7945,1307.070
7946,1307.580
7947,1308.173
7948,1308.746
7949,1309.248
7950,1309.697
7951,1310.099
7952,1310.394
7953,1310.529
7954,1310.462
7955,1310.195
7956,1309.797
7957,1309.439
7958,1309.343
7959,1309.658
7960,1310.334
7961,1311.254
7962,1312.317
7963,1313.360
7964,1314.172
7965,1314.598
7966,1314.610
7967,1314.279
7968,1313.778
7969,1313.248
7970,1312.795
7971,1312.508
7972,1312.400
7973,1312.313
7974,1311.978
7975,1311.274
7976,1310.330
7977,1309.455
7978,1308.869
7979,1308.670
7980,1308.897
7981,1309.542
7982,1310.422
7983,1311.146
7984,1311.290
7985,1310.669
7986,1309.478
7987,1308.109
7988,1306.899
7989,1305.963
7990,1305.279
7991,1304.765
7992,1304.355
7993,1303.925
7994,1303.376
7995,1302.691
7996,1301.871
7997,1300.908
7998,1299.865
7999,1298.913
8000,1298.189
8001,1297.739
8002,1297.608
8003,1297.914
8004,1298.730
8005,1299.944
8006,1301.230
8007,1302.225
8008,1302.739
8009,1302.803
8010,1302.631
8011,1302.504
8012,1302.600
8013,1302.946
8014,1303.535
8015,1304.347
8016,1305.311
8017,1306.338
8018,1307.317
8019,1308.077
8020,1308.447
8021,1308.435
8022,1308.256
8023,1308.109
8024,1308.069
8025,1308.137
8026,1308.308
8027,1308.599
8028,1309.068
8029,1309.845
8030,1311.059
8031,1312.783
8032,1314.996
8033,1317.496
8034,1319.916
8035,1321.871
8036,1323.093
8037,1323.455
8038,1323.001
8039,1321.891
8040,1320.279
8041,1318.224
8042,1315.716
8043,1312.830
8044,1309.713
8045,1306.505
8046,1303.344
8047,1300.506
8048,1298.352
8049,1297.146
8050,1296.899
8051,1297.341
8052,1298.002
8053,1298.479
8054,1298.599
8055,1298.340
8056,1297.659
8057,1296.449
8058,1294.670
8059,1292.353
8060,1289.554
8061,1286.370
8062,1282.978
8063,1279.642
8064,1276.636
8065,1274.200
8066,1272.536
8067,1271.756
8068,1271.816
8069,1272.524
8070,1273.671
8071,1275.116
8072,1276.768
8073,1278.571
8074,1280.466
8075,1282.261
8076,1283.778
8077,1284.992
8078,1286.023
8079,1287.007
8080,1287.986
8081,1289.009
8082,1290.219
8083,1291.831
8084,1294.033
8085,1296.899
8086,1300.342
8087,1304.140
8088,1308.077
8089,1312.026
8090,1315.888
8091,1319.642
8092,1323.364
8093,1327.122
8094,1330.852
8095,1334.367
8096,1337.412
8097,1339.737
8098,1341.174
8099,1341.791
8100,1341.843
8101,1341.596
8102,1341.186
8103,1340.668
8104,1340.083
8105,1339.490
8106,1338.949
8107,1338.523
8108,1338.304
8109,1338.372
8110,1338.670
8111,1338.961
8112,1338.937
8113,1338.360
8114,1337.094
8115,1335.095
8116,1332.392
8117,1329.048
8118,1325.139
8119,1320.820
8120,1316.429
8121,1312.428
8122,1309.232
8123,1307.066
8124,1305.979
8125,1305.928
8126,1306.775
8127,1308.284
8128,1310.251
8129,1312.615
8130,1315.318
8131,1318.161
8132,1320.848
8133,1323.117
8134,1324.777
8135,1325.728
8136,1325.943
8137,1325.422
8138,1324.228
8139,1322.575
8140,1320.776
8141,1319.084
8142,1317.627
8143,1316.505
8144,1315.884
8145,1315.844
8146,1316.226
8147,1316.700
8148,1317.002
8149,1317.114
8150,1317.154
8151,1317.193
8152,1317.193
8153,1317.114
8154,1317.086
8155,1317.349
8156,1318.029
8157,1319.001
8158,1319.948
8159,1320.525
8160,1320.430
8161,1319.494
8162,1317.699
8163,1315.243
8164,1312.496
8165,1309.825
8166,1307.532
8167,1305.840
8168,1304.857
8169,1304.526
8170,1304.678
8171,1305.052
8172,1305.370
8173,1305.470
8174,1305.338
8175,1305.004
8176,1304.494
8177,1303.857
8178,1303.113
8179,1302.345
8180,1301.736
8181,1301.421
8182,1301.373
8183,1301.473
8184,1301.644
8185,1301.851
8186,1302.078
8187,1302.277
8188,1302.361
8189,1302.217
8190,1301.772
8191,1300.868
8192,1299.256
8193,1296.736
8194,1293.352
8195,1289.439
8196,1285.466
8197,1281.804
8198,1278.619
8199,1275.988
8200,1273.957
8201,1272.532
8202,1271.609
8203,1271.027
8204,1270.578
8205,1270.072
8206,1269.499
8207,1269.061
8208,1268.961
8209,1269.240
8210,1269.761
8211,1270.331
8212,1270.737
8213,1270.781
8214,1270.398
8215,1269.730
8216,1269.101
8217,1268.846
8218,1269.164
8219,1270.128
8220,1271.796
8221,1274.204
8222,1277.222
8223,1280.494
8224,1283.575
8225,1286.206
8226,1288.452
8227,1290.609
8228,1292.970
8229,1295.633
8230,1298.479
8231,1301.365
8232,1304.156
8233,1306.632
8234,1308.483
8235,1309.478
8236,1309.606
8237,1309.045
8238,1308.021
8239,1306.736
8240,1305.386
8241,1304.204
8242,1303.376
8243,1302.922
8244,1302.683
8245,1302.444
8246,1302.018
8247,1301.270
8248,1300.199
8249,1298.949
8250,1297.623
8251,1296.155
8252,1294.435
8253,1292.452
8254,1290.323
8255,1288.141
8256,1286.039
8257,1284.160
8258,1282.659
8259,1281.704
8260,1281.425
8261,1281.760
8262,1282.492
8263,1283.428
8264,1284.554
8265,1285.940
8266,1287.560
8267,1289.212
8268,1290.649
8269,1291.684
8270,1292.269
8271,1292.512
8272,1292.635
8273,1292.862
8274,1293.280
8275,1293.826
8276,1294.439
8277,1295.100
8278,1295.812
8279,1296.588
8280,1297.428
8281,1298.400
8282,1299.606
8283,1301.087
8284,1302.807
8285,1304.729
8286,1306.863
8287,1309.184
8288,1311.529
8289,1313.698
8290,1315.649
8291,1317.492
8292,1319.299
8293,1321.023
8294,1322.556
8295,1323.817
8296,1324.757
8297,1325.378
8298,1325.744
8299,1326.015
8300,1326.389
8301,1326.970
8302,1327.711
8303,1328.431
8304,1328.973
8305,1329.299
8306,1329.498
8307,1329.618
8308,1329.685
8309,1329.721
8310,1329.765
8311,1329.813
8312,1329.880
8313,1330.059
8314,1330.489
8315,1331.274
8316,1332.364
8317,1333.515
8318,1334.407
8319,1334.809
8320,1334.661
8321,1334.001
8322,1332.890
8323,1331.413
8324,1329.645
8325,1327.695
8326,1325.780
8327,1324.235
8328,1323.388
8329,1323.403
8330,1324.251
8331,1325.820
8332,1327.966
8333,1330.517
8334,1333.228
8335,1335.844
8336,1338.264
8337,1340.501
8338,1342.531
8339,1344.323
8340,1345.947
8341,1347.563
8342,1349.223
8343,1350.848
8344,1352.308
8345,1353.467
8346,1354.183
8347,1354.351
8348,1353.941
8349,1352.949
8350,1351.381
8351,1349.335
8352,1347.010
8353,1344.621
8354,1342.348
8355,1340.338
8356,1338.670
8357,1337.285
8358,1335.983
8359,1334.478
8360,1332.520
8361,1329.896
8362,1326.473
8363,1322.269
8364,1317.492
8365,1312.396
8366,1307.158
8367,1301.907
8368,1296.839
8369,1292.237
8370,1288.376
8371,1285.370
8372,1283.129
8373,1281.394
8374,1279.861
8375,1278.320
8376,1276.728
8377,1275.132
8378,1273.559
8379,1272.023
8380,1270.462
8381,1268.758
8382,1266.836
8383,1264.686
8384,1262.329
8385,1259.917
8386,1257.811
8387,1256.430
8388,1255.988
8389,1256.418
8390,1257.488
8391,1258.961
8392,1260.609
8393,1262.170
8394,1263.416
8395,1264.268
8396,1264.785
8397,1265.132
8398,1265.498
8399,1265.956
8400,1266.473
8401,1266.987
8402,1267.480
8403,1267.934
8404,1268.308
8405,1268.575
8406,1268.742
8407,1268.830
8408,1268.866
8409,1268.870
8410,1268.850
8411,1268.762
8412,1268.507
8413,1267.946
8414,1266.987
8415,1265.558
8416,1263.643
8417,1261.314
8418,1258.782
8419,1256.402
8420,1254.602
8421,1253.707
8422,1253.774
8423,1254.586
8424,1255.769
8425,1256.967
8426,1257.930
8427,1258.551
8428,1258.898
8429,1259.172
8430,1259.670
8431,1260.665
8432,1262.337
8433,1264.785
8434,1267.978
8435,1271.740
8436,1275.824
8437,1280.000
8438,1284.041
8439,1287.616
8440,1290.394
8441,1292.217
8442,1293.161
8443,1293.463
8444,1293.432
8445,1293.320
8446,1293.209
8447,1293.018
8448,1292.639
8449,1292.078
8450,1291.465
8451,1291.039
8452,1290.952
8453,1291.210
8454,1291.704
8455,1292.313
8456,1292.954
8457,1293.559
8458,1294.073
8459,1294.463
8460,1294.733
8461,1294.928
8462,1295.187
8463,1295.673
8464,1296.513
8465,1297.771
8466,1299.443
8467,1301.461
8468,1303.611
8469,1305.486
8470,1306.700
8471,1307.018
8472,1306.369
8473,1304.829
8474,1302.675
8475,1300.330
8476,1298.189
8477,1296.481
8478,1295.251
8479,1294.435
8480,1293.893
8481,1293.400
8482,1292.755
8483,1291.859
8484,1290.729
8485,1289.451
8486,1288.193
8487,1287.126
8488,1286.230
8489,1285.319
8490,1284.216
8491,1282.910
8492,1281.529
8493,1280.223
8494,1279.212
8495,1278.762
8496,1279.081
8497,1280.179
8498,1281.863
8499,1283.850
8500,1285.904
8501,1287.843
8502,1289.447
8503,1290.585
8504,1291.318
8505,1291.875
8506,1292.472
8507,1293.276
8508,1294.411
8509,1295.952
8510,1297.934
8511,1300.334
8512,1303.117
8513,1306.310
8514,1309.928
8515,1313.734
8516,1317.253
8517,1320.016
8518,1321.751
8519,1322.428
8520,1322.209
8521,1321.433
8522,1320.541
8523,1319.928
8524,1319.745
8525,1319.861
8526,1320.008
8527,1319.948
8528,1319.586
8529,1318.933
8530,1318.085
8531,1317.169
8532,1316.369
8533,1315.792
8534,1315.330
8535,1314.753
8536,1313.965
8537,1313.073
8538,1312.213
8539,1311.465
8540,1310.896
8541,1310.517
8542,1310.302
8543,1310.199
8544,1310.115
8545,1309.980
8546,1309.753
8547,1309.395
8548,1308.913
8549,1308.348
8550,1307.775
8551,1307.233
8552,1306.708
8553,1306.158
8554,1305.565
8555,1304.984
8556,1304.502
8557,1304.204
8558,1304.124
8559,1304.315
8560,1304.817
8561,1305.557
8562,1306.357
8563,1307.110
8564,1307.870
8565,1308.722
8566,1309.642
8567,1310.609
8568,1311.648
8569,1312.703
8570,1313.599
8571,1314.172
8572,1314.363
8573,1314.259
8574,1314.116
8575,1314.220
8576,1314.769
8577,1315.832
8578,1317.464
8579,1319.737
8580,1322.607
8581,1325.820
8582,1328.969
8583,1331.636
8584,1333.503
8585,1334.347
8586,1334.040
8587,1332.548
8588,1329.920
8589,1326.349
8590,1322.221
8591,1318.137
8592,1314.833
8593,1312.922
8594,1312.715
8595,1314.140
8596,1316.811
8597,1320.115
8598,1323.396
8599,1326.110
8600,1327.914
8601,1328.650
8602,1328.308
8603,1326.978
8604,1324.821
8605,1322.086
8606,1319.116
8607,1316.238
8608,1313.615
8609,1311.254
8610,1309.148
8611,1307.329
8612,1305.848
8613,1304.797
8614,1304.268
8615,1304.252
8616,1304.654
8617,1305.287
8618,1305.939
8619,1306.485
8620,1306.895
8621,1307.110
8622,1307.042
8623,1306.588
8624,1305.709
8625,1304.494
8626,1303.221
8627,1302.162
8628,1301.405
8629,1300.844
8630,1300.398
8631,1300.155
8632,1300.243
8633,1300.709
8634,1301.481
8635,1302.448
8636,1303.483
8637,1304.530
8638,1305.625
8639,1306.831
8640,1308.197
8641,1309.745
8642,1311.545
8643,1313.690
8644,1316.166
8645,1318.790
8646,1321.409
