'sample interval','wrist_ppg'
'0.00390625 sec','mV'
0,1210.915
1,1214.886
2,1218.649
3,1221.929
4,1224.609
5,1226.647
6,1228.064
7,1228.951
8,1229.414
9,1229.581
10,1229.572
11,1229.485
12,1229.356
13,1229.139
14,1228.843
15,1228.597
16,1228.568
17,1228.789
18,1229.147
19,1229.526
20,1229.881
21,1230.156
22,1230.360
23,1230.689
24,1231.448
25,1232.848
26,1234.844
27,1237.136
28,1239.312
29,1241.004
30,1241.962
31,1242.066
32,1241.291
33,1239.720
34,1237.574
35,1235.215
36,1233.069
37,1231.473
38,1230.589
39,1230.368
40,1230.568
41,1230.843
42,1230.939
43,1230.802
44,1230.531
45,1230.256
46,1230.051
47,1229.935
48,1229.893
49,1229.910
50,1229.993
51,1230.085
52,1230.060
53,1229.872
54,1229.597
55,1229.314
56,1228.985
57,1228.493
58,1227.776
59,1226.934
60,1226.105
61,1225.351
62,1224.671
63,1224.125
64,1223.775
65,1223.684
66,1223.875
67,1224.334
68,1224.971
69,1225.655
70,1226.259
71,1226.755
72,1227.143
73,1227.451
74,1227.764
75,1228.109
76,1228.397
77,1228.497
78,1228.397
79,1228.180
80,1227.876
81,1227.376
82,1226.563
83,1225.492
84,1224.375
85,1223.404
86,1222.650
87,1222.096
88,1221.717
89,1221.454
90,1221.196
91,1220.762
92,1220.000
93,1218.916
94,1217.732
95,1216.749
96,1216.207
97,1216.195
98,1216.645
99,1217.395
100,1218.270
101,1219.133
102,1219.862
103,1220.320
104,1220.395
105,1220.075
106,1219.499
107,1218.924
108,1218.603
109,1218.649
110,1219.037
111,1219.687
112,1220.541
113,1221.617
114,1223.025
115,1224.846
116,1227.013
117,1229.276
118,1231.327
119,1232.898
120,1233.852
121,1234.186
122,1233.973
123,1233.377
124,1232.627
125,1231.902
126,1231.239
127,1230.589
128,1229.964
129,1229.506
130,1229.351
131,1229.501
132,1229.839
133,1230.289
134,1230.881
135,1231.643
136,1232.564
137,1233.606
138,1234.648
139,1235.473
140,1235.903
141,1235.898
142,1235.586
143,1235.119
144,1234.573
145,1233.981
146,1233.415
147,1232.952
148,1232.652
149,1232.544
150,1232.623
151,1232.848
152,1233.044
153,1232.998
154,1232.610
155,1231.923
156,1231.035
157,1230.018
158,1228.951
159,1227.897
160,1226.901
161,1226.092
162,1225.655
163,1225.667
164,1226.030
165,1226.501
166,1226.888
167,1227.172
168,1227.513
169,1228.114
170,1229.051
171,1230.268
172,1231.610
173,1232.969
174,1234.340
175,1235.728
176,1237.074
177,1238.241
178,1239.132
179,1239.757
180,1240.162
181,1240.345
182,1240.303
183,1240.053
184,1239.641
185,1239.078
186,1238.270
187,1237.107
188,1235.578
189,1233.769
190,1231.727
191,1229.460
192,1227.038
193,1224.588
194,1222.288
195,1220.312
196,1218.787
197,1217.766
198,1217.270
199,1217.274
200,1217.737
201,1218.570
202,1219.675
203,1220.900
204,1222.075
205,1223.079
206,1223.854
207,1224.388
208,1224.700
209,1224.800
210,1224.684
211,1224.371
212,1223.913
213,1223.342
214,1222.671
215,1221.971
216,1221.283
217,1220.612
218,1219.912
219,1219.224
220,1218.699
221,1218.491
222,1218.599
223,1218.870
224,1219.112
225,1219.224
226,1219.195
227,1219.054
228,1218.866
229,1218.745
230,1218.804
231,1219.083
232,1219.554
233,1220.108
234,1220.591
235,1220.875
236,1220.950
237,1220.825
238,1220.512
239,1220.079
240,1219.650
241,1219.362
242,1219.283
243,1219.379
244,1219.575
245,1219.825
246,1220.137
247,1220.521
248,1220.908
249,1221.191
250,1221.321
251,1221.350
252,1221.433
253,1221.742
254,1222.346
255,1223.179
256,1224.092
257,1224.946
258,1225.617
259,1226.034
260,1226.188
261,1226.063
262,1225.676
263,1225.092
264,1224.405
265,1223.675
266,1222.983
267,1222.421
268,1222.096
269,1222.100
270,1222.446
271,1223.013
272,1223.688
273,1224.375
274,1224.892
275,1224.963
276,1224.363
277,1223.054
278,1221.216
279,1219.133
280,1217.049
281,1215.099
282,1213.386
283,1212.098
284,1211.419
285,1211.460
286,1212.277
287,1213.844
288,1216.045
289,1218.683
290,1221.558
291,1224.521
292,1227.409
293,1230.022
294,1232.169
295,1233.769
296,1234.861
297,1235.527
298,1235.786
299,1235.557
300,1234.748
301,1233.344
302,1231.402
303,1229.055
304,1226.522
305,1224.130
306,1222.196
307,1220.900
308,1220.187
309,1219.833
310,1219.633
311,1219.558
312,1219.770
313,1220.471
314,1221.746
315,1223.534
316,1225.651
317,1227.859
318,1229.943
319,1231.718
320,1233.035
321,1233.798
322,1233.998
323,1233.731
324,1233.169
325,1232.523
326,1231.964
327,1231.539
328,1231.235
329,1231.106
330,1231.227
331,1231.568
332,1231.873
333,1231.768
334,1230.989
335,1229.518
336,1227.605
337,1225.626
338,1223.917
339,1222.704
340,1222.096
341,1222.125
342,1222.746
343,1223.825
344,1225.155
345,1226.551
346,1227.993
347,1229.526
348,1231.131
349,1232.689
350,1234.077
351,1235.111
352,1235.569
353,1235.327
354,1234.461
355,1233.265
356,1232.127
357,1231.318
358,1230.927
359,1230.927
360,1231.302
361,1231.998
362,1232.894
363,1233.894
364,1235.032
365,1236.357
366,1237.778
367,1239.132
368,1240.283
369,1241.133
370,1241.549
371,1241.470
372,1240.962
373,1240.178
374,1239.291
375,1238.382
376,1237.374
377,1236.115
378,1234.565
379,1232.848
380,1231.168
381,1229.760
382,1228.855
383,1228.564
384,1228.864
385,1229.660
386,1230.818
387,1232.119
388,1233.248
389,1233.890
390,1233.869
391,1233.252
392,1232.302
393,1231.431
394,1231.022
395,1231.331
396,1232.389
397,1234.015
398,1235.882
399,1237.611
400,1238.870
401,1239.424
402,1239.220
403,1238.391
404,1237.253
405,1236.161
406,1235.344
407,1234.902
408,1234.894
409,1235.311
410,1236.007
411,1236.765
412,1237.382
413,1237.799
414,1238.111
415,1238.499
416,1239.099
417,1239.903
418,1240.737
419,1241.354
420,1241.633
421,1241.591
422,1241.279
423,1240.728
424,1239.987
425,1239.066
426,1237.974
427,1236.807
428,1235.778
429,1235.065
430,1234.765
431,1234.848
432,1235.219
433,1235.844
434,1236.732
435,1237.865
436,1239.216
437,1240.745
438,1242.404
439,1244.071
440,1245.471
441,1246.330
442,1246.467
443,1245.842
444,1244.475
445,1242.437
446,1239.916
447,1237.274
448,1234.944
449,1233.265
450,1232.360
451,1232.110
452,1232.148
453,1232.002
454,1231.268
455,1229.810
456,1227.805
457,1225.646
458,1223.763
459,1222.496
460,1222.050
461,1222.525
462,1223.917
463,1226.105
464,1228.830
465,1231.698
466,1234.231
467,1236.028
468,1236.890
469,1236.815
470,1235.907
471,1234.323
472,1232.202
473,1229.731
474,1227.109
475,1224.563
476,1222.325
477,1220.587
478,1219.508
479,1219.179
480,1219.583
481,1220.566
482,1221.837
483,1223.004
484,1223.717
485,1223.842
486,1223.529
487,1223.038
488,1222.533
489,1222.058
490,1221.579
491,1221.071
492,1220.516
493,1219.962
494,1219.449
495,1218.995
496,1218.566
497,1218.108
498,1217.603
499,1217.107
500,1216.641
501,1216.199
502,1215.824
503,1215.570
504,1215.420
505,1215.299
506,1215.140
507,1214.928
508,1214.703
509,1214.553
510,1214.482
511,1214.390
512,1214.186
513,1213.865
514,1213.448
515,1213.007
516,1212.648
517,1212.477
518,1212.561
519,1212.907
520,1213.457
521,1214.115
522,1214.765
523,1215.274
524,1215.590
525,1215.749
526,1215.815
527,1215.795
528,1215.674
529,1215.470
530,1215.174
531,1214.753
532,1214.165
533,1213.473
534,1212.861
535,1212.511
536,1212.536
537,1212.944
538,1213.603
539,1214.324
540,1215.032
541,1215.765
542,1216.536
543,1217.249
544,1217.841
545,1218.333
546,1218.737
547,1218.991
548,1219.033
549,1218.904
550,1218.708
551,1218.474
552,1218.149
553,1217.757
554,1217.382
555,1217.037
556,1216.653
557,1216.241
558,1215.990
559,1216.145
560,1216.874
561,1218.149
562,1219.750
563,1221.308
564,1222.471
565,1223.075
566,1223.167
567,1222.875
568,1222.300
569,1221.542
570,1220.796
571,1220.279
572,1220.108
573,1220.241
574,1220.471
575,1220.558
576,1220.408
577,1220.150
578,1220.062
579,1220.341
580,1221.012
581,1221.937
582,1222.938
583,1223.913
584,1224.834
585,1225.601
586,1226.072
587,1226.155
588,1225.867
589,1225.242
590,1224.230
591,1222.854
592,1221.321
593,1219.991
594,1219.133
595,1218.812
596,1218.883
597,1219.124
598,1219.341
599,1219.420
600,1219.308
601,1219.112
602,1219.095
603,1219.524
604,1220.533
605,1222.062
606,1223.871
607,1225.655
608,1227.159
609,1228.330
610,1229.222
611,1229.826
612,1230.014
613,1229.651
614,1228.755
615,1227.538
616,1226.355
617,1225.576
618,1225.505
619,1226.322
620,1228.064
621,1230.618
622,1233.744
623,1237.074
624,1240.174
625,1242.641
626,1244.225
627,1244.883
628,1244.763
629,1244.154
630,1243.354
631,1242.537
632,1241.741
633,1241.016
634,1240.474
635,1240.137
636,1239.895
637,1239.645
638,1239.428
639,1239.374
640,1239.541
641,1239.882
642,1240.299
643,1240.691
644,1240.991
645,1241.187
646,1241.308
647,1241.420
648,1241.574
649,1241.808
650,1242.145
651,1242.575
652,1243.016
653,1243.412
654,1243.712
655,1243.892
656,1244.062
657,1244.429
658,1245.113
659,1246.017
660,1246.884
661,1247.488
662,1247.755
663,1247.734
664,1247.596
665,1247.534
666,1247.688
667,1248.017
668,1248.367
669,1248.567
670,1248.559
671,1248.388
672,1248.205
673,1248.167
674,1248.372
675,1248.780
676,1249.222
677,1249.493
678,1249.434
679,1248.984
680,1248.163
681,1247.080
682,1245.954
683,1245.067
684,1244.642
685,1244.717
686,1245.146
687,1245.709
688,1246.204
689,1246.475
690,1246.425
691,1246.046
692,1245.404
693,1244.633
694,1243.896
695,1243.321
696,1242.962
697,1242.783
698,1242.683
699,1242.529
700,1242.195
701,1241.549
702,1240.508
703,1239.091
704,1237.445
705,1235.778
706,1234.319
707,1233.244
708,1232.619
709,1232.352
710,1232.277
711,1232.273
712,1232.285
713,1232.235
714,1232.035
715,1231.689
716,1231.289
717,1230.885
718,1230.522
719,1230.260
720,1230.089
721,1229.951
722,1229.785
723,1229.560
724,1229.330
725,1229.247
726,1229.406
727,1229.793
728,1230.356
729,1230.972
730,1231.464
731,1231.693
732,1231.639
733,1231.368
734,1230.981
735,1230.522
736,1229.935
737,1229.151
738,1228.272
739,1227.522
740,1227.072
741,1226.909
742,1226.897
743,1226.926
744,1227.001
745,1227.184
746,1227.468
747,1227.818
748,1228.180
749,1228.493
750,1228.639
751,1228.493
752,1228.039
753,1227.359
754,1226.530
755,1225.584
756,1224.567
757,1223.571
758,1222.683
759,1221.987
760,1221.575
761,1221.487
762,1221.667
763,1222.033
764,1222.517
765,1223.092
766,1223.671
767,1224.138
768,1224.375
769,1224.392
770,1224.305
771,1224.196
772,1224.080
773,1223.963
774,1223.850
775,1223.734
776,1223.625
777,1223.521
778,1223.392
779,1223.204
780,1222.950
781,1222.625
782,1222.246
783,1221.787
784,1221.221
785,1220.571
786,1219.895
787,1219.258
788,1218.733
789,1218.420
790,1218.420
791,1218.808
792,1219.583
793,1220.683
794,1221.954
795,1223.171
796,1224.113
797,1224.646
798,1224.734
799,1224.413
800,1223.767
801,1222.917
802,1221.987
803,1221.125
804,1220.500
805,1220.229
806,1220.320
807,1220.683
808,1221.112
809,1221.367
810,1221.358
811,1221.171
812,1220.912
813,1220.641
814,1220.370
815,1220.108
816,1219.825
817,1219.545
818,1219.354
819,1219.287
820,1219.287
821,1219.220
822,1218.987
823,1218.558
824,1217.958
825,1217.228
826,1216.411
827,1215.536
828,1214.619
829,1213.707
830,1212.823
831,1211.973
832,1211.227
833,1210.777
834,1210.848
835,1211.565
836,1212.932
837,1214.807
838,1216.924
839,1218.966
840,1220.725
841,1222.196
842,1223.513
843,1224.730
844,1225.763
845,1226.513
846,1226.938
847,1227.080
848,1227.038
849,1226.980
850,1227.076
851,1227.459
852,1228.122
853,1228.976
854,1229.901
855,1230.781
856,1231.506
857,1231.993
858,1232.173
859,1232.010
860,1231.560
861,1230.943
862,1230.277
863,1229.664
864,1229.172
865,1228.822
866,1228.568
867,1228.384
868,1228.239
869,1228.118
870,1227.993
871,1227.851
872,1227.697
873,1227.572
874,1227.468
875,1227.330
876,1227.130
877,1226.893
878,1226.651
879,1226.397
880,1226.105
881,1225.763
882,1225.434
883,1225.246
884,1225.321
885,1225.688
886,1226.305
887,1227.059
888,1227.830
889,1228.539
890,1229.114
891,1229.539
892,1229.843
893,1230.085
894,1230.306
895,1230.560
896,1230.897
897,1231.364
898,1231.956
899,1232.623
900,1233.294
901,1233.894
902,1234.394
903,1234.740
904,1234.815
905,1234.556
906,1234.044
907,1233.431
908,1232.831
909,1232.314
910,1231.918
911,1231.673
912,1231.610
913,1231.743
914,1232.056
915,1232.464
916,1232.906
917,1233.394
918,1233.936
919,1234.565
920,1235.369
921,1236.415
922,1237.603
923,1238.691
924,1239.449
925,1239.762
926,1239.678
927,1239.341
928,1238.832
929,1238.140
930,1237.207
931,1236.061
932,1234.840
933,1233.748
934,1232.881
935,1232.239
936,1231.827
937,1231.685
938,1231.823
939,1232.164
940,1232.539
941,1232.764
942,1232.735
943,1232.514
944,1232.206
945,1231.843
946,1231.418
947,1230.964
948,1230.535
949,1230.076
950,1229.451
951,1228.610
952,1227.701
953,1226.959
954,1226.505
955,1226.347
956,1226.459
957,1226.855
958,1227.559
959,1228.564
960,1229.710
961,1230.685
962,1231.110
963,1230.747
964,1229.610
965,1227.976
966,1226.259
967,1224.805
968,1223.775
969,1223.167
970,1222.896
971,1222.867
972,1222.954
973,1223.050
974,1223.138
975,1223.279
976,1223.600
977,1224.213
978,1225.201
979,1226.530
980,1228.076
981,1229.626
982,1231.006
983,1232.069
984,1232.723
985,1232.965
986,1232.831
987,1232.335
988,1231.502
989,1230.389
990,1229.105
991,1227.847
992,1226.901
993,1226.538
994,1226.901
995,1227.930
996,1229.356
997,1230.789
998,1231.843
999,1232.264
1000,1232.031
1001,1231.360
1002,1230.647
1003,1230.285
1004,1230.472
1005,1231.143
1006,1232.023
1007,1232.727
1008,1232.881
1009,1232.277
1010,1230.922
1011,1229.026
1012,1226.876
1013,1224.738
1014,1222.792
1015,1221.116
1016,1219.641
1017,1218.228
1018,1216.770
1019,1215.282
1020,1213.869
1021,1212.644
1022,1211.690
1023,1211.073
1024,1210.869
1025,1211.127
1026,1211.886
1027,1213.144
1028,1214.857
1029,1216.920
1030,1219.170
1031,1221.412
1032,1223.467
1033,1225.196
1034,1226.488
1035,1227.197
1036,1227.163
1037,1226.317
1038,1224.788
1039,1222.883
1040,1220.958
1041,1219.262
1042,1217.891
1043,1216.828
1044,1216.020
1045,1215.465
1046,1215.195
1047,1215.240
1048,1215.640
1049,1216.420
1050,1217.587
1051,1219.083
1052,1220.750
1053,1222.379
1054,1223.713
1055,1224.530
1056,1224.780
1057,1224.663
1058,1224.505
1059,1224.521
1060,1224.746
1061,1225.046
1062,1225.263
1063,1225.380
1064,1225.467
1065,1225.576
1066,1225.676
1067,1225.763
1068,1225.909
1069,1226.105
1070,1226.234
1071,1226.159
1072,1225.855
1073,1225.401
1074,1224.909
1075,1224.471
1076,1224.100
1077,1223.709
1078,1223.246
1079,1222.725
1080,1222.233
1081,1221.892
1082,1221.783
1083,1221.887
1084,1222.087
1085,1222.200
1086,1222.092
1087,1221.696
1088,1221.029
1089,1220.212
1090,1219.433
1091,1218.774
1092,1218.245
1093,1217.899
1094,1217.920
1095,1218.478
1096,1219.608
1097,1221.175
1098,1222.875
1099,1224.334
1100,1225.238
1101,1225.496
1102,1225.230
1103,1224.650
1104,1223.896
1105,1223.063
1106,1222.267
1107,1221.696
1108,1221.508
1109,1221.729
1110,1222.212
1111,1222.738
1112,1223.134
1113,1223.334
1114,1223.371
1115,1223.296
1116,1223.138
1117,1222.904
1118,1222.608
1119,1222.271
1120,1221.875
1121,1221.425
1122,1220.950
1123,1220.521
1124,1220.179
1125,1219.904
1126,1219.604
1127,1219.149
1128,1218.395
1129,1217.266
1130,1215.853
1131,1214.399
1132,1213.215
1133,1212.544
1134,1212.482
1135,1212.986
1136,1213.907
1137,1215.032
1138,1216.161
1139,1217.112
1140,1217.770
1141,1218.087
1142,1218.066
1143,1217.745
1144,1217.241
1145,1216.786
1146,1216.620
1147,1216.803
1148,1217.253
1149,1217.845
1150,1218.478
1151,1219.087
1152,1219.625
1153,1220.066
1154,1220.400
1155,1220.658
1156,1220.900
1157,1221.179
1158,1221.512
1159,1221.900
1160,1222.346
1161,1222.804
1162,1223.167
1163,1223.400
1164,1223.542
1165,1223.625
1166,1223.684
1167,1223.779
1168,1223.904
1169,1223.959
1170,1223.850
1171,1223.604
1172,1223.392
1173,1223.396
1174,1223.721
1175,1224.375
1176,1225.351
1177,1226.601
1178,1227.984
1179,1229.276
1180,1230.197
1181,1230.543
1182,1230.247
1183,1229.426
1184,1228.309
1185,1227.188
1186,1226.305
1187,1225.767
1188,1225.521
1189,1225.384
1190,1225.217
1191,1225.055
1192,1225.088
1193,1225.517
1194,1226.430
1195,1227.772
1196,1229.330
1197,1230.802
1198,1231.918
1199,1232.556
1200,1232.802
1201,1232.839
1202,1232.769
1203,1232.535
1204,1232.039
1205,1231.214
1206,1229.993
1207,1228.334
1208,1226.276
1209,1224.000
1210,1221.762
1211,1219.783
1212,1218.195
1213,1217.049
1214,1216.378
1215,1216.224
1216,1216.616
1217,1217.549
1218,1218.958
1219,1220.716
1220,1222.646
1221,1224.471
1222,1225.880
1223,1226.651
1224,1226.763
1225,1226.372
1226,1225.626
1227,1224.613
1228,1223.463
1229,1222.413
1230,1221.712
1231,1221.533
1232,1221.929
1233,1222.821
1234,1224.030
1235,1225.330
1236,1226.542
1237,1227.618
1238,1228.614
1239,1229.564
1240,1230.372
1241,1230.947
1242,1231.343
1243,1231.823
1244,1232.648
1245,1233.906
1246,1235.444
1247,1237.007
1248,1238.357
1249,1239.366
1250,1239.962
1251,1240.145
1252,1239.982
1253,1239.645
1254,1239.378
1255,1239.374
1256,1239.649
1257,1240.074
1258,1240.512
1259,1240.828
1260,1240.849
1261,1240.378
1262,1239.291
1263,1237.620
1264,1235.561
1265,1233.444
1266,1231.648
1267,1230.481
1268,1230.064
1269,1230.285
1270,1230.914
1271,1231.773
1272,1232.731
1273,1233.635
1274,1234.286
1275,1234.611
1276,1234.740
1277,1234.965
1278,1235.482
1279,1236.257
1280,1237.036
1281,1237.524
1282,1237.540
1283,1237.115
1284,1236.432
1285,1235.715
1286,1235.090
1287,1234.581
1288,1234.202
1289,1233.898
1290,1233.569
1291,1233.098
1292,1232.431
1293,1231.618
1294,1230.781
1295,1229.981
1296,1229.222
1297,1228.526
1298,1228.014
1299,1227.780
1300,1227.809
1301,1227.976
1302,1228.130
1303,1228.209
1304,1228.234
1305,1228.239
1306,1228.189
1307,1228.009
1308,1227.730
1309,1227.576
1310,1227.839
1311,1228.693
1312,1230.106
1313,1231.831
1314,1233.502
1315,1234.819
1316,1235.615
1317,1235.878
1318,1235.653
1319,1235.048
1320,1234.227
1321,1233.331
1322,1232.460
1323,1231.643
1324,1230.797
1325,1229.789
1326,1228.614
1327,1227.422
1328,1226.380
1329,1225.588
1330,1225.046
1331,1224.700
1332,1224.505
1333,1224.484
1334,1224.688
1335,1225.101
1336,1225.571
1337,1225.872
1338,1225.801
1339,1225.246
1340,1224.200
1341,1222.779
1342,1221.125
1343,1219.362
1344,1217.591
1345,1215.928
1346,1214.499
1347,1213.373
1348,1212.582
1349,1212.077
1350,1211.823
1351,1211.806
1352,1212.019
1353,1212.465
1354,1213.202
1355,1214.274
1356,1215.624
1357,1217.066
1358,1218.312
1359,1219.108
1360,1219.370
1361,1219.187
1362,1218.712
1363,1218.045
1364,1217.232
1365,1216.420
1366,1215.861
1367,1215.757
1368,1216.120
1369,1216.782
1370,1217.520
1371,1218.095
1372,1218.299
1373,1218.049
1374,1217.437
1375,1216.691
1376,1215.999
1377,1215.395
1378,1214.807
1379,1214.186
1380,1213.519
1381,1212.823
1382,1212.181
1383,1211.715
1384,1211.519
1385,1211.586
1386,1211.865
1387,1212.277
1388,1212.715
1389,1213.048
1390,1213.123
1391,1212.861
1392,1212.336
1393,1211.727
1394,1211.160
1395,1210.702
1396,1210.364
1397,1210.139
1398,1209.998
1399,1209.894
1400,1209.794
1401,1209.660
1402,1209.477
1403,1209.264
1404,1209.035
1405,1208.756
1406,1208.364
1407,1207.822
1408,1207.135
1409,1206.364
1410,1205.572
1411,1204.847
1412,1204.355
1413,1204.305
1414,1204.863
1415,1206.034
1416,1207.681
1417,1209.548
1418,1211.402
1419,1213.132
1420,1214.707
1421,1216.086
1422,1217.241
1423,1218.228
1424,1219.099
1425,1219.770
1426,1220.075
1427,1219.900
1428,1219.279
1429,1218.387
1430,1217.499
1431,1216.816
1432,1216.428
1433,1216.332
1434,1216.536
1435,1217.045
1436,1217.816
1437,1218.779
1438,1219.887
1439,1221.183
1440,1222.663
1441,1224.171
1442,1225.430
1443,1226.209
1444,1226.363
1445,1225.834
1446,1224.592
1447,1222.683
1448,1220.287
1449,1217.703
1450,1215.286
1451,1213.302
1452,1211.836
1453,1210.852
1454,1210.298
1455,1210.077
1456,1210.002
1457,1209.894
1458,1209.681
1459,1209.468
1460,1209.473
1461,1209.910
1462,1210.927
1463,1212.552
1464,1214.719
1465,1217.266
1466,1219.916
1467,1222.396
1468,1224.484
1469,1226.113
1470,1227.380
1471,1228.443
1472,1229.318
1473,1229.897
1474,1230.076
1475,1229.868
1476,1229.360
1477,1228.676
1478,1227.980
1479,1227.447
1480,1227.130
1481,1226.963
1482,1226.868
1483,1226.793
1484,1226.630
1485,1226.226
1486,1225.571
1487,1224.901
1488,1224.542
1489,1224.730
1490,1225.459
1491,1226.538
1492,1227.739
1493,1228.951
1494,1230.201
1495,1231.493
1496,1232.756
1497,1233.869
1498,1234.711
1499,1235.161
1500,1235.157
1501,1234.748
1502,1234.002
1503,1232.902
1504,1231.423
1505,1229.685
1506,1227.980
1507,1226.680
1508,1226.088
1509,1226.380
1510,1227.526
1511,1229.255
1512,1231.106
1513,1232.573
1514,1233.273
1515,1233.069
1516,1232.089
1517,1230.685
1518,1229.330
1519,1228.401
1520,1228.034
1521,1228.159
1522,1228.518
1523,1228.776
1524,1228.672
1525,1228.151
1526,1227.326
1527,1226.430
1528,1225.759
1529,1225.555
1530,1225.892
1531,1226.609
1532,1227.393
1533,1227.880
1534,1227.764
1535,1226.868
1536,1225.284
1537,1223.321
1538,1221.400
1539,1219.870
1540,1218.933
1541,1218.645
1542,1218.895
1543,1219.441
1544,1220.050
1545,1220.654
1546,1221.408
1547,1222.521
1548,1224.113
1549,1226.172
1550,1228.551
1551,1230.960
1552,1233.035
1553,1234.511
1554,1235.248
1555,1235.252
1556,1234.606
1557,1233.460
1558,1231.964
1559,1230.310
1560,1228.780
1561,1227.709
1562,1227.305
1563,1227.513
1564,1228.076
1565,1228.705
1566,1229.276
1567,1229.872
1568,1230.602
1569,1231.452
1570,1232.260
1571,1232.877
1572,1233.260
1573,1233.473
1574,1233.619
1575,1233.781
1576,1233.961
1577,1234.127
1578,1234.273
1579,1234.394
1580,1234.490
1581,1234.556
1582,1234.615
1583,1234.682
1584,1234.773
1585,1234.882
1586,1235.027
1587,1235.252
1588,1235.598
1589,1236.082
1590,1236.711
1591,1237.453
1592,1238.224
1593,1238.916
1594,1239.462
1595,1239.803
1596,1239.870
1597,1239.587
1598,1238.982
1599,1238.207
1600,1237.407
1601,1236.699
1602,1236.215
1603,1236.128
1604,1236.507
1605,1237.244
1606,1238.036
1607,1238.499
1608,1238.316
1609,1237.336
1610,1235.594
1611,1233.256
1612,1230.627
1613,1228.051
1614,1225.805
1615,1224.080
1616,1222.979
1617,1222.538
1618,1222.796
1619,1223.729
1620,1225.196
1621,1226.918
1622,1228.626
1623,1230.139
1624,1231.277
1625,1231.856
1626,1231.777
1627,1231.060
1628,1229.822
1629,1228.209
1630,1226.372
1631,1224.450
1632,1222.604
1633,1220.946
1634,1219.537
1635,1218.441
1636,1217.799
1637,1217.774
1638,1218.462
1639,1219.841
1640,1221.750
1641,1223.888
1642,1225.826
1643,1227.147
1644,1227.614
1645,1227.243
1646,1226.209
1647,1224.763
1648,1223.150
1649,1221.642
1650,1220.521
1651,1219.995
1652,1220.150
1653,1220.962
1654,1222.300
1655,1223.938
1656,1225.559
1657,1226.872
1658,1227.705
1659,1228.030
1660,1227.918
1661,1227.476
1662,1226.801
1663,1225.938
1664,1224.888
1665,1223.704
1666,1222.521
1667,1221.458
1668,1220.554
1669,1219.741
1670,1218.945
1671,1218.137
1672,1217.403
1673,1216.916
1674,1216.795
1675,1216.982
1676,1217.303
1677,1217.582
1678,1217.808
1679,1218.087
1680,1218.533
1681,1219.170
1682,1219.987
1683,1220.929
1684,1221.837
1685,1222.513
1686,1222.825
1687,1222.771
1688,1222.508
1689,1222.296
1690,1222.321
1691,1222.617
1692,1223.092
1693,1223.646
1694,1224.209
1695,1224.730
1696,1225.192
1697,1225.555
1698,1225.792
1699,1225.888
1700,1225.867
1701,1225.751
1702,1225.488
1703,1225.063
1704,1224.513
1705,1223.921
1706,1223.350
1707,1222.825
1708,1222.333
1709,1221.904
1710,1221.617
1711,1221.492
1712,1221.479
1713,1221.546
1714,1221.646
1715,1221.733
1716,1221.771
1717,1221.729
1718,1221.571
1719,1221.337
1720,1221.071
1721,1220.800
1722,1220.529
1723,1220.329
1724,1220.266
1725,1220.391
1726,1220.733
1727,1221.312
1728,1222.117
1729,1223.125
1730,1224.284
1731,1225.530
1732,1226.759
1733,1227.872
1734,1228.751
1735,1229.251
1736,1229.235
1737,1228.710
1738,1227.855
1739,1226.913
1740,1226.117
1741,1225.642
1742,1225.609
1743,1226.088
1744,1227.047
1745,1228.301
1746,1229.614
1747,1230.864
1748,1232.081
1749,1233.306
1750,1234.415
1751,1235.161
1752,1235.365
1753,1235.032
1754,1234.352
1755,1233.602
1756,1233.023
1757,1232.710
1758,1232.656
1759,1232.869
1760,1233.306
1761,1233.811
1762,1234.186
1763,1234.361
1764,1234.340
1765,1234.052
1766,1233.315
1767,1231.977
1768,1230.081
1769,1227.843
1770,1225.563
1771,1223.521
1772,1221.908
1773,1220.850
1774,1220.383
1775,1220.471
1776,1220.987
1777,1221.779
1778,1222.646
1779,1223.434
1780,1224.025
1781,1224.430
1782,1224.746
1783,1225.117
1784,1225.559
1785,1225.942
1786,1226.055
1787,1225.730
1788,1224.955
1789,1223.817
1790,1222.463
1791,1221.079
1792,1219.829
1793,1218.833
1794,1218.141
1795,1217.741
1796,1217.620
1797,1217.762
1798,1218.166
1799,1218.795
1800,1219.637
1801,1220.712
1802,1222.054
1803,1223.621
1804,1225.313
1805,1227.026
1806,1228.697
1807,1230.214
1808,1231.389
1809,1232.081
1810,1232.306
1811,1232.248
1812,1232.069
1813,1231.810
1814,1231.456
1815,1231.035
1816,1230.593
1817,1230.156
1818,1229.710
1819,1229.305
1820,1229.043
1821,1229.001
1822,1229.210
1823,1229.731
1824,1230.639
1825,1231.998
1826,1233.710
1827,1235.548
1828,1237.215
1829,1238.495
1830,1239.270
1831,1239.528
1832,1239.299
1833,1238.666
1834,1237.736
1835,1236.669
1836,1235.611
1837,1234.711
1838,1234.081
1839,1233.802
1840,1233.902
1841,1234.340
1842,1234.944
1843,1235.432
1844,1235.515
1845,1235.082
1846,1234.227
1847,1233.165
1848,1232.077
1849,1231.068
1850,1230.277
1851,1229.851
1852,1229.818
1853,1230.031
1854,1230.314
1855,1230.602
1856,1230.935
1857,1231.310
1858,1231.598
1859,1231.668
1860,1231.514
1861,1231.318
1862,1231.318
1863,1231.643
1864,1232.260
1865,1232.952
1866,1233.352
1867,1233.115
1868,1232.073
1869,1230.347
1870,1228.289
1871,1226.297
1872,1224.688
1873,1223.671
1874,1223.350
1875,1223.704
1876,1224.592
1877,1225.767
1878,1226.955
1879,1227.939
1880,1228.597
1881,1228.935
1882,1229.022
1883,1228.972
1884,1228.905
1885,1228.914
1886,1229.051
1887,1229.310
1888,1229.606
1889,1229.843
1890,1229.947
1891,1229.885
1892,1229.681
1893,1229.381
1894,1229.055
1895,1228.780
1896,1228.639
1897,1228.689
1898,1228.914
1899,1229.247
1900,1229.585
1901,1229.806
1902,1229.831
1903,1229.606
1904,1229.060
1905,1228.151
1906,1226.943
1907,1225.592
1908,1224.334
1909,1223.338
1910,1222.638
1911,1222.096
1912,1221.533
1913,1220.841
1914,1220.012
1915,1219.070
1916,1218.028
1917,1216.937
1918,1215.890
1919,1215.069
1920,1214.540
1921,1214.203
1922,1213.878
1923,1213.482
1924,1213.023
1925,1212.515
1926,1211.936
1927,1211.340
1928,1210.802
1929,1210.427
1930,1210.285
1931,1210.410
1932,1210.752
1933,1211.181
1934,1211.586
1935,1211.927
1936,1212.240
1937,1212.557
1938,1212.861
1939,1213.123
1940,1213.348
1941,1213.561
1942,1213.748
1943,1213.898
1944,1214.011
1945,1214.140
1946,1214.369
1947,1214.732
1948,1215.228
1949,1215.795
1950,1216.382
1951,1217.003
1952,1217.628
1953,1218.199
1954,1218.641
1955,1218.883
1956,1218.874
1957,1218.595
1958,1218.145
1959,1217.691
1960,1217.366
1961,1217.224
1962,1217.307
1963,1217.612
1964,1218.041
1965,1218.478
1966,1218.854
1967,1219.112
1968,1219.262
1969,1219.374
1970,1219.491
1971,1219.549
1972,1219.470
1973,1219.283
1974,1219.083
1975,1218.891
1976,1218.691
1977,1218.458
1978,1218.178
1979,1217.845
1980,1217.412
1981,1216.841
1982,1216.124
1983,1215.257
1984,1214.236
1985,1213.086
1986,1211.852
1987,1210.627
1988,1209.493
1989,1208.497
1990,1207.722
1991,1207.264
1992,1207.126
1993,1207.210
1994,1207.343
1995,1207.381
1996,1207.239
1997,1206.943
1998,1206.626
1999,1206.430
2000,1206.460
2001,1206.797
2002,1207.522
2003,1208.664
2004,1210.110
2005,1211.665
2006,1213.140
2007,1214.419
2008,1215.478
2009,1216.324
2010,1216.945
2011,1217.266
2012,1217.287
2013,1217.099
2014,1216.799
2015,1216.449
2016,1216.120
2017,1215.899
2018,1215.886
2019,1216.153
2020,1216.707
2021,1217.487
2022,1218.449
2023,1219.562
2024,1220.746
2025,1221.883
2026,1222.892
2027,1223.692
2028,1224.200
2029,1224.330
2030,1224.055
2031,1223.509
2032,1222.983
2033,1222.829
2034,1223.250
2035,1224.275
2036,1225.759
2037,1227.526
2038,1229.468
2039,1231.535
2040,1233.640
2041,1235.565
2042,1237.086
2043,1238.053
2044,1238.466
2045,1238.470
2046,1238.295
2047,1238.078
2048,1237.795
2049,1237.269
2050,1236.307
2051,1234.815
2052,1232.906
2053,1230.797
2054,1228.714
2055,1226.784
2056,1225.088
2057,1223.667
2058,1222.542
2059,1221.721
2060,1221.200
2061,1220.991
2062,1221.116
2063,1221.625
2064,1222.575
2065,1224.009
2066,1225.922
2067,1228.201
2068,1230.647
2069,1232.981
2070,1234.973
2071,1236.490
2072,1237.499
2073,1237.995
2074,1237.982
2075,1237.507
2076,1236.740
2077,1235.932
2078,1235.269
2079,1234.782
2080,1234.390
2081,1234.019
2082,1233.615
2083,1233.169
2084,1232.735
2085,1232.369
2086,1232.027
2087,1231.623
2088,1231.097
2089,1230.477
2090,1229.843
2091,1229.289
2092,1228.835
2093,1228.447
2094,1228.084
2095,1227.739
2096,1227.405
2097,1227.122
2098,1226.926
2099,1226.843
2100,1226.855
2101,1226.913
2102,1226.943
2103,1226.863
2104,1226.626
2105,1226.234
2106,1225.746
2107,1225.242
2108,1224.796
2109,1224.434
2110,1224.105
2111,1223.717
2112,1223.234
2113,1222.642
2114,1221.954
2115,1221.229
2116,1220.575
2117,1220.154
2118,1220.075
2119,1220.366
2120,1220.966
2121,1221.742
2122,1222.558
2123,1223.350
2124,1224.088
2125,1224.730
2126,1225.155
2127,1225.292
2128,1225.213
2129,1225.105
2130,1225.071
2131,1225.121
2132,1225.201
2133,1225.188
2134,1224.917
2135,1224.309
2136,1223.371
2137,1222.129
2138,1220.662
2139,1219.145
2140,1217.808
2141,1216.807
2142,1216.220
2143,1216.053
2144,1216.274
2145,1216.828
2146,1217.674
2147,1218.795
2148,1220.220
2149,1221.937
2150,1223.896
2151,1225.984
2152,1228.030
2153,1229.793
2154,1231.089
2155,1231.952
2156,1232.610
2157,1233.348
2158,1234.331
2159,1235.561
2160,1236.924
2161,1238.295
2162,1239.637
2163,1240.916
2164,1242.008
2165,1242.683
2166,1242.704
2167,1241.929
2168,1240.362
2169,1238.186
2170,1235.744
2171,1233.448
2172,1231.614
2173,1230.347
2174,1229.564
2175,1229.143
2176,1229.018
2177,1229.218
2178,1229.714
2179,1230.331
2180,1230.743
2181,1230.585
2182,1229.635
2183,1227.951
2184,1225.876
2185,1223.884
2186,1222.413
2187,1221.767
2188,1222.087
2189,1223.359
2190,1225.396
2191,1227.859
2192,1230.318
2193,1232.344
2194,1233.585
2195,1233.844
2196,1233.069
2197,1231.368
2198,1228.997
2199,1226.284
2200,1223.629
2201,1221.450
2202,1220.062
2203,1219.600
2204,1219.991
2205,1221.037
2206,1222.508
2207,1224.263
2208,1226.222
2209,1228.259
2210,1230.231
2211,1232.006
2212,1233.444
2213,1234.386
2214,1234.682
2215,1234.265
2216,1233.173
2217,1231.589
2218,1229.826
2219,1228.264
2220,1227.159
2221,1226.530
2222,1226.247
2223,1226.180
2224,1226.251
2225,1226.384
2226,1226.467
2227,1226.392
2228,1226.063
2229,1225.438
2230,1224.580
2231,1223.600
2232,1222.575
2233,1221.571
2234,1220.687
2235,1219.975
2236,1219.399
2237,1218.920
2238,1218.541
2239,1218.253
2240,1218.062
2241,1218.003
2242,1218.133
2243,1218.491
2244,1219.070
2245,1219.820
2246,1220.646
2247,1221.433
2248,1222.050
2249,1222.333
2250,1222.200
2251,1221.675
2252,1220.858
2253,1219.883
2254,1218.845
2255,1217.808
2256,1216.861
2257,1216.145
2258,1215.724
2259,1215.557
2260,1215.611
2261,1215.932
2262,1216.545
2263,1217.366
2264,1218.333
2265,1219.429
2266,1220.583
2267,1221.633
2268,1222.425
2269,1222.938
2270,1223.284
2271,1223.621
2272,1224.021
2273,1224.513
2274,1225.138
2275,1225.867
2276,1226.547
2277,1226.997
2278,1227.147
2279,1227.018
2280,1226.630
2281,1225.997
2282,1225.155
2283,1224.267
2284,1223.588
2285,1223.388
2286,1223.788
2287,1224.713
2288,1225.930
2289,1227.209
2290,1228.334
2291,1229.139
2292,1229.435
2293,1229.076
2294,1227.984
2295,1226.197
2296,1223.904
2297,1221.458
2298,1219.274
2299,1217.653
2300,1216.641
2301,1216.070
2302,1215.682
2303,1215.232
2304,1214.582
2305,1213.757
2306,1212.927
2307,1212.319
2308,1212.086
2309,1212.306
2310,1212.977
2311,1214.065
2312,1215.503
2313,1217.170
2314,1218.937
2315,1220.700
2316,1222.350
2317,1223.775
2318,1224.942
2319,1225.967
2320,1226.988
2321,1228.055
2322,1229.076
2323,1229.868
2324,1230.281
2325,1230.310
2326,1230.097
2327,1229.864
2328,1229.806
2329,1230.068
2330,1230.664
2331,1231.431
2332,1232.089
2333,1232.469
2334,1232.606
2335,1232.664
2336,1232.777
2337,1232.935
2338,1233.060
2339,1233.144
2340,1233.210
2341,1233.260
2342,1233.210
2343,1233.002
2344,1232.669
2345,1232.289
2346,1231.968
2347,1231.806
2348,1231.852
2349,1232.148
2350,1232.698
2351,1233.469
2352,1234.456
2353,1235.665
2354,1236.949
2355,1238.011
2356,1238.591
2357,1238.566
2358,1237.970
2359,1236.961
2360,1235.765
2361,1234.631
2362,1233.710
2363,1233.019
2364,1232.548
2365,1232.385
2366,1232.656
2367,1233.315
2368,1234.069
2369,1234.477
2370,1234.190
2371,1233.115
2372,1231.381
2373,1229.226
2374,1226.855
2375,1224.442
2376,1222.150
2377,1220.095
2378,1218.345
2379,1216.907
2380,1215.757
2381,1214.886
2382,1214.299
2383,1213.969
2384,1213.861
2385,1213.915
2386,1214.044
2387,1214.132
2388,1214.111
2389,1213.986
2390,1213.840
2391,1213.790
2392,1213.973
2393,1214.519
2394,1215.486
2395,1216.824
2396,1218.391
2397,1219.979
2398,1221.396
2399,1222.588
2400,1223.654
2401,1224.684
2402,1225.630
2403,1226.326
2404,1226.530
2405,1225.997
2406,1224.638
2407,1222.621
2408,1220.300
2409,1218.045
2410,1216.124
2411,1214.669
2412,1213.744
2413,1213.361
2414,1213.528
2415,1214.211
2416,1215.328
2417,1216.766
2418,1218.408
2419,1220.179
2420,1222.029
2421,1223.904
2422,1225.705
2423,1227.318
2424,1228.680
2425,1229.810
2426,1230.793
2427,1231.668
2428,1232.456
2429,1233.260
2430,1234.261
2431,1235.536
2432,1236.986
2433,1238.361
2434,1239.428
2435,1240.103
2436,1240.478
2437,1240.753
2438,1241.099
2439,1241.574
2440,1242.054
2441,1242.312
2442,1242.108
2443,1241.291
2444,1239.866
2445,1237.970
2446,1235.811
2447,1233.560
2448,1231.339
2449,1229.289
2450,1227.576
2451,1226.272
2452,1225.305
2453,1224.575
2454,1224.113
2455,1224.071
2456,1224.521
2457,1225.396
2458,1226.480
2459,1227.526
2460,1228.401
2461,1229.118
2462,1229.743
2463,1230.256
2464,1230.489
2465,1230.260
2466,1229.501
2467,1228.368
2468,1227.159
2469,1226.126
2470,1225.371
2471,1224.909
2472,1224.717
2473,1224.713
2474,1224.692
2475,1224.380
2476,1223.592
2477,1222.404
2478,1221.158
2479,1220.279
2480,1220.104
2481,1220.766
2482,1222.212
2483,1224.184
2484,1226.251
2485,1227.964
2486,1229.022
2487,1229.322
2488,1228.964
2489,1228.209
2490,1227.372
2491,1226.630
2492,1225.947
2493,1225.242
2494,1224.488
2495,1223.721
2496,1222.971
2497,1222.212
2498,1221.383
2499,1220.491
2500,1219.604
2501,1218.762
2502,1218.033
2503,1217.520
2504,1217.295
2505,1217.274
2506,1217.316
2507,1217.345
2508,1217.337
2509,1217.307
2510,1217.266
2511,1217.203
2512,1217.120
2513,1217.028
2514,1216.991
2515,1217.078
2516,1217.366
2517,1217.883
2518,1218.603
2519,1219.454
2520,1220.304
2521,1220.971
2522,1221.321
2523,1221.379
2524,1221.279
2525,1221.129
2526,1220.971
2527,1220.791
2528,1220.579
2529,1220.329
2530,1220.020
2531,1219.645
2532,1219.183
2533,1218.633
2534,1217.999
2535,1217.307
2536,1216.586
2537,1215.865
2538,1215.153
2539,1214.486
2540,1213.969
2541,1213.753
2542,1213.911
2543,1214.353
2544,1214.886
2545,1215.420
2546,1216.016
2547,1216.786
2548,1217.687
2549,1218.520
2550,1219.033
2551,1219.091
2552,1218.758
2553,1218.233
2554,1217.666
2555,1217.091
2556,1216.499
2557,1215.936
2558,1215.565
2559,1215.603
2560,1216.241
2561,1217.537
2562,1219.395
2563,1221.550
2564,1223.567
2565,1224.996
2566,1225.538
2567,1225.163
2568,1224.105
2569,1222.783
2570,1221.612
2571,1220.896
2572,1220.725
2573,1221.033
2574,1221.637
2575,1222.379
2576,1223.204
2577,1224.080
2578,1224.942
2579,1225.705
2580,1226.317
2581,1226.705
2582,1226.784
2583,1226.488
2584,1225.901
2585,1225.238
2586,1224.717
2587,1224.467
2588,1224.613
2589,1225.292
2590,1226.542
2591,1228.189
2592,1229.872
2593,1231.160
2594,1231.714
2595,1231.381
2596,1230.243
2597,1228.585
2598,1226.818
2599,1225.351
2600,1224.484
2601,1224.300
2602,1224.696
2603,1225.430
2604,1226.301
2605,1227.268
2606,1228.355
2607,1229.481
2608,1230.368
2609,1230.739
2610,1230.468
2611,1229.689
2612,1228.705
2613,1227.864
2614,1227.397
2615,1227.405
2616,1227.880
2617,1228.793
2618,1230.097
2619,1231.748
2620,1233.590
2621,1235.344
2622,1236.678
2623,1237.319
2624,1237.136
2625,1236.078
2626,1234.169
2627,1231.589
2628,1228.710
2629,1225.992
2630,1223.829
2631,1222.479
2632,1222.021
2633,1222.375
2634,1223.338
2635,1224.655
2636,1226.059
2637,1227.284
2638,1228.097
2639,1228.384
2640,1228.214
2641,1227.726
2642,1227.047
2643,1226.205
2644,1225.201
2645,1224.067
2646,1222.942
2647,1221.983
2648,1221.329
2649,1221.041
2650,1221.162
2651,1221.692
2652,1222.621
2653,1223.909
2654,1225.438
2655,1227.034
2656,1228.510
2657,1229.731
2658,1230.618
2659,1231.148
2660,1231.343
2661,1231.285
2662,1231.139
2663,1231.127
2664,1231.377
2665,1231.827
2666,1232.306
2667,1232.677
2668,1232.898
2669,1233.035
2670,1233.252
2671,1233.652
2672,1234.173
2673,1234.661
2674,1234.952
2675,1234.952
2676,1234.661
2677,1234.198
2678,1233.773
2679,1233.506
2680,1233.335
2681,1233.085
2682,1232.652
2683,1232.081
2684,1231.456
2685,1230.822
2686,1230.214
2687,1229.726
2688,1229.472
2689,1229.489
2690,1229.710
2691,1230.006
2692,1230.235
2693,1230.243
2694,1229.893
2695,1229.176
2696,1228.180
2697,1227.051
2698,1225.930
2699,1224.917
2700,1224.071
2701,1223.463
2702,1223.134
2703,1223.075
2704,1223.259
2705,1223.629
2706,1224.071
2707,1224.450
2708,1224.663
2709,1224.700
2710,1224.567
2711,1224.296
2712,1223.913
2713,1223.500
2714,1223.167
2715,1222.988
2716,1222.954
2717,1222.963
2718,1222.892
2719,1222.638
2720,1222.121
2721,1221.312
2722,1220.258
2723,1219.149
2724,1218.274
2725,1217.845
2726,1217.945
2727,1218.541
2728,1219.549
2729,1220.879
2730,1222.421
2731,1224.067
2732,1225.696
2733,1227.159
2734,1228.251
2735,1228.864
2736,1229.085
2737,1229.089
2738,1228.968
2739,1228.747
2740,1228.480
2741,1228.234
2742,1228.055
2743,1228.001
2744,1228.176
2745,1228.593
2746,1229.105
2747,1229.489
2748,1229.547
2749,1229.260
2750,1228.789
2751,1228.355
2752,1228.068
2753,1227.847
2754,1227.543
2755,1227.088
2756,1226.526
2757,1225.863
2758,1225.084
2759,1224.213
2760,1223.379
2761,1222.733
2762,1222.346
2763,1222.192
2764,1222.229
2765,1222.375
2766,1222.542
2767,1222.667
2768,1222.733
2769,1222.688
2770,1222.496
2771,1222.179
2772,1221.796
2773,1221.362
2774,1220.875
2775,1220.370
2776,1219.912
2777,1219.512
2778,1219.120
2779,1218.716
2780,1218.291
2781,1217.783
2782,1217.157
2783,1216.441
2784,1215.645
2785,1214.794
2786,1213.948
2787,1213.173
2788,1212.457
2789,1211.731
2790,1210.977
2791,1210.189
2792,1209.277
2793,1208.081
2794,1206.539
2795,1204.730
2796,1202.805
2797,1200.975
2798,1199.546
2799,1198.737
2800,1198.596
2801,1199.016
2802,1199.796
2803,1200.663
2804,1201.329
2805,1201.642
2806,1201.554
2807,1201.050
2808,1200.196
2809,1199.175
2810,1198.191
2811,1197.287
2812,1196.391
2813,1195.516
2814,1194.812
2815,1194.420
2816,1194.332
2817,1194.441
2818,1194.657
2819,1194.899
2820,1195.099
2821,1195.266
2822,1195.457
2823,1195.703
2824,1195.991
2825,1196.283
2826,1196.612
2827,1196.991
2828,1197.366
2829,1197.637
2830,1197.770
2831,1197.791
2832,1197.704
2833,1197.437
2834,1196.949
2835,1196.245
2836,1195.399
2837,1194.520
2838,1193.715
2839,1193.028
2840,1192.465
2841,1192.032
2842,1191.715
2843,1191.494
2844,1191.407
2845,1191.494
2846,1191.719
2847,1192.003
2848,1192.340
2849,1192.790
2850,1193.386
2851,1194.103
2852,1194.874
2853,1195.649
2854,1196.403
2855,1197.133
2856,1197.883
2857,1198.691
2858,1199.617
2859,1200.713
2860,1201.980
2861,1203.359
2862,1204.755
2863,1206.039
2864,1207.114
2865,1207.910
2866,1208.343
2867,1208.364
2868,1208.010
2869,1207.372
2870,1206.560
2871,1205.668
2872,1204.788
2873,1203.988
2874,1203.317
2875,1202.788
2876,1202.425
2877,1202.300
2878,1202.509
2879,1203.117
2880,1204.109
2881,1205.430
2882,1207.010
2883,1208.760
2884,1210.589
2885,1212.411
2886,1214.144
2887,1215.765
2888,1217.299
2889,1218.749
2890,1220.033
2891,1221.116
2892,1222.104
2893,1223.234
2894,1224.709
2895,1226.580
2896,1228.730
2897,1231.006
2898,1233.335
2899,1235.678
2900,1238.015
2901,1240.408
2902,1242.975
2903,1245.813
2904,1248.934
2905,1252.256
2906,1255.623
2907,1258.944
2908,1262.270
2909,1265.775
2910,1269.567
2911,1273.647
2912,1277.865
2913,1281.945
2914,1285.604
2915,1288.658
2916,1291.038
2917,1292.722
2918,1293.772
2919,1294.305
2920,1294.422
2921,1294.147
2922,1293.493
2923,1292.484
2924,1291.071
2925,1289.100
2926,1286.425
2927,1283.053
2928,1279.127
2929,1274.777
2930,1270.059
2931,1264.996
2932,1259.686
2933,1254.273
2934,1248.909
2935,1243.654
2936,1238.486
2937,1233.331
2938,1228.164
2939,1223.063
2940,1218.199
2941,1213.753
2942,1209.802
2943,1206.260
2944,1202.963
2945,1199.808
2946,1196.749
2947,1193.782
2948,1190.890
2949,1188.081
2950,1185.381
2951,1182.863
2952,1180.626
2953,1178.763
2954,1177.375
2955,1176.583
2956,1176.554
2957,1177.467
2958,1179.400
2959,1182.255
2960,1185.772
2961,1189.598
2962,1193.420
2963,1197.070
2964,1200.546
2965,1203.967
2966,1207.456
2967,1211.098
2968,1214.953
2969,1218.970
2970,1222.979
2971,1226.734
2972,1230.039
2973,1232.769
2974,1234.894
2975,1236.490
2976,1237.682
2977,1238.670
2978,1239.649
2979,1240.728
2980,1241.916
2981,1243.116
2982,1244.208
2983,1245.075
2984,1245.621
2985,1245.842
2986,1245.788
2987,1245.463
2988,1244.704
2989,1243.308
2990,1241.241
2991,1238.736
2992,1236.161
2993,1233.861
2994,1232.006
2995,1230.602
2996,1229.564
2997,1228.789
2998,1228.151
2999,1227.564
3000,1226.959
3001,1226.280
3002,1225.488
3003,1224.567
3004,1223.546
3005,1222.508
3006,1221.558
3007,1220.750
3008,1220.070
3009,1219.483
3010,1218.958
3011,1218.483
3012,1218.083
3013,1217.799
3014,1217.645
3015,1217.616
3016,1217.749
3017,1218.087
3018,1218.628
3019,1219.291
3020,1219.941
3021,1220.412
3022,1220.625
3023,1220.600
3024,1220.391
3025,1220.050
3026,1219.641
3027,1219.245
3028,1218.887
3029,1218.499
3030,1218.024
3031,1217.466
3032,1216.870
3033,1216.282
3034,1215.736
3035,1215.265
3036,1214.890
3037,1214.611
3038,1214.428
3039,1214.319
3040,1214.232
3041,1214.119
3042,1214.019
3043,1214.032
3044,1214.219
3045,1214.582
3046,1215.099
3047,1215.782
3048,1216.641
3049,1217.703
3050,1218.983
3051,1220.446
3052,1222.058
3053,1223.779
3054,1225.588
3055,1227.484
3056,1229.414
3057,1231.227
3058,1232.785
3059,1234.044
3060,1235.061
3061,1235.936
3062,1236.861
3063,1238.003
3064,1239.370
3065,1240.716
3066,1241.691
3067,1242.041
3068,1241.712
3069,1240.878
3070,1239.857
3071,1238.957
3072,1238.349
3073,1238.015
3074,1237.853
3075,1237.707
3076,1237.420
3077,1236.865
3078,1236.044
3079,1235.077
3080,1234.077
3081,1232.998
3082,1231.639
3083,1229.789
3084,1227.380
3085,1224.509
3086,1221.333
3087,1218.028
3088,1214.753
3089,1211.623
3090,1208.622
3091,1205.634
3092,1202.567
3093,1199.483
3094,1196.545
3095,1193.878
3096,1191.582
3097,1189.744
3098,1188.456
3099,1187.831
3100,1187.969
3101,1188.865
3102,1190.436
3103,1192.494
3104,1194.820
3105,1197.174
3106,1199.337
3107,1201.154
3108,1202.588
3109,1203.684
3110,1204.522
3111,1205.155
3112,1205.701
3113,1206.280
3114,1206.947
3115,1207.651
3116,1208.306
3117,1208.843
3118,1209.227
3119,1209.439
3120,1209.481
3121,1209.331
3122,1208.985
3123,1208.477
3124,1207.868
3125,1207.193
3126,1206.510
3127,1205.872
3128,1205.313
3129,1204.872
3130,1204.584
3131,1204.459
3132,1204.488
3133,1204.684
3134,1205.005
3135,1205.293
3136,1205.401
3137,1205.284
3138,1205.018
3139,1204.693
3140,1204.326
3141,1203.951
3142,1203.701
3143,1203.730
3144,1204.130
3145,1204.959
3146,1206.268
3147,1208.031
3148,1210.089
3149,1212.236
3150,1214.386
3151,1216.549
3152,1218.749
3153,1220.991
3154,1223.250
3155,1225.438
3156,1227.368
3157,1228.768
3158,1229.447
3159,1229.385
3160,1228.760
3161,1227.951
3162,1227.376
3163,1227.326
3164,1227.943
3165,1229.264
3166,1231.268
3167,1233.802
3168,1236.624
3169,1239.457
3170,1242.008
3171,1243.979
3172,1245.138
3173,1245.404
3174,1244.813
3175,1243.516
3176,1241.774
3177,1239.953
3178,1238.457
3179,1237.540
3180,1237.228
3181,1237.332
3182,1237.624
3183,1237.961
3184,1238.311
3185,1238.632
3186,1238.778
3187,1238.524
3188,1237.749
3189,1236.561
3190,1235.232
3191,1233.986
3192,1232.915
3193,1232.006
3194,1231.277
3195,1230.864
3196,1230.931
3197,1231.548
3198,1232.619
3199,1233.894
3200,1235.007
3201,1235.636
3202,1235.648
3203,1235.165
3204,1234.452
3205,1233.719
3206,1232.998
3207,1232.160
3208,1231.077
3209,1229.760
3210,1228.409
3211,1227.268
3212,1226.505
3213,1226.197
3214,1226.313
3215,1226.705
3216,1227.122
3217,1227.347
3218,1227.380
3219,1227.447
3220,1227.814
3221,1228.647
3222,1229.960
3223,1231.635
3224,1233.519
3225,1235.432
3226,1237.269
3227,1238.974
3228,1240.520
3229,1241.908
3230,1243.071
3231,1243.854
3232,1244.087
3233,1243.662
3234,1242.587
3235,1240.995
3236,1239.170
3237,1237.424
3238,1236.003
3239,1235.007
3240,1234.390
3241,1234.019
3242,1233.773
3243,1233.598
3244,1233.452
3245,1233.302
3246,1233.140
3247,1232.977
3248,1232.860
3249,1232.864
3250,1233.040
3251,1233.394
3252,1233.865
3253,1234.361
3254,1234.790
3255,1235.065
3256,1235.119
3257,1234.902
3258,1234.377
3259,1233.573
3260,1232.594
3261,1231.568
3262,1230.552
3263,1229.564
3264,1228.693
3265,1228.034
3266,1227.576
3267,1227.201
3268,1226.851
3269,1226.517
3270,1226.205
3271,1225.913
3272,1225.655
3273,1225.417
3274,1225.188
3275,1224.951
3276,1224.692
3277,1224.405
3278,1224.063
3279,1223.667
3280,1223.271
3281,1222.971
3282,1222.771
3283,1222.617
3284,1222.413
3285,1222.075
3286,1221.608
3287,1221.108
3288,1220.629
3289,1220.175
3290,1219.725
3291,1219.262
3292,1218.774
3293,1218.316
3294,1217.962
3295,1217.749
3296,1217.662
3297,1217.670
3298,1217.716
3299,1217.778
3300,1217.853
3301,1217.937
3302,1218.003
3303,1218.037
3304,1218.028
3305,1217.928
3306,1217.695
3307,1217.349
3308,1216.907
3309,1216.399
3310,1215.878
3311,1215.370
3312,1214.857
3313,1214.357
3314,1213.944
3315,1213.632
3316,1213.353
3317,1213.086
3318,1212.873
3319,1212.773
3320,1212.865
3321,1213.173
3322,1213.623
3323,1214.069
3324,1214.403
3325,1214.586
3326,1214.657
3327,1214.661
3328,1214.640
3329,1214.632
3330,1214.644
3331,1214.649
3332,1214.611
3333,1214.532
3334,1214.419
3335,1214.332
3336,1214.344
3337,1214.503
3338,1214.815
3339,1215.274
3340,1215.849
3341,1216.478
3342,1217.095
3343,1217.653
3344,1218.116
3345,1218.528
3346,1218.999
3347,1219.575
3348,1220.220
3349,1220.841
3350,1221.358
3351,1221.783
3352,1222.212
3353,1222.738
3354,1223.317
3355,1223.888
3356,1224.417
3357,1224.896
3358,1225.301
3359,1225.605
3360,1225.822
3361,1226.042
3362,1226.334
3363,1226.668
3364,1226.988
3365,1227.313
3366,1227.714
3367,1228.205
3368,1228.789
3369,1229.464
3370,1230.172
3371,1230.843
3372,1231.443
3373,1231.964
3374,1232.398
3375,1232.731
3376,1232.977
3377,1233.265
3378,1233.769
3379,1234.573
3380,1235.578
3381,1236.582
3382,1237.395
3383,1237.857
3384,1237.865
3385,1237.378
3386,1236.549
3387,1235.640
3388,1234.873
3389,1234.340
3390,1234.073
3391,1234.094
3392,1234.336
3393,1234.723
3394,1235.194
3395,1235.640
3396,1235.940
3397,1236.044
3398,1235.986
3399,1235.798
3400,1235.477
3401,1235.052
3402,1234.602
3403,1234.140
3404,1233.665
3405,1233.177
3406,1232.702
3407,1232.310
3408,1232.064
3409,1232.002
3410,1232.106
3411,1232.310
3412,1232.560
3413,1232.835
3414,1233.110
3415,1233.310
3416,1233.369
3417,1233.256
3418,1232.985
3419,1232.594
3420,1232.210
3421,1232.019
3422,1232.127
3423,1232.556
3424,1233.240
3425,1234.065
3426,1234.919
3427,1235.711
3428,1236.357
3429,1236.782
3430,1236.936
3431,1236.840
3432,1236.561
3433,1236.203
3434,1235.840
3435,1235.511
3436,1235.257
3437,1235.169
3438,1235.298
3439,1235.636
3440,1236.111
3441,1236.674
3442,1237.294
3443,1237.940
3444,1238.532
3445,1238.991
3446,1239.274
3447,1239.366
3448,1239.232
3449,1238.903
3450,1238.474
3451,1238.082
3452,1237.828
3453,1237.770
3454,1237.940
3455,1238.328
3456,1238.803
3457,1239.124
3458,1239.137
3459,1238.907
3460,1238.699
3461,1238.782
3462,1239.266
3463,1240.041
3464,1240.824
3465,1241.291
3466,1241.208
3467,1240.566
3468,1239.574
3469,1238.557
3470,1237.753
3471,1237.174
3472,1236.678
3473,1236.128
3474,1235.519
3475,1235.011
3476,1234.702
3477,1234.577
3478,1234.590
3479,1234.752
3480,1235.057
3481,1235.402
3482,1235.623
3483,1235.623
3484,1235.402
3485,1234.977
3486,1234.365
3487,1233.640
3488,1232.956
3489,1232.498
3490,1232.410
3491,1232.689
3492,1233.252
3493,1234.056
3494,1235.086
3495,1236.236
3496,1237.299
3497,1238.086
3498,1238.503
3499,1238.536
3500,1238.236
3501,1237.703
3502,1237.086
3503,1236.528
3504,1236.107
3505,1235.794
3506,1235.490
3507,1235.098
3508,1234.602
3509,1234.086
3510,1233.640
3511,1233.319
3512,1233.110
3513,1233.031
3514,1233.110
3515,1233.377
3516,1233.760
3517,1234.086
3518,1234.215
3519,1234.194
3520,1234.152
3521,1234.152
3522,1234.190
3523,1234.248
3524,1234.323
3525,1234.427
3526,1234.586
3527,1234.773
3528,1234.882
3529,1234.777
3530,1234.381
3531,1233.685
3532,1232.739
3533,1231.652
3534,1230.568
3535,1229.585
3536,1228.743
3537,1228.026
3538,1227.363
3539,1226.668
3540,1225.892
3541,1225.067
3542,1224.246
3543,1223.463
3544,1222.692
3545,1221.917
3546,1221.150
3547,1220.462
3548,1219.912
3549,1219.508
3550,1219.258
3551,1219.187
3552,1219.241
3553,1219.316
3554,1219.308
3555,1219.195
3556,1219.008
3557,1218.795
3558,1218.524
3559,1218.133
3560,1217.628
3561,1217.041
3562,1216.366
3563,1215.624
3564,1214.911
3565,1214.340
3566,1213.973
3567,1213.857
3568,1214.019
3569,1214.444
3570,1215.032
3571,1215.674
3572,1216.332
3573,1217.024
3574,1217.724
3575,1218.362
3576,1218.937
3577,1219.458
3578,1219.908
3579,1220.279
3580,1220.579
3581,1220.825
3582,1221.083
3583,1221.412
3584,1221.862
3585,1222.500
3586,1223.367
3587,1224.363
3588,1225.234
3589,1225.746
3590,1225.780
3591,1225.321
3592,1224.471
3593,1223.475
3594,1222.621
3595,1222.117
3596,1222.004
3597,1222.212
3598,1222.613
3599,1223.046
3600,1223.413
3601,1223.704
3602,1223.971
3603,1224.209
3604,1224.334
3605,1224.305
3606,1224.100
3607,1223.709
3608,1223.142
3609,1222.417
3610,1221.575
3611,1220.687
3612,1219.816
3613,1218.995
3614,1218.258
3615,1217.641
3616,1217.232
3617,1217.107
3618,1217.237
3619,1217.528
3620,1217.928
3621,1218.408
3622,1218.883
3623,1219.258
3624,1219.449
3625,1219.387
3626,1219.041
3627,1218.499
3628,1217.962
3629,1217.632
3630,1217.545
3631,1217.603
3632,1217.657
3633,1217.691
3634,1217.849
3635,1218.341
3636,1219.254
3637,1220.483
3638,1221.833
3639,1223.138
3640,1224.321
3641,1225.313
3642,1226.042
3643,1226.530
3644,1226.863
3645,1227.126
3646,1227.347
3647,1227.513
3648,1227.601
3649,1227.618
3650,1227.593
3651,1227.551
3652,1227.534
3653,1227.605
3654,1227.797
3655,1228.097
3656,1228.480
3657,1228.910
3658,1229.322
3659,1229.668
3660,1229.893
3661,1230.014
3662,1230.106
3663,1230.260
3664,1230.506
3665,1230.781
3666,1231.006
3667,1231.131
3668,1231.114
3669,1230.914
3670,1230.556
3671,1230.122
3672,1229.689
3673,1229.326
3674,1229.068
3675,1228.914
3676,1228.860
3677,1228.868
3678,1228.818
3679,1228.593
3680,1228.193
3681,1227.730
3682,1227.330
3683,1227.113
3684,1227.176
3685,1227.551
3686,1228.114
3687,1228.680
3688,1229.097
3689,1229.293
3690,1229.255
3691,1229.080
3692,1228.889
3693,1228.751
3694,1228.651
3695,1228.547
3696,1228.422
3697,1228.347
3698,1228.409
3699,1228.560
3700,1228.643
3701,1228.547
3702,1228.322
3703,1228.109
3704,1227.989
3705,1228.009
3706,1228.209
3707,1228.539
3708,1228.880
3709,1229.135
3710,1229.330
3711,1229.543
3712,1229.868
3713,1230.347
3714,1230.914
3715,1231.452
3716,1231.918
3717,1232.373
3718,1232.910
3719,1233.556
3720,1234.273
3721,1235.007
3722,1235.678
3723,1236.240
3724,1236.649
3725,1236.869
3726,1236.861
3727,1236.619
3728,1236.207
3729,1235.732
3730,1235.307
3731,1235.011
3732,1234.840
3733,1234.719
3734,1234.577
3735,1234.402
3736,1234.198
3737,1233.969
3738,1233.723
3739,1233.465
3740,1233.190
3741,1232.877
3742,1232.519
3743,1232.156
3744,1231.877
3745,1231.777
3746,1231.860
3747,1232.102
3748,1232.477
3749,1232.977
3750,1233.581
3751,1234.223
3752,1234.811
3753,1235.223
3754,1235.436
3755,1235.527
3756,1235.578
3757,1235.628
3758,1235.694
3759,1235.790
3760,1235.944
3761,1236.190
3762,1236.544
3763,1236.940
3764,1237.282
3765,1237.536
3766,1237.715
3767,1237.845
3768,1237.945
3769,1238.049
3770,1238.170
3771,1238.232
3772,1238.149
3773,1237.853
3774,1237.290
3775,1236.457
3776,1235.457
3777,1234.448
3778,1233.665
3779,1233.356
3780,1233.715
3781,1234.790
3782,1236.503
3783,1238.641
3784,1240.949
3785,1243.237
3786,1245.400
3787,1247.334
3788,1248.859
3789,1249.793
3790,1250.014
3791,1249.551
3792,1248.609
3793,1247.463
3794,1246.300
3795,1245.183
3796,1244.154
3797,1243.358
3798,1242.975
3799,1243.054
3800,1243.450
3801,1243.854
3802,1243.987
3803,1243.767
3804,1243.246
3805,1242.495
3806,1241.558
3807,1240.483
3808,1239.337
3809,1238.203
3810,1237.194
3811,1236.432
3812,1235.982
3813,1235.819
3814,1235.886
3815,1236.153
3816,1236.590
3817,1237.169
3818,1237.874
3819,1238.653
3820,1239.437
3821,1240.149
3822,1240.691
3823,1241.024
3824,1241.149
3825,1241.083
3826,1240.828
3827,1240.416
3828,1239.891
3829,1239.274
3830,1238.595
3831,1237.890
3832,1237.182
3833,1236.453
3834,1235.732
3835,1235.127
3836,1234.736
3837,1234.548
3838,1234.473
3839,1234.419
3840,1234.269
3841,1233.919
3842,1233.398
3843,1232.877
3844,1232.544
3845,1232.410
3846,1232.369
3847,1232.339
3848,1232.319
3849,1232.269
3850,1232.060
3851,1231.539
3852,1230.639
3853,1229.426
3854,1228.084
3855,1226.809
3856,1225.713
3857,1224.855
3858,1224.275
3859,1223.938
3860,1223.696
3861,1223.363
3862,1222.858
3863,1222.233
3864,1221.608
3865,1221.100
3866,1220.800
3867,1220.725
3868,1220.821
3869,1221.016
3870,1221.250
3871,1221.450
3872,1221.579
3873,1221.658
3874,1221.737
3875,1221.867
3876,1222.050
3877,1222.250
3878,1222.417
3879,1222.483
3880,1222.375
3881,1222.033
3882,1221.462
3883,1220.775
3884,1220.112
3885,1219.600
3886,1219.329
3887,1219.291
3888,1219.399
3889,1219.566
3890,1219.704
3891,1219.758
3892,1219.716
3893,1219.583
3894,1219.404
3895,1219.241
3896,1219.149
3897,1219.179
3898,1219.358
3899,1219.666
3900,1220.025
3901,1220.391
3902,1220.775
3903,1221.187
3904,1221.629
3905,1222.062
3906,1222.433
3907,1222.704
3908,1222.879
3909,1222.958
3910,1222.900
3911,1222.663
3912,1222.258
3913,1221.746
3914,1221.208
3915,1220.712
3916,1220.316
3917,1220.066
3918,1219.950
3919,1219.879
3920,1219.758
3921,1219.512
3922,1219.120
3923,1218.583
3924,1217.991
3925,1217.499
3926,1217.328
3927,1217.724
3928,1218.916
3929,1220.979
3930,1223.767
3931,1226.938
3932,1230.060
3933,1232.714
3934,1234.623
3935,1235.707
3936,1236.048
3937,1235.848
3938,1235.252
3939,1234.290
3940,1232.981
3941,1231.452
3942,1229.985
3943,1228.880
3944,1228.347
3945,1228.364
3946,1228.705
3947,1229.076
3948,1229.251
3949,1229.130
3950,1228.755
3951,1228.201
3952,1227.568
3953,1227.030
3954,1226.793
3955,1226.988
3956,1227.538
3957,1228.226
3958,1228.835
3959,1229.289
3960,1229.622
3961,1229.876
3962,1230.014
3963,1230.043
3964,1230.126
3965,1230.552
3966,1231.564
3967,1233.252
3968,1235.511
3969,1238.095
3970,1240.708
3971,1243.091
3972,1245.063
3973,1246.563
3974,1247.655
3975,1248.434
3976,1248.880
3977,1248.859
3978,1248.251
3979,1247.067
3980,1245.434
3981,1243.567
3982,1241.741
3983,1240.274
3984,1239.445
3985,1239.412
3986,1240.216
3987,1241.816
3988,1244.092
3989,1246.834
3990,1249.713
3991,1252.318
3992,1254.323
3993,1255.585
3994,1256.094
3995,1255.965
3996,1255.448
3997,1254.798
3998,1254.143
3999,1253.406
4000,1252.502
4001,1251.460
4002,1250.451
4003,1249.597
4004,1248.893
4005,1248.163
4006,1247.230
4007,1246.046
4008,1244.775
4009,1243.692
4010,1243.054
4011,1242.954
4012,1243.246
4013,1243.650
4014,1243.942
4015,1244.083
4016,1244.158
4017,1244.208
4018,1244.212
4019,1244.158
4020,1244.067
4021,1243.946
4022,1243.842
4023,1243.762
4024,1243.642
4025,1243.408
4026,1243.050
4027,1242.570
4028,1241.941
4029,1241.137
4030,1240.178
4031,1239.153
4032,1238.145
4033,1237.211
4034,1236.436
4035,1235.894
4036,1235.628
4037,1235.778
4038,1236.503
4039,1237.865
4040,1239.716
4041,1241.733
4042,1243.567
4043,1244.975
4044,1245.900
4045,1246.355
4046,1246.330
4047,1245.788
4048,1244.779
4049,1243.441
4050,1241.933
4051,1240.428
4052,1239.149
4053,1238.407
4054,1238.511
4055,1239.649
4056,1241.737
4057,1244.450
4058,1247.334
4059,1250.001
4060,1252.189
4061,1253.698
4062,1254.327
4063,1253.914
4064,1252.385
4065,1249.780
4066,1246.300
4067,1242.308
4068,1238.303
4069,1234.773
4070,1232.089
4071,1230.427
4072,1229.818
4073,1230.181
4074,1231.335
4075,1233.060
4076,1235.090
4077,1237.094
4078,1238.766
4079,1239.949
4080,1240.641
4081,1240.912
4082,1240.870
4083,1240.645
4084,1240.341
4085,1239.995
4086,1239.591
4087,1239.099
4088,1238.470
4089,1237.753
4090,1237.186
4091,1237.099
4092,1237.699
4093,1238.924
4094,1240.508
4095,1242.141
4096,1243.608
4097,1244.754
4098,1245.446
4099,1245.592
4100,1245.133
4101,1244.075
4102,1242.483
4103,1240.466
4104,1238.190
4105,1235.903
4106,1233.836
4107,1232.089
4108,1230.606
4109,1229.326
4110,1228.322
4111,1227.693
4112,1227.484
4113,1227.601
4114,1227.889
4115,1228.214
4116,1228.564
4117,1228.993
4118,1229.426
4119,1229.643
4120,1229.410
4121,1228.647
4122,1227.472
4123,1226.126
4124,1224.871
4125,1223.850
4126,1223.033
4127,1222.321
4128,1221.675
4129,1221.112
4130,1220.558
4131,1219.841
4132,1218.820
4133,1217.553
4134,1216.274
4135,1215.228
4136,1214.532
4137,1214.136
4138,1213.869
4139,1213.628
4140,1213.390
4141,1213.165
4142,1212.919
4143,1212.636
4144,1212.352
4145,1212.123
4146,1211.956
4147,1211.761
4148,1211.431
4149,1210.965
4150,1210.423
4151,1209.877
4152,1209.368
4153,1208.923
4154,1208.593
4155,1208.456
4156,1208.522
4157,1208.772
4158,1209.127
4159,1209.468
4160,1209.698
4161,1209.852
4162,1210.073
4163,1210.406
4164,1210.760
4165,1211.019
4166,1211.165
4167,1211.265
4168,1211.419
4169,1211.673
4170,1212.031
4171,1212.502
4172,1213.107
4173,1213.844
4174,1214.694
4175,1215.607
4176,1216.545
4177,1217.491
4178,1218.474
4179,1219.495
4180,1220.537
4181,1221.546
4182,1222.504
4183,1223.421
4184,1224.275
4185,1225.055
4186,1225.797
4187,1226.580
4188,1227.451
4189,1228.430
4190,1229.489
4191,1230.585
4192,1231.668
4193,1232.706
4194,1233.665
4195,1234.494
4196,1235.123
4197,1235.536
4198,1235.778
4199,1235.936
4200,1236.123
4201,1236.436
4202,1236.949
4203,1237.711
4204,1238.682
4205,1239.774
4206,1240.895
4207,1241.987
4208,1243.004
4209,1243.896
4210,1244.633
4211,1245.192
4212,1245.542
4213,1245.675
4214,1245.629
4215,1245.479
4216,1245.275
4217,1245.000
4218,1244.608
4219,1244.083
4220,1243.466
4221,1242.904
4222,1242.595
4223,1242.641
4224,1242.979
4225,1243.437
4226,1243.871
4227,1244.204
4228,1244.429
4229,1244.596
4230,1244.788
4231,1245.104
4232,1245.592
4233,1246.267
4234,1247.096
4235,1248.047
4236,1249.034
4237,1249.918
4238,1250.522
4239,1250.722
4240,1250.497
4241,1249.905
4242,1249.055
4243,1248.101
4244,1247.221
4245,1246.571
4246,1246.209
4247,1246.142
4248,1246.325
4249,1246.617
4250,1246.738
4251,1246.396
4252,1245.450
4253,1244.033
4254,1242.491
4255,1241.204
4256,1240.437
4257,1240.237
4258,1240.508
4259,1241.112
4260,1241.941
4261,1242.846
4262,1243.596
4263,1243.992
4264,1244.033
4265,1243.925
4266,1243.908
4267,1244.137
4268,1244.638
4269,1245.363
4270,1246.217
4271,1247.146
4272,1248.176
4273,1249.326
4274,1250.534
4275,1251.689
4276,1252.664
4277,1253.310
4278,1253.510
4279,1253.218
4280,1252.443
4281,1251.305
4282,1250.089
4283,1249.172
4284,1248.884
4285,1249.338
4286,1250.430
4287,1251.876
4288,1253.302
4289,1254.377
4290,1254.948
4291,1255.073
4292,1254.914
4293,1254.569
4294,1253.968
4295,1252.968
4296,1251.510
4297,1249.709
4298,1247.809
4299,1246.000
4300,1244.371
4301,1242.941
4302,1241.716
4303,1240.708
4304,1239.924
4305,1239.353
4306,1238.978
4307,1238.736
4308,1238.591
4309,1238.528
4310,1238.457
4311,1238.228
4312,1237.720
4313,1236.899
4314,1235.828
4315,1234.707
4316,1233.706
4317,1232.852
4318,1231.993
4319,1231.014
4320,1229.951
4321,1228.968
4322,1228.193
4323,1227.639
4324,1227.343
4325,1227.368
4326,1227.734
4327,1228.355
4328,1229.176
4329,1230.210
4330,1231.531
4331,1233.144
4332,1234.932
4333,1236.661
4334,1238.082
4335,1239.011
4336,1239.337
4337,1239.007
4338,1237.999
4339,1236.311
4340,1234.011
4341,1231.252
4342,1228.297
4343,1225.421
4344,1222.875
4345,1220.812
4346,1219.337
4347,1218.553
4348,1218.612
4349,1219.625
4350,1221.562
4351,1224.205
4352,1227.143
4353,1229.893
4354,1232.027
4355,1233.260
4356,1233.435
4357,1232.514
4358,1230.564
4359,1227.726
4360,1224.292
4361,1220.704
4362,1217.432
4363,1214.840
4364,1213.102
4365,1212.211
4366,1212.048
4367,1212.411
4368,1213.086
4369,1213.886
4370,1214.703
4371,1215.424
4372,1215.895
4373,1215.999
4374,1215.770
4375,1215.411
4376,1215.178
4377,1215.249
4378,1215.732
4379,1216.711
4380,1218.212
4381,1220.212
4382,1222.638
4383,1225.334
4384,1228.030
4385,1230.422
4386,1232.302
4387,1233.615
4388,1234.402
4389,1234.673
4390,1234.398
4391,1233.581
4392,1232.323
4393,1230.814
4394,1229.305
4395,1228.005
4396,1227.051
4397,1226.542
4398,1226.567
4399,1227.163
4400,1228.239
4401,1229.597
4402,1230.997
4403,1232.177
4404,1232.906
4405,1233.065
4406,1232.731
4407,1232.135
4408,1231.523
4409,1231.093
4410,1230.981
4411,1231.289
4412,1232.052
4413,1233.194
4414,1234.519
4415,1235.782
4416,1236.753
4417,1237.257
4418,1237.178
4419,1236.457
4420,1235.094
4421,1233.098
4422,1230.489
4423,1227.351
4424,1223.904
4425,1220.483
4426,1217.462
4427,1215.153
4428,1213.761
4429,1213.386
4430,1214.036
4431,1215.640
4432,1218.020
4433,1220.866
4434,1223.821
4435,1226.572
4436,1228.864
4437,1230.481
4438,1231.273
4439,1231.231
4440,1230.552
4441,1229.568
4442,1228.564
4443,1227.609
4444,1226.668
4445,1225.805
4446,1225.217
4447,1225.105
4448,1225.496
4449,1226.255
4450,1227.222
4451,1228.255
4452,1229.176
4453,1229.776
4454,1229.972
4455,1229.781
4456,1229.272
4457,1228.518
4458,1227.618
4459,1226.697
4460,1225.813
4461,1224.959
4462,1224.134
4463,1223.417
4464,1222.967
4465,1222.929
4466,1223.329
4467,1224.105
4468,1225.163
4469,1226.397
4470,1227.630
4471,1228.622
4472,1229.176
4473,1229.255
4474,1229.005
4475,1228.614
4476,1228.164
4477,1227.697
4478,1227.280
4479,1227.013
4480,1226.938
4481,1227.068
4482,1227.343
4483,1227.647
4484,1227.864
4485,1227.980
4486,1228.026
4487,1228.018
4488,1227.901
4489,1227.634
4490,1227.263
4491,1226.859
4492,1226.442
4493,1226.022
4494,1225.730
4495,1225.776
4496,1226.288
4497,1227.188
4498,1228.193
4499,1228.989
4500,1229.431
4501,1229.593
4502,1229.606
4503,1229.597
4504,1229.639
4505,1229.743
4506,1229.818
4507,1229.810
4508,1229.764
4509,1229.756
4510,1229.768
4511,1229.764
4512,1229.797
4513,1229.981
4514,1230.318
4515,1230.627
4516,1230.610
4517,1230.072
4518,1229.043
4519,1227.730
4520,1226.409
4521,1225.359
4522,1224.821
4523,1224.967
4524,1225.842
4525,1227.363
4526,1229.310
4527,1231.306
4528,1232.873
4529,1233.581
4530,1233.240
4531,1231.973
4532,1230.106
4533,1228.022
4534,1226.063
4535,1224.521
4536,1223.584
4537,1223.321
4538,1223.700
4539,1224.592
4540,1225.838
4541,1227.343
4542,1229.043
4543,1230.822
4544,1232.460
4545,1233.690
4546,1234.390
4547,1234.694
4548,1234.911
4549,1235.361
4550,1236.190
4551,1237.336
4552,1238.561
4553,1239.591
4554,1240.274
4555,1240.666
4556,1240.929
4557,1241.154
4558,1241.341
4559,1241.437
4560,1241.345
4561,1241.016
4562,1240.524
4563,1240.020
4564,1239.570
4565,1239.049
4566,1238.236
4567,1237.011
4568,1235.477
4569,1233.886
4570,1232.473
4571,1231.385
4572,1230.672
4573,1230.277
4574,1230.076
4575,1229.935
4576,1229.772
4577,1229.551
4578,1229.301
4579,1229.110
4580,1229.089
4581,1229.322
4582,1229.843
4583,1230.689
4584,1231.873
4585,1233.323
4586,1234.815
4587,1236.011
4588,1236.632
4589,1236.586
4590,1235.961
4591,1235.007
4592,1233.994
4593,1233.127
4594,1232.452
4595,1231.898
4596,1231.402
4597,1230.960
4598,1230.564
4599,1230.197
4600,1229.822
4601,1229.364
4602,1228.793
4603,1228.205
4604,1227.809
4605,1227.805
4606,1228.268
4607,1229.139
4608,1230.314
4609,1231.598
4610,1232.744
4611,1233.577
4612,1234.056
4613,1234.215
4614,1234.106
4615,1233.798
4616,1233.340
4617,1232.785
4618,1232.210
4619,1231.681
4620,1231.277
4621,1231.068
4622,1231.097
4623,1231.331
4624,1231.685
4625,1232.085
4626,1232.448
4627,1232.735
4628,1232.944
4629,1233.069
4630,1233.065
4631,1232.902
4632,1232.577
4633,1232.139
4634,1231.673
4635,1231.298
4636,1231.189
4637,1231.510
4638,1232.260
4639,1233.235
4640,1234.169
4641,1234.844
4642,1235.173
4643,1235.202
4644,1235.065
4645,1234.898
4646,1234.761
4647,1234.606
4648,1234.390
4649,1234.115
4650,1233.823
4651,1233.581
4652,1233.456
4653,1233.460
4654,1233.594
4655,1233.794
4656,1233.961
4657,1234.011
4658,1233.948
4659,1233.802
4660,1233.490
4661,1232.910
4662,1232.089
4663,1231.181
4664,1230.406
4665,1229.968
4666,1229.951
4667,1230.235
4668,1230.539
4669,1230.568
4670,1230.176
4671,1229.381
4672,1228.347
4673,1227.355
4674,1226.651
4675,1226.384
4676,1226.555
4677,1227.030
4678,1227.584
4679,1227.955
4680,1227.939
4681,1227.476
4682,1226.701
4683,1225.842
4684,1225.051
4685,1224.300
4686,1223.479
4687,1222.533
4688,1221.496
4689,1220.408
4690,1219.266
4691,1218.099
4692,1217.053
4693,1216.270
4694,1215.782
4695,1215.574
4696,1215.624
4697,1215.895
4698,1216.199
4699,1216.249
4700,1215.840
4701,1215.007
4702,1214.019
4703,1213.244
4704,1212.919
4705,1213.111
4706,1213.694
4707,1214.507
4708,1215.486
4709,1216.728
4710,1218.312
4711,1220.204
4712,1222.221
4713,1224.096
4714,1225.621
4715,1226.688
4716,1227.326
4717,1227.626
4718,1227.672
4719,1227.522
4720,1227.193
4721,1226.697
4722,1226.084
4723,1225.467
4724,1224.959
4725,1224.625
4726,1224.480
4727,1224.480
4728,1224.555
4729,1224.592
4730,1224.500
4731,1224.213
4732,1223.746
4733,1223.171
4734,1222.650
4735,1222.417
4736,1222.671
4737,1223.446
4738,1224.563
4739,1225.788
4740,1226.947
4741,1227.972
4742,1228.885
4743,1229.726
4744,1230.472
4745,1230.997
4746,1231.177
4747,1230.927
4748,1230.252
4749,1229.201
4750,1227.909
4751,1226.530
4752,1225.196
4753,1223.942
4754,1222.758
4755,1221.671
4756,1220.729
4757,1219.937
4758,1219.258
4759,1218.749
4760,1218.516
4761,1218.553
4762,1218.695
4763,1218.787
4764,1218.770
4765,1218.645
4766,1218.374
4767,1217.903
4768,1217.278
4769,1216.574
4770,1215.732
4771,1214.607
4772,1213.132
4773,1211.427
4774,1209.756
4775,1208.402
4776,1207.560
4777,1207.335
4778,1207.747
4779,1208.777
4780,1210.352
4781,1212.298
4782,1214.324
4783,1216.070
4784,1217.253
4785,1217.820
4786,1217.991
4787,1218.174
4788,1218.741
4789,1219.858
4790,1221.450
4791,1223.259
4792,1224.992
4793,1226.480
4794,1227.693
4795,1228.618
4796,1229.205
4797,1229.418
4798,1229.318
4799,1229.101
4800,1229.014
4801,1229.226
4802,1229.726
4803,1230.356
4804,1230.952
4805,1231.518
4806,1232.127
4807,1232.839
4808,1233.623
4809,1234.423
4810,1235.252
4811,1236.157
4812,1237.111
4813,1237.995
4814,1238.686
4815,1239.141
4816,1239.357
4817,1239.291
4818,1238.932
4819,1238.411
4820,1237.932
4821,1237.649
4822,1237.607
4823,1237.724
4824,1237.865
4825,1237.903
4826,1237.782
4827,1237.540
4828,1237.315
4829,1237.299
4830,1237.674
4831,1238.557
4832,1239.982
4833,1241.833
4834,1243.862
4835,1245.750
4836,1247.201
4837,1248.088
4838,1248.459
4839,1248.422
4840,1248.042
4841,1247.409
4842,1246.675
4843,1245.942
4844,1245.254
4845,1244.625
4846,1244.075
4847,1243.617
4848,1243.233
4849,1242.862
4850,1242.412
4851,1241.795
4852,1240.958
4853,1239.937
4854,1238.807
4855,1237.657
4856,1236.569
4857,1235.623
4858,1234.869
4859,1234.365
4860,1234.177
4861,1234.327
4862,1234.740
4863,1235.265
4864,1235.740
4865,1236.019
4866,1236.007
4867,1235.686
4868,1235.119
4869,1234.398
4870,1233.590
4871,1232.785
4872,1232.052
4873,1231.439
4874,1231.027
4875,1230.960
4876,1231.348
4877,1232.206
4878,1233.481
4879,1234.977
4880,1236.407
4881,1237.507
4882,1238.174
4883,1238.449
4884,1238.499
4885,1238.491
4886,1238.482
4887,1238.407
4888,1238.199
4889,1237.832
4890,1237.336
4891,1236.790
4892,1236.319
4893,1236.086
4894,1236.236
4895,1236.786
4896,1237.615
4897,1238.574
4898,1239.528
4899,1240.324
4900,1240.753
4901,1240.716
4902,1240.287
4903,1239.632
4904,1238.870
4905,1238.107
4906,1237.470
4907,1237.003
4908,1236.644
4909,1236.332
4910,1236.023
4911,1235.611
4912,1234.915
4913,1233.802
4914,1232.302
4915,1230.556
4916,1228.655
4917,1226.597
4918,1224.384
4919,1222.171
4920,1220.229
4921,1218.812
4922,1218.049
4923,1217.962
4924,1218.491
4925,1219.575
4926,1221.100
4927,1222.888
4928,1224.700
4929,1226.388
4930,1227.901
4931,1229.185
4932,1230.031
4933,1230.168
4934,1229.401
4935,1227.743
4936,1225.451
4937,1222.996
4938,1220.837
4939,1219.316
4940,1218.587
4941,1218.666
4942,1219.399
4943,1220.483
4944,1221.508
4945,1222.154
4946,1222.308
4947,1222.087
4948,1221.712
4949,1221.358
4950,1221.079
4951,1220.754
4952,1220.225
4953,1219.441
4954,1218.533
4955,1217.712
4956,1217.182
4957,1217.057
4958,1217.316
4959,1217.828
4960,1218.433
4961,1219.058
4962,1219.725
4963,1220.425
4964,1221.083
4965,1221.658
4966,1222.112
4967,1222.350
4968,1222.200
4969,1221.517
4970,1220.233
4971,1218.428
4972,1216.366
4973,1214.369
4974,1212.694
4975,1211.523
4976,1210.952
4977,1210.944
4978,1211.306
4979,1211.781
4980,1212.131
4981,1212.215
4982,1212.015
4983,1211.598
4984,1211.065
4985,1210.527
4986,1210.077
4987,1209.764
4988,1209.606
4989,1209.581
4990,1209.656
4991,1209.823
4992,1210.110
4993,1210.569
4994,1211.181
4995,1211.919
4996,1212.769
4997,1213.690
4998,1214.661
4999,1215.790
5000,1217.312
5001,1219.408
5002,1222.054
5003,1224.984
5004,1227.839
5005,1230.293
5006,1232.177
5007,1233.481
5008,1234.302
5009,1234.740
5010,1234.857
5011,1234.748
5012,1234.581
5013,1234.494
5014,1234.531
5015,1234.661
5016,1234.836
5017,1235.040
5018,1235.311
5019,1235.686
5020,1236.161
5021,1236.711
5022,1237.311
5023,1237.953
5024,1238.657
5025,1239.474
5026,1240.424
5027,1241.512
5028,1242.708
5029,1243.971
5030,1245.233
5031,1246.442
5032,1247.505
5033,1248.301
5034,1248.730
5035,1248.730
5036,1248.322
5037,1247.663
5038,1246.963
5039,1246.438
5040,1246.217
5041,1246.338
5042,1246.784
5043,1247.542
5044,1248.542
5045,1249.580
5046,1250.397
5047,1250.789
5048,1250.634
5049,1249.918
5050,1248.830
5051,1247.730
5052,1246.980
5053,1246.809
5054,1247.263
5055,1248.226
5056,1249.472
5057,1250.751
5058,1251.897
5059,1252.810
5060,1253.431
5061,1253.693
5062,1253.568
5063,1253.110
5064,1252.481
5065,1251.847
5066,1251.351
5067,1251.055
5068,1250.918
5069,1250.822
5070,1250.668
5071,1250.451
5072,1250.218
5073,1249.968
5074,1249.701
5075,1249.376
5076,1248.930
5077,1248.347
5078,1247.709
5079,1247.130
5080,1246.700
5081,1246.471
5082,1246.409
5083,1246.430
5084,1246.517
5085,1246.775
5086,1247.280
5087,1247.951
5088,1248.622
5089,1249.130
5090,1249.347
5091,1249.193
5092,1248.688
5093,1247.967
5094,1247.134
5095,1246.196
5096,1245.129
5097,1243.929
5098,1242.533
5099,1240.828
5100,1238.811
5101,1236.657
5102,1234.644
5103,1233.019
5104,1231.939
5105,1231.481
5106,1231.631
5107,1232.310
5108,1233.377
5109,1234.698
5110,1236.186
5111,1237.740
5112,1239.203
5113,1240.374
5114,1241.104
5115,1241.366
5116,1241.199
5117,1240.662
5118,1239.807
5119,1238.711
5120,1237.482
5121,1236.244
5122,1235.094
5123,1234.048
5124,1233.140
5125,1232.398
5126,1231.764
5127,1231.077
5128,1230.239
5129,1229.318
5130,1228.460
5131,1227.730
5132,1227.122
5133,1226.638
5134,1226.317
5135,1226.180
5136,1226.138
5137,1226.034
5138,1225.759
5139,1225.351
5140,1224.880
5141,1224.359
5142,1223.800
5143,1223.267
5144,1222.817
5145,1222.458
5146,1222.179
5147,1221.958
5148,1221.762
5149,1221.504
5150,1221.121
5151,1220.687
5152,1220.475
5153,1220.804
5154,1221.879
5155,1223.684
5156,1225.967
5157,1228.297
5158,1230.201
5159,1231.318
5160,1231.510
5161,1230.893
5162,1229.781
5163,1228.530
5164,1227.363
5165,1226.376
5166,1225.659
5167,1225.380
5168,1225.638
5169,1226.326
5170,1227.222
5171,1228.151
5172,1229.110
5173,1230.185
5174,1231.389
5175,1232.589
5176,1233.623
5177,1234.419
5178,1235.011
5179,1235.444
5180,1235.748
5181,1235.940
5182,1236.065
5183,1236.069
5184,1235.840
5185,1235.294
5186,1234.494
5187,1233.573
5188,1232.610
5189,1231.602
5190,1230.472
5191,1229.164
5192,1227.684
5193,1226.172
5194,1224.892
5195,1224.105
5196,1223.975
5197,1224.550
5198,1225.713
5199,1227.188
5200,1228.672
5201,1229.997
5202,1231.160
5203,1232.189
5204,1233.073
5205,1233.831
5206,1234.531
5207,1235.165
5208,1235.607
5209,1235.723
5210,1235.444
5211,1234.857
5212,1234.190
5213,1233.752
5214,1233.840
5215,1234.644
5216,1236.182
5217,1238.349
5218,1240.949
5219,1243.667
5220,1246.138
5221,1248.076
5222,1249.401
5223,1250.201
5224,1250.693
5225,1251.130
5226,1251.747
5227,1252.685
5228,1253.952
5229,1255.485
5230,1257.173
5231,1258.824
5232,1260.240
5233,1261.362
5234,1262.199
5235,1262.737
5236,1262.849
5237,1262.403
5238,1261.362
5239,1259.874
5240,1258.198
5241,1256.615
5242,1255.352
5243,1254.519
5244,1254.048
5245,1253.760
5246,1253.518
5247,1253.260
5248,1252.947
5249,1252.572
5250,1252.168
5251,1251.743
5252,1251.330
5253,1250.980
5254,1250.701
5255,1250.434
5256,1250.114
5257,1249.655
5258,1249.030
5259,1248.305
5260,1247.596
5261,1246.971
5262,1246.442
5263,1245.984
5264,1245.617
5265,1245.463
5266,1245.588
5267,1245.921
5268,1246.309
5269,1246.613
5270,1246.755
5271,1246.696
5272,1246.421
5273,1245.942
5274,1245.329
5275,1244.671
5276,1244.000
5277,1243.296
5278,1242.554
5279,1241.820
5280,1241.166
5281,1240.645
5282,1240.283
5283,1240.028
5284,1239.799
5285,1239.532
5286,1239.257
5287,1239.066
5288,1239.066
5289,1239.249
5290,1239.516
5291,1239.724
5292,1239.749
5293,1239.566
5294,1239.299
5295,1239.145
5296,1239.224
5297,1239.599
5298,1240.199
5299,1240.824
5300,1241.283
5301,1241.516
5302,1241.645
5303,1241.791
5304,1241.975
5305,1242.104
5306,1242.170
5307,1242.266
5308,1242.495
5309,1242.866
5310,1243.321
5311,1243.771
5312,1244.162
5313,1244.538
5314,1244.963
5315,1245.471
5316,1246.034
5317,1246.530
5318,1246.800
5319,1246.775
5320,1246.492
5321,1246.063
5322,1245.600
5323,1245.229
5324,1245.096
5325,1245.304
5326,1245.875
5327,1246.721
5328,1247.680
5329,1248.576
5330,1249.172
5331,1249.172
5332,1248.313
5333,1246.513
5334,1243.933
5335,1240.916
5336,1237.920
5337,1235.352
5338,1233.469
5339,1232.339
5340,1231.893
5341,1231.985
5342,1232.423
5343,1233.015
5344,1233.598
5345,1234.094
5346,1234.502
5347,1234.923
5348,1235.569
5349,1236.665
5350,1238.303
5351,1240.433
5352,1242.862
5353,1245.354
5354,1247.680
5355,1249.630
5356,1251.060
5357,1251.876
5358,1252.031
5359,1251.460
5360,1250.147
5361,1248.176
5362,1245.746
5363,1243.150
5364,1240.633
5365,1238.307
5366,1236.236
5367,1234.540
5368,1233.352
5369,1232.731
5370,1232.648
5371,1233.019
5372,1233.744
5373,1234.765
5374,1236.044
5375,1237.507
5376,1238.966
5377,1240.203
5378,1241.116
5379,1241.791
5380,1242.325
5381,1242.712
5382,1242.883
5383,1242.837
5384,1242.658
5385,1242.383
5386,1241.900
5387,1241.049
5388,1239.841
5389,1238.528
5390,1237.557
5391,1237.340
5392,1238.107
5393,1239.824
5394,1242.229
5395,1244.867
5396,1247.271
5397,1249.101
5398,1250.201
5399,1250.601
5400,1250.497
5401,1250.172
5402,1249.868
5403,1249.672
5404,1249.551
5405,1249.476
5406,1249.476
5407,1249.622
5408,1249.939
5409,1250.397
5410,1250.951
5411,1251.535
5412,1252.122
5413,1252.718
5414,1253.272
5415,1253.731
5416,1254.064
5417,1254.273
5418,1254.406
5419,1254.523
5420,1254.664
5421,1254.952
5422,1255.569
5423,1256.661
5424,1258.282
5425,1260.357
5426,1262.662
5427,1264.879
5428,1266.708
5429,1267.954
5430,1268.600
5431,1268.800
5432,1268.767
5433,1268.663
5434,1268.517
5435,1268.242
5436,1267.729
5437,1266.938
5438,1265.996
5439,1265.137
5440,1264.550
5441,1264.266
5442,1264.225
5443,1264.333
5444,1264.487
5445,1264.583
5446,1264.562
5447,1264.412
5448,1264.145
5449,1263.770
5450,1263.320
5451,1262.837
5452,1262.383
5453,1261.999
5454,1261.662
5455,1261.311
5456,1260.874
5457,1260.315
5458,1259.607
5459,1258.736
5460,1257.748
5461,1256.736
5462,1255.781
5463,1254.939
5464,1254.273
5465,1253.831
5466,1253.614
5467,1253.552
5468,1253.577
5469,1253.643
5470,1253.693
5471,1253.685
5472,1253.585
5473,1253.373
5474,1253.018
5475,1252.527
5476,1251.972
5477,1251.468
5478,1251.097
5479,1251.001
5480,1251.351
5481,1252.185
5482,1253.285
5483,1254.289
5484,1254.877
5485,1254.860
5486,1254.152
5487,1252.802
5488,1250.993
5489,1249.013
5490,1247.100
5491,1245.346
5492,1243.746
5493,1242.304
5494,1241.008
5495,1239.753
5496,1238.432
5497,1237.007
5498,1235.515
5499,1234.081
5500,1232.931
5501,1232.310
5502,1232.364
5503,1233.081
5504,1234.277
5505,1235.611
5506,1236.665
5507,1237.107
5508,1236.832
5509,1235.998
5510,1234.944
5511,1234.019
5512,1233.477
5513,1233.440
5514,1233.886
5515,1234.661
5516,1235.573
5517,1236.453
5518,1237.144
5519,1237.511
5520,1237.399
5521,1236.744
5522,1235.632
5523,1234.277
5524,1232.923
5525,1231.681
5526,1230.539
5527,1229.510
5528,1228.718
5529,1228.314
5530,1228.330
5531,1228.697
5532,1229.389
5533,1230.472
5534,1231.993
5535,1233.819
5536,1235.673
5537,1237.249
5538,1238.278
5539,1238.578
5540,1238.065
5541,1236.761
5542,1234.807
5543,1232.460
5544,1230.051
5545,1227.855
5546,1225.972
5547,1224.313
5548,1222.767
5549,1221.342
5550,1220.145
5551,1219.237
5552,1218.645
5553,1218.449
5554,1218.762
5555,1219.587
5556,1220.779
5557,1222.167
5558,1223.654
5559,1225.134
5560,1226.417
5561,1227.305
5562,1227.718
5563,1227.764
5564,1227.659
5565,1227.534
5566,1227.351
5567,1226.988
5568,1226.392
5569,1225.626
5570,1224.771
5571,1223.946
5572,1223.338
5573,1223.179
5574,1223.675
5575,1224.926
5576,1226.880
5577,1229.310
5578,1231.910
5579,1234.365
5580,1236.478
5581,1238.174
5582,1239.474
5583,1240.424
5584,1241.020
5585,1241.162
5586,1240.720
5587,1239.574
5588,1237.665
5589,1234.986
5590,1231.664
5591,1227.980
5592,1224.334
5593,1221.129
5594,1218.637
5595,1217.007
5596,1216.303
5597,1216.536
5598,1217.620
5599,1219.374
5600,1221.512
5601,1223.729
5602,1225.859
5603,1227.901
5604,1229.901
5605,1231.781
5606,1233.360
5607,1234.469
5608,1234.994
5609,1234.907
5610,1234.256
5611,1233.206
5612,1232.056
5613,1231.156
5614,1230.727
5615,1230.814
5616,1231.373
5617,1232.323
5618,1233.502
5619,1234.656
5620,1235.540
5621,1236.032
5622,1236.203
5623,1236.290
5624,1236.582
5625,1237.303
5626,1238.541
5627,1240.212
5628,1242.137
5629,1244.175
5630,1246.234
5631,1248.213
5632,1250.039
5633,1251.710
5634,1253.268
5635,1254.735
5636,1256.073
5637,1257.207
5638,1258.032
5639,1258.528
5640,1258.765
5641,1258.957
5642,1259.374
5643,1260.153
5644,1261.211
5645,1262.308
5646,1263.262
5647,1264.041
5648,1264.691
5649,1265.191
5650,1265.487
5651,1265.566
5652,1265.487
5653,1265.391
5654,1265.379
5655,1265.437
5656,1265.437
5657,1265.266
5658,1264.937
5659,1264.516
5660,1264.012
5661,1263.349
5662,1262.478
5663,1261.403
5664,1260.199
5665,1258.990
5666,1257.948
5667,1257.144
5668,1256.573
5669,1256.223
5670,1256.081
5671,1256.123
5672,1256.311
5673,1256.577
5674,1256.806
5675,1256.898
5676,1256.790
5677,1256.423
5678,1255.777
5679,1254.873
5680,1253.823
5681,1252.739
5682,1251.714
5683,1250.789
5684,1250.009
5685,1249.459
5686,1249.209
5687,1249.297
5688,1249.655
5689,1250.118
5690,1250.451
5691,1250.489
5692,1250.197
5693,1249.580
5694,1248.559
5695,1247.021
5696,1244.958
5697,1242.545
5698,1240.103
5699,1237.990
5700,1236.478
5701,1235.669
5702,1235.473
5703,1235.665
5704,1236.044
5705,1236.561
5706,1237.236
5707,1237.970
5708,1238.549
5709,1238.795
5710,1238.724
5711,1238.474
5712,1238.128
5713,1237.661
5714,1237.044
5715,1236.394
5716,1235.890
5717,1235.628
5718,1235.527
5719,1235.427
5720,1235.277
5721,1235.194
5722,1235.365
5723,1235.932
5724,1236.944
5725,1238.357
5726,1240.062
5727,1241.850
5728,1243.462
5729,1244.688
5730,1245.388
5731,1245.479
5732,1245.008
5733,1244.187
5734,1243.383
5735,1242.941
5736,1243.012
5737,1243.475
5738,1244.029
5739,1244.379
5740,1244.304
5741,1243.700
5742,1242.600
5743,1241.154
5744,1239.574
5745,1238.003
5746,1236.565
5747,1235.473
5748,1234.948
5749,1235.098
5750,1235.832
5751,1236.944
5752,1238.224
5753,1239.487
5754,1240.616
5755,1241.545
5756,1242.270
5757,1242.804
5758,1243.162
5759,1243.337
5760,1243.262
5761,1242.862
5762,1242.075
5763,1240.970
5764,1239.745
5765,1238.624
5766,1237.707
5767,1236.949
5768,1236.332
5769,1235.894
5770,1235.594
5771,1235.319
5772,1234.923
5773,1234.252
5774,1233.248
5775,1232.060
5776,1230.977
5777,1230.197
5778,1229.697
5779,1229.272
5780,1228.735
5781,1228.089
5782,1227.522
5783,1227.197
5784,1227.151
5785,1227.355
5786,1227.822
5787,1228.514
5788,1229.255
5789,1229.797
5790,1229.997
5791,1229.893
5792,1229.647
5793,1229.410
5794,1229.205
5795,1228.960
5796,1228.630
5797,1228.218
5798,1227.659
5799,1226.913
5800,1226.063
5801,1225.313
5802,1224.805
5803,1224.525
5804,1224.417
5805,1224.467
5806,1224.663
5807,1224.871
5808,1224.913
5809,1224.696
5810,1224.280
5811,1223.834
5812,1223.492
5813,1223.179
5814,1222.642
5815,1221.612
5816,1220.008
5817,1217.928
5818,1215.665
5819,1213.611
5820,1212.131
5821,1211.485
5822,1211.748
5823,1212.798
5824,1214.378
5825,1216.207
5826,1218.033
5827,1219.604
5828,1220.662
5829,1221.058
5830,1220.754
5831,1219.766
5832,1218.153
5833,1216.103
5834,1213.919
5835,1211.923
5836,1210.348
5837,1209.310
5838,1208.818
5839,1208.772
5840,1208.939
5841,1209.052
5842,1208.993
5843,1208.893
5844,1209.002
5845,1209.489
5846,1210.339
5847,1211.415
5848,1212.569
5849,1213.728
5850,1214.844
5851,1215.878
5852,1216.766
5853,1217.466
5854,1217.941
5855,1218.162
5856,1218.095
5857,1217.787
5858,1217.345
5859,1216.870
5860,1216.436
5861,1216.149
5862,1216.070
5863,1216.161
5864,1216.345
5865,1216.661
5866,1217.237
5867,1218.166
5868,1219.479
5869,1221.196
5870,1223.334
5871,1225.834
5872,1228.510
5873,1231.139
5874,1233.548
5875,1235.615
5876,1237.278
5877,1238.541
5878,1239.470
5879,1240.141
5880,1240.649
5881,1241.070
5882,1241.474
5883,1241.895
5884,1242.358
5885,1242.887
5886,1243.533
5887,1244.354
5888,1245.338
5889,1246.384
5890,1247.363
5891,1248.188
5892,1248.772
5893,1248.934
5894,1248.459
5895,1247.238
5896,1245.384
5897,1243.171
5898,1240.954
5899,1239.003
5900,1237.407
5901,1236.044
5902,1234.723
5903,1233.331
5904,1231.877
5905,1230.435
5906,1229.151
5907,1228.209
5908,1227.784
5909,1227.947
5910,1228.664
5911,1229.772
5912,1230.977
5913,1231.952
5914,1232.519
5915,1232.719
5916,1232.739
5917,1232.652
5918,1232.389
5919,1231.898
5920,1231.214
5921,1230.414
5922,1229.551
5923,1228.668
5924,1227.805
5925,1227.009
5926,1226.363
5927,1225.872
5928,1225.505
5929,1225.326
5930,1225.455
5931,1225.926
5932,1226.613
5933,1227.305
5934,1227.897
5935,1228.414
5936,1228.935
5937,1229.526
5938,1230.247
5939,1231.097
5940,1232.006
5941,1232.860
5942,1233.560
5943,1234.048
5944,1234.306
5945,1234.294
5946,1233.956
5947,1233.256
5948,1232.273
5949,1231.218
5950,1230.306
5951,1229.685
5952,1229.472
5953,1229.826
5954,1230.885
5955,1232.631
5956,1234.840
5957,1237.128
5958,1239.041
5959,1240.195
5960,1240.349
5961,1239.482
5962,1237.765
5963,1235.544
5964,1233.181
5965,1230.893
5966,1228.701
5967,1226.592
5968,1224.655
5969,1223.079
5970,1222.037
5971,1221.654
5972,1221.958
5973,1222.896
5974,1224.325
5975,1226.034
5976,1227.784
5977,1229.397
5978,1230.881
5979,1232.373
5980,1233.936
5981,1235.398
5982,1236.407
5983,1236.632
5984,1235.882
5985,1234.115
5986,1231.423
5987,1228.080
5988,1224.534
5989,1221.342
5990,1218.970
5991,1217.670
5992,1217.470
5993,1218.216
5994,1219.620
5995,1221.308
5996,1222.871
5997,1223.963
5998,1224.430
5999,1224.346
6000,1223.954
6001,1223.479
6002,1223.100
6003,1222.929
6004,1222.971
6005,1223.171
6006,1223.525
6007,1224.167
6008,1225.205
6009,1226.534
6010,1227.855
6011,1228.810
6012,1229.151
6013,1228.801
6014,1227.830
6015,1226.442
6016,1224.917
6017,1223.463
6018,1222.179
6019,1221.087
6020,1220.225
6021,1219.608
6022,1219.212
6023,1218.949
6024,1218.687
6025,1218.408
6026,1218.220
6027,1218.224
6028,1218.412
6029,1218.666
6030,1218.916
6031,1219.212
6032,1219.641
6033,1220.208
6034,1220.812
6035,1221.367
6036,1221.883
6037,1222.363
6038,1222.704
6039,1222.746
6040,1222.442
6041,1221.887
6042,1221.229
6043,1220.521
6044,1219.741
6045,1218.945
6046,1218.212
6047,1217.574
6048,1217.003
6049,1216.457
6050,1215.928
6051,1215.436
6052,1215.024
6053,1214.711
6054,1214.536
6055,1214.528
6056,1214.599
6057,1214.611
6058,1214.528
6059,1214.415
6060,1214.315
6061,1214.186
6062,1213.990
6063,1213.773
6064,1213.603
6065,1213.532
6066,1213.590
6067,1213.782
6068,1214.082
6069,1214.474
6070,1214.915
6071,1215.361
6072,1215.732
6073,1216.016
6074,1216.253
6075,1216.511
6076,1216.866
6077,1217.349
6078,1217.941
6079,1218.553
6080,1219.116
6081,1219.637
6082,1220.233
6083,1221.012
6084,1221.996
6085,1223.163
6086,1224.455
6087,1225.801
6088,1227.030
6089,1227.909
6090,1228.284
6091,1228.193
6092,1227.834
6093,1227.472
6094,1227.343
6095,1227.526
6096,1227.918
6097,1228.330
6098,1228.643
6099,1228.843
6100,1228.897
6101,1228.705
6102,1228.268
6103,1227.797
6104,1227.576
6105,1227.784
6106,1228.351
6107,1229.035
6108,1229.581
6109,1229.826
6110,1229.781
6111,1229.522
6112,1229.097
6113,1228.585
6114,1228.105
6115,1227.809
6116,1227.830
6117,1228.255
6118,1229.035
6119,1229.943
6120,1230.702
6121,1231.102
6122,1231.072
6123,1230.656
6124,1229.926
6125,1228.964
6126,1227.901
6127,1226.922
6128,1226.209
6129,1225.817
6130,1225.596
6131,1225.313
6132,1224.825
6133,1224.217
6134,1223.696
6135,1223.354
6136,1223.100
6137,1222.763
6138,1222.263
6139,1221.629
6140,1220.966
6141,1220.400
6142,1220.041
6143,1219.925
6144,1219.995
6145,1220.183
6146,1220.454
6147,1220.841
6148,1221.379
6149,1222.054
6150,1222.788
6151,1223.496
6152,1224.100
6153,1224.575
6154,1224.934
6155,1225.201
6156,1225.396
6157,1225.534
6158,1225.580
6159,1225.426
6160,1224.996
6161,1224.392
6162,1223.796
6163,1223.359
6164,1223.146
6165,1223.146
6166,1223.221
6167,1223.217
6168,1223.108
6169,1222.996
6170,1222.942
6171,1222.942
6172,1222.917
6173,1222.721
6174,1222.204
6175,1221.329
6176,1220.254
6177,1219.254
6178,1218.549
6179,1218.216
6180,1218.153
6181,1218.187
6182,1218.216
6183,1218.228
6184,1218.320
6185,1218.612
6186,1219.116
6187,1219.691
6188,1220.137
6189,1220.320
6190,1220.233
6191,1219.958
6192,1219.600
6193,1219.199
6194,1218.766
6195,1218.308
6196,1217.770
6197,1217.087
6198,1216.303
6199,1215.561
6200,1215.065
6201,1215.044
6202,1215.657
6203,1216.866
6204,1218.424
6205,1220.004
6206,1221.383
6207,1222.533
6208,1223.479
6209,1224.180
6210,1224.555
6211,1224.530
6212,1224.042
6213,1223.071
6214,1221.708
6215,1220.125
6216,1218.483
6217,1216.982
6218,1215.882
6219,1215.407
6220,1215.636
6221,1216.482
6222,1217.716
6223,1219.033
6224,1220.229
6225,1221.300
6226,1222.338
6227,1223.375
6228,1224.409
6229,1225.438
6230,1226.442
6231,1227.326
6232,1227.976
6233,1228.376
6234,1228.539
6235,1228.430
6236,1228.059
6237,1227.580
6238,1227.259
6239,1227.297
6240,1227.743
6241,1228.472
6242,1229.247
6243,1229.814
6244,1230.081
6245,1230.147
6246,1230.214
6247,1230.397
6248,1230.672
6249,1230.935
6250,1231.173
6251,1231.460
6252,1231.848
6253,1232.260
6254,1232.535
6255,1232.564
6256,1232.394
6257,1232.198
6258,1232.131
6259,1232.164
6260,1232.094
6261,1231.643
6262,1230.668
6263,1229.251
6264,1227.684
6265,1226.284
6266,1225.292
6267,1224.809
6268,1224.821
6269,1225.246
6270,1225.997
6271,1226.968
6272,1228.039
6273,1229.026
6274,1229.722
6275,1229.972
6276,1229.743
6277,1229.172
6278,1228.518
6279,1227.993
6280,1227.609
6281,1227.222
6282,1226.642
6283,1225.717
6284,1224.334
6285,1222.479
6286,1220.329
6287,1218.170
6288,1216.286
6289,1214.874
6290,1214.078
6291,1214.040
6292,1214.869
6293,1216.553
6294,1218.937
6295,1221.725
6296,1224.500
6297,1226.830
6298,1228.376
6299,1228.980
6300,1228.705
6301,1227.809
6302,1226.668
6303,1225.659
6304,1225.009
6305,1224.700
6306,1224.630
6307,1224.738
6308,1225.055
6309,1225.530
6310,1225.959
6311,1226.059
6312,1225.659
6313,1224.817
6314,1223.725
6315,1222.563
6316,1221.425
6317,1220.437
6318,1219.795
6319,1219.695
6320,1220.233
6321,1221.387
6322,1222.979
6323,1224.805
6324,1226.713
6325,1228.647
6326,1230.506
6327,1232.114
6328,1233.340
6329,1234.173
6330,1234.652
6331,1234.723
6332,1234.261
6333,1233.248
6334,1231.873
6335,1230.460
6336,1229.314
6337,1228.614
6338,1228.359
6339,1228.359
6340,1228.305
6341,1227.934
6342,1227.172
6343,1226.130
6344,1225.001
6345,1223.959
6346,1223.054
6347,1222.250
6348,1221.471
6349,1220.725
6350,1220.079
6351,1219.625
6352,1219.429
6353,1219.570
6354,1220.175
6355,1221.316
6356,1222.983
6357,1225.021
6358,1227.176
6359,1229.189
6360,1230.914
6361,1232.398
6362,1233.786
6363,1235.169
6364,1236.453
6365,1237.432
6366,1237.878
6367,1237.665
6368,1236.774
6369,1235.282
6370,1233.285
6371,1230.943
6372,1228.460
6373,1226.088
6374,1224.109
6375,1222.746
6376,1222.067
6377,1221.929
6378,1222.004
6379,1221.908
6380,1221.404
6381,1220.446
6382,1219.179
6383,1217.845
6384,1216.628
6385,1215.590
6386,1214.707
6387,1213.990
6388,1213.461
6389,1213.115
6390,1213.002
6391,1213.282
6392,1214.115
6393,1215.553
6394,1217.453
6395,1219.508
6396,1221.296
6397,1222.442
6398,1222.729
6399,1222.162
6400,1220.962
6401,1219.470
6402,1218.041
6403,1216.874
6404,1215.982
6405,1215.290
6406,1214.861
6407,1214.890
6408,1215.549
6409,1216.853
6410,1218.591
6411,1220.416
6412,1221.958
6413,1222.975
6414,1223.413
6415,1223.363
6416,1223.004
6417,1222.604
6418,1222.421
6419,1222.613
6420,1223.134
6421,1223.875
6422,1224.792
6423,1225.892
6424,1227.155
6425,1228.443
6426,1229.560
6427,1230.339
6428,1230.697
6429,1230.668
6430,1230.347
6431,1229.881
6432,1229.376
6433,1228.814
6434,1228.068
6435,1227.026
6436,1225.692
6437,1224.184
6438,1222.679
6439,1221.354
6440,1220.283
6441,1219.404
6442,1218.603
6443,1217.899
6444,1217.395
6445,1217.141
6446,1217.024
6447,1216.903
6448,1216.711
6449,1216.474
6450,1216.199
6451,1215.903
6452,1215.620
6453,1215.361
6454,1215.094
6455,1214.853
6456,1214.799
6457,1215.115
6458,1215.857
6459,1216.924
6460,1218.124
6461,1219.291
6462,1220.370
6463,1221.433
6464,1222.658
6465,1224.155
6466,1225.813
6467,1227.368
6468,1228.568
6469,1229.243
6470,1229.326
6471,1228.768
6472,1227.526
6473,1225.667
6474,1223.404
6475,1221.116
6476,1219.274
6477,1218.241
6478,1218.137
6479,1218.829
6480,1220.016
6481,1221.408
6482,1222.788
6483,1224.046
6484,1225.142
6485,1226.076
6486,1226.834
6487,1227.338
6488,1227.413
6489,1226.859
6490,1225.605
6491,1223.771
6492,1221.646
6493,1219.595
6494,1217.887
6495,1216.603
6496,1215.711
6497,1215.170
6498,1214.978
6499,1215.136
6500,1215.657
6501,1216.520
6502,1217.649
6503,1218.929
6504,1220.266
6505,1221.575
6506,1222.783
6507,1223.800
6508,1224.538
6509,1224.938
6510,1224.963
6511,1224.580
6512,1223.846
6513,1222.975
6514,1222.263
6515,1221.954
6516,1222.133
6517,1222.654
6518,1223.179
6519,1223.384
6520,1223.154
6521,1222.621
6522,1222.029
6523,1221.533
6524,1221.150
6525,1220.841
6526,1220.558
6527,1220.187
6528,1219.604
6529,1218.766
6530,1217.833
6531,1217.091
6532,1216.782
6533,1216.962
6534,1217.507
6535,1218.283
6536,1219.183
6537,1220.066
6538,1220.683
6539,1220.746
6540,1220.045
6541,1218.495
6542,1216.161
6543,1213.298
6544,1210.273
6545,1207.476
6546,1205.209
6547,1203.597
6548,1202.605
6549,1202.075
6550,1201.834
6551,1201.784
6552,1201.900
6553,1202.188
6554,1202.642
6555,1203.280
6556,1204.126
6557,1205.205
6558,1206.451
6559,1207.697
6560,1208.731
6561,1209.393
6562,1209.677
6563,1209.698
6564,1209.664
6565,1209.873
6566,1210.606
6567,1212.048
6568,1214.203
6569,1216.899
6570,1219.783
6571,1222.442
6572,1224.525
6573,1225.826
6574,1226.276
6575,1225.947
6576,1225.034
6577,1223.775
6578,1222.396
6579,1221.087
6580,1219.991
6581,1219.270
6582,1219.062
6583,1219.374
6584,1220.062
6585,1220.941
6586,1221.871
6587,1222.725
6588,1223.429
6589,1223.988
6590,1224.438
6591,1224.767
6592,1224.913
6593,1224.909
6594,1224.863
6595,1224.892
6596,1225.042
6597,1225.296
6598,1225.621
6599,1226.047
6600,1226.597
6601,1227.226
6602,1227.843
6603,1228.409
6604,1228.868
6605,1229.051
6606,1228.785
6607,1228.034
6608,1226.893
6609,1225.496
6610,1223.963
6611,1222.446
6612,1221.116
6613,1220.120
6614,1219.575
6615,1219.470
6616,1219.629
6617,1219.825
6618,1219.958
6619,1220.075
6620,1220.279
6621,1220.662
6622,1221.246
6623,1222.017
6624,1222.967
6625,1223.988
6626,1224.896
6627,1225.546
6628,1225.926
6629,1226.092
6630,1226.101
6631,1225.980
6632,1225.784
6633,1225.617
6634,1225.609
6635,1225.822
6636,1226.142
6637,1226.380
6638,1226.384
6639,1226.122
6640,1225.638
6641,1224.959
6642,1224.075
6643,1222.992
6644,1221.787
6645,1220.587
6646,1219.466
6647,1218.416
6648,1217.428
6649,1216.566
6650,1215.882
6651,1215.407
6652,1215.215
6653,1215.490
6654,1216.441
6655,1218.091
6656,1220.233
6657,1222.492
6658,1224.500
6659,1225.976
6660,1226.759
6661,1226.834
6662,1226.267
6663,1225.184
6664,1223.800
6665,1222.392
6666,1221.283
6667,1220.775
6668,1221.008
6669,1221.904
6670,1223.142
6671,1224.313
6672,1225.034
6673,1225.080
6674,1224.371
6675,1222.950
6676,1220.983
6677,1218.729
6678,1216.511
6679,1214.615
6680,1213.165
6681,1212.069
6682,1211.127
6683,1210.181
6684,1209.227
6685,1208.335
6686,1207.543
6687,1206.864
6688,1206.343
6689,1205.997
6690,1205.776
6691,1205.614
6692,1205.518
6693,1205.551
6694,1205.780
6695,1206.205
6696,1206.701
6697,1207.018
6698,1206.910
6699,1206.305
6700,1205.334
6701,1204.217
6702,1203.084
6703,1201.942
6704,1200.725
6705,1199.471
6706,1198.379
6707,1197.733
6708,1197.720
6709,1198.425
6710,1199.825
6711,1201.788
6712,1204.055
6713,1206.289
6714,1208.185
6715,1209.539
6716,1210.314
6717,1210.594
6718,1210.502
6719,1210.139
6720,1209.598
6721,1208.952
6722,1208.268
6723,1207.618
6724,1207.060
6725,1206.597
6726,1206.197
6727,1205.880
6728,1205.689
6729,1205.664
6730,1205.793
6731,1206.026
6732,1206.339
6733,1206.743
6734,1207.268
6735,1207.906
6736,1208.639
6737,1209.443
6738,1210.273
6739,1211.073
6740,1211.777
6741,1212.369
6742,1212.848
6743,1213.219
6744,1213.507
6745,1213.786
6746,1214.090
6747,1214.415
6748,1214.765
6749,1215.061
6750,1215.132
6751,1214.828
6752,1214.107
6753,1213.111
6754,1212.081
6755,1211.285
6756,1210.948
6757,1211.202
6758,1212.023
6759,1213.236
6760,1214.594
6761,1215.920
6762,1217.170
6763,1218.391
6764,1219.545
6765,1220.508
6766,1221.233
6767,1221.787
6768,1222.271
6769,1222.708
6770,1222.971
6771,1222.871
6772,1222.346
6773,1221.533
6774,1220.737
6775,1220.304
6776,1220.537
6777,1221.554
6778,1223.242
6779,1225.230
6780,1227.063
6781,1228.380
6782,1229.026
6783,1229.047
6784,1228.597
6785,1227.755
6786,1226.488
6787,1224.780
6788,1222.713
6789,1220.475
6790,1218.324
6791,1216.599
6792,1215.570
6793,1215.340
6794,1215.853
6795,1216.903
6796,1218.166
6797,1219.312
6798,1220.191
6799,1220.846
6800,1221.383
6801,1221.821
6802,1222.108
6803,1222.229
6804,1222.238
6805,1222.221
6806,1222.275
6807,1222.400
6808,1222.500
6809,1222.492
6810,1222.375
6811,1222.238
6812,1222.196
6813,1222.221
6814,1222.133
6815,1221.737
6816,1220.971
6817,1219.966
6818,1218.916
6819,1217.941
6820,1217.074
6821,1216.382
6822,1215.924
6823,1215.670
6824,1215.561
6825,1215.595
6826,1215.774
6827,1216.107
6828,1216.632
6829,1217.324
6830,1218.099
6831,1218.841
6832,1219.383
6833,1219.529
6834,1219.187
6835,1218.466
6836,1217.595
6837,1216.741
6838,1215.899
6839,1214.928
6840,1213.707
6841,1212.281
6842,1210.869
6843,1209.764
6844,1209.173
6845,1209.177
6846,1209.702
6847,1210.594
6848,1211.661
6849,1212.769
6850,1213.923
6851,1215.236
6852,1216.820
6853,1218.633
6854,1220.512
6855,1222.208
6856,1223.429
6857,1223.900
6858,1223.509
6859,1222.371
6860,1220.829
6861,1219.295
6862,1218.108
6863,1217.470
6864,1217.416
6865,1217.808
6866,1218.349
6867,1218.662
6868,1218.449
6869,1217.612
6870,1216.278
6871,1214.682
6872,1213.011
6873,1211.423
6874,1210.064
6875,1209.060
6876,1208.472
6877,1208.335
6878,1208.672
6879,1209.464
6880,1210.619
6881,1211.952
6882,1213.207
6883,1214.153
6884,1214.732
6885,1215.069
6886,1215.340
6887,1215.590
6888,1215.732
6889,1215.686
6890,1215.524
6891,1215.432
6892,1215.553
6893,1215.832
6894,1216.128
6895,1216.324
6896,1216.453
6897,1216.586
6898,1216.707
6899,1216.716
6900,1216.578
6901,1216.324
6902,1215.999
6903,1215.599
6904,1215.094
6905,1214.494
6906,1213.890
6907,1213.403
6908,1213.098
6909,1213.023
6910,1213.148
6911,1213.365
6912,1213.557
6913,1213.661
6914,1213.673
6915,1213.578
6916,1213.369
6917,1213.090
6918,1212.811
6919,1212.573
6920,1212.390
6921,1212.273
6922,1212.219
6923,1212.190
6924,1212.144
6925,1212.073
6926,1211.973
6927,1211.802
6928,1211.548
6929,1211.202
6930,1210.777
6931,1210.285
6932,1209.768
6933,1209.273
6934,1208.839
6935,1208.502
6936,1208.285
6937,1208.185
6938,1208.147
6939,1208.081
6940,1207.901
6941,1207.589
6942,1207.189
6943,1206.780
6944,1206.472
6945,1206.314
6946,1206.293
6947,1206.368
6948,1206.518
6949,1206.730
6950,1206.960
6951,1207.143
6952,1207.260
6953,1207.339
6954,1207.406
6955,1207.472
6956,1207.556
6957,1207.735
6958,1208.164
6959,1209.023
6960,1210.373
6961,1212.073
6962,1213.865
6963,1215.470
6964,1216.720
6965,1217.632
6966,1218.412
6967,1219.316
6968,1220.516
6969,1222.050
6970,1223.763
6971,1225.342
6972,1226.463
6973,1226.926
6974,1226.672
6975,1225.776
6976,1224.346
6977,1222.521
6978,1220.483
6979,1218.503
6980,1216.916
6981,1215.986
6982,1215.815
6983,1216.345
6984,1217.362
6985,1218.608
6986,1219.916
6987,1221.250
6988,1222.571
6989,1223.817
6990,1224.934
6991,1225.867
6992,1226.526
6993,1226.847
6994,1226.834
6995,1226.597
6996,1226.351
6997,1226.342
6998,1226.738
6999,1227.522
7000,1228.480
7001,1229.335
7002,1229.885
7003,1230.064
7004,1229.976
7005,1229.831
7006,1229.776
7007,1229.810
7008,1229.868
7009,1229.918
7010,1229.906
7011,1229.768
7012,1229.485
7013,1229.072
7014,1228.560
7015,1228.014
7016,1227.559
7017,1227.359
7018,1227.543
7019,1228.143
7020,1229.055
7021,1230.014
7022,1230.718
7023,1231.039
7024,1231.052
7025,1230.914
7026,1230.818
7027,1230.972
7028,1231.506
7029,1232.394
7030,1233.465
7031,1234.523
7032,1235.373
7033,1235.844
7034,1235.819
7035,1235.336
7036,1234.561
7037,1233.673
7038,1232.785
7039,1231.960
7040,1231.210
7041,1230.506
7042,1229.831
7043,1229.155
7044,1228.480
7045,1227.897
7046,1227.518
7047,1227.401
7048,1227.484
7049,1227.630
7050,1227.801
7051,1228.089
7052,1228.580
7053,1229.230
7054,1229.868
7055,1230.410
7056,1230.952
7057,1231.648
7058,1232.544
7059,1233.490
7060,1234.219
7061,1234.444
7062,1233.940
7063,1232.614
7064,1230.552
7065,1228.034
7066,1225.426
7067,1223.033
7068,1221.025
7069,1219.470
7070,1218.449
7071,1218.062
7072,1218.416
7073,1219.554
7074,1221.408
7075,1223.759
7076,1226.363
7077,1229.022
7078,1231.568
7079,1233.798
7080,1235.515
7081,1236.569
7082,1236.861
7083,1236.336
7084,1234.973
7085,1232.823
7086,1230.006
7087,1226.768
7088,1223.492
7089,1220.608
7090,1218.453
7091,1217.149
7092,1216.616
7093,1216.674
7094,1217.157
7095,1217.962
7096,1218.966
7097,1219.979
7098,1220.841
7099,1221.542
7100,1222.187
7101,1222.817
7102,1223.354
7103,1223.788
7104,1224.246
7105,1224.909
7106,1225.801
7107,1226.751
7108,1227.488
7109,1227.784
7110,1227.518
7111,1226.642
7112,1225.230
7113,1223.517
7114,1221.821
7115,1220.454
7116,1219.683
7117,1219.695
7118,1220.546
7119,1222.100
7120,1224.059
7121,1226.067
7122,1227.864
7123,1229.364
7124,1230.660
7125,1231.873
7126,1233.006
7127,1233.927
7128,1234.469
7129,1234.519
7130,1234.094
7131,1233.294
7132,1232.244
7133,1231.047
7134,1229.835
7135,1228.843
7136,1228.330
7137,1228.460
7138,1229.164
7139,1230.201
7140,1231.285
7141,1232.131
7142,1232.506
7143,1232.202
7144,1231.114
7145,1229.280
7146,1226.930
7147,1224.409
7148,1222.083
7149,1220.262
7150,1219.149
7151,1218.883
7152,1219.499
7153,1220.896
7154,1222.850
7155,1225.026
7156,1227.038
7157,1228.526
7158,1229.247
7159,1229.172
7160,1228.522
7161,1227.630
7162,1226.768
7163,1226.067
7164,1225.626
7165,1225.492
7166,1225.630
7167,1226.005
7168,1226.617
7169,1227.472
7170,1228.464
7171,1229.456
7172,1230.406
7173,1231.314
7174,1232.069
7175,1232.477
7176,1232.419
7177,1231.977
7178,1231.439
7179,1231.185
7180,1231.489
7181,1232.339
7182,1233.473
7183,1234.502
7184,1235.136
7185,1235.294
7186,1235.061
7187,1234.648
7188,1234.306
7189,1234.261
7190,1234.627
7191,1235.357
7192,1236.328
7193,1237.382
7194,1238.324
7195,1238.945
7196,1239.145
7197,1238.978
7198,1238.541
7199,1237.874
7200,1236.919
7201,1235.628
7202,1234.006
7203,1232.198
7204,1230.381
7205,1228.635
7206,1226.905
7207,1225.151
7208,1223.442
7209,1221.937
7210,1220.816
7211,1220.225
7212,1220.262
7213,1220.921
7214,1222.071
7215,1223.488
7216,1224.901
7217,1226.142
7218,1227.193
7219,1228.064
7220,1228.676
7221,1228.893
7222,1228.714
7223,1228.314
7224,1227.893
7225,1227.501
7226,1227.034
7227,1226.401
7228,1225.659
7229,1225.001
7230,1224.621
7231,1224.617
7232,1224.855
7233,1225.063
7234,1224.984
7235,1224.534
7236,1223.850
7237,1223.121
7238,1222.446
7239,1221.854
7240,1221.354
7241,1220.904
7242,1220.437
7243,1219.958
7244,1219.533
7245,1219.216
7246,1219.049
7247,1219.033
7248,1219.108
7249,1219.195
7250,1219.254
7251,1219.279
7252,1219.270
7253,1219.258
7254,1219.279
7255,1219.366
7256,1219.595
7257,1219.966
7258,1220.383
7259,1220.812
7260,1221.354
7261,1222.121
7262,1223.092
7263,1224.121
7264,1225.059
7265,1225.863
7266,1226.538
7267,1226.963
7268,1226.884
7269,1226.088
7270,1224.563
7271,1222.533
7272,1220.320
7273,1218.278
7274,1216.699
7275,1215.795
7276,1215.665
7277,1216.286
7278,1217.503
7279,1219.058
7280,1220.666
7281,1222.137
7282,1223.454
7283,1224.734
7284,1226.080
7285,1227.459
7286,1228.735
7287,1229.793
7288,1230.664
7289,1231.443
7290,1232.198
7291,1232.852
7292,1233.269
7293,1233.352
7294,1233.135
7295,1232.781
7296,1232.452
7297,1232.173
7298,1231.827
7299,1231.339
7300,1230.785
7301,1230.343
7302,1230.114
7303,1230.014
7304,1229.835
7305,1229.443
7306,1228.839
7307,1228.126
7308,1227.405
7309,1226.688
7310,1225.930
7311,1225.126
7312,1224.363
7313,1223.775
7314,1223.509
7315,1223.625
7316,1224.017
7317,1224.442
7318,1224.684
7319,1224.696
7320,1224.575
7321,1224.496
7322,1224.638
7323,1225.080
7324,1225.751
7325,1226.484
7326,1227.205
7327,1227.947
7328,1228.747
7329,1229.539
7330,1230.214
7331,1230.785
7332,1231.356
7333,1231.989
7334,1232.652
7335,1233.244
7336,1233.665
7337,1233.902
7338,1234.048
7339,1234.165
7340,1234.169
7341,1233.844
7342,1233.040
7343,1231.802
7344,1230.381
7345,1229.085
7346,1228.101
7347,1227.459
7348,1227.068
7349,1226.855
7350,1226.826
7351,1227.047
7352,1227.522
7353,1228.168
7354,1228.889
7355,1229.610
7356,1230.268
7357,1230.847
7358,1231.418
7359,1232.023
7360,1232.598
7361,1233.015
7362,1233.223
7363,1233.310
7364,1233.348
7365,1233.281
7366,1232.973
7367,1232.394
7368,1231.673
7369,1230.956
7370,1230.327
7371,1229.893
7372,1229.851
7373,1230.431
7374,1231.723
7375,1233.648
7376,1235.948
7377,1238.291
7378,1240.416
7379,1242.258
7380,1243.850
7381,1245.275
7382,1246.592
7383,1247.830
7384,1248.980
7385,1250.022
7386,1250.922
7387,1251.660
7388,1252.214
7389,1252.535
7390,1252.606
7391,1252.472
7392,1252.206
7393,1251.881
7394,1251.564
7395,1251.314
7396,1251.118
7397,1250.943
7398,1250.776
7399,1250.618
7400,1250.484
7401,1250.443
7402,1250.568
7403,1250.889
7404,1251.368
7405,1251.926
7406,1252.497
7407,1253.027
7408,1253.498
7409,1253.877
7410,1254.077
7411,1253.910
7412,1253.214
7413,1251.956
7414,1250.230
7415,1248.226
7416,1246.221
7417,1244.496
7418,1243.233
7419,1242.554
7420,1242.545
7421,1243.191
7422,1244.371
7423,1245.896
7424,1247.551
7425,1249.088
7426,1250.305
7427,1251.093
7428,1251.414
7429,1251.276
7430,1250.672
7431,1249.593
7432,1248.034
7433,1246.025
7434,1243.617
7435,1240.916
7436,1238.007
7437,1234.940
7438,1231.835
7439,1228.968
7440,1226.655
7441,1225.117
7442,1224.396
7443,1224.405
7444,1224.980
7445,1225.930
7446,1226.972
7447,1227.843
7448,1228.422
7449,1228.805
7450,1229.185
7451,1229.701
7452,1230.410
7453,1231.289
7454,1232.244
7455,1233.052
7456,1233.435
7457,1233.190
7458,1232.335
7459,1231.093
7460,1229.776
7461,1228.622
7462,1227.768
7463,1227.243
7464,1227.030
7465,1227.038
7466,1227.138
7467,1227.226
7468,1227.230
7469,1227.072
7470,1226.668
7471,1226.072
7472,1225.421
7473,1224.809
7474,1224.225
7475,1223.638
7476,1223.054
7477,1222.471
7478,1221.858
7479,1221.233
7480,1220.621
7481,1220.037
7482,1219.466
7483,1218.866
7484,1218.183
7485,1217.474
7486,1216.832
7487,1216.278
7488,1215.732
7489,1215.157
7490,1214.615
7491,1214.215
7492,1214.061
7493,1214.198
7494,1214.624
7495,1215.265
7496,1216.036
7497,1216.816
7498,1217.474
7499,1217.920
7500,1218.133
7501,1218.191
7502,1218.224
7503,1218.416
7504,1218.929
7505,1219.766
7506,1220.750
7507,1221.646
7508,1222.292
7509,1222.604
7510,1222.579
7511,1222.308
7512,1221.975
7513,1221.829
7514,1222.054
7515,1222.696
7516,1223.696
7517,1224.871
7518,1225.951
7519,1226.630
7520,1226.751
7521,1226.322
7522,1225.446
7523,1224.284
7524,1223.025
7525,1221.917
7526,1221.179
7527,1220.900
7528,1221.041
7529,1221.479
7530,1222.017
7531,1222.408
7532,1222.400
7533,1221.921
7534,1221.112
7535,1220.225
7536,1219.483
7537,1218.912
7538,1218.391
7539,1217.762
7540,1217.012
7541,1216.232
7542,1215.511
7543,1214.911
7544,1214.444
7545,1214.073
7546,1213.832
7547,1213.894
7548,1214.549
7549,1215.999
7550,1218.245
7551,1221.029
7552,1223.934
7553,1226.555
7554,1228.622
7555,1230.039
7556,1230.881
7557,1231.381
7558,1231.823
7559,1232.310
7560,1232.719
7561,1232.769
7562,1232.235
7563,1230.993
7564,1229.085
7565,1226.743
7566,1224.363
7567,1222.379
7568,1221.100
7569,1220.641
7570,1220.891
7571,1221.567
7572,1222.300
7573,1222.788
7574,1222.892
7575,1222.700
7576,1222.458
7577,1222.454
7578,1222.908
7579,1223.896
7580,1225.330
7581,1226.980
7582,1228.651
7583,1230.247
7584,1231.727
7585,1233.048
7586,1234.219
7587,1235.240
7588,1236.094
7589,1236.803
7590,1237.432
7591,1238.040
7592,1238.670
7593,1239.262
7594,1239.695
7595,1239.941
7596,1240.070
7597,1240.162
7598,1240.270
7599,1240.420
7600,1240.608
7601,1240.783
7602,1240.866
7603,1240.753
7604,1240.374
7605,1239.753
7606,1239.041
7607,1238.491
7608,1238.311
7609,1238.557
7610,1239.095
7611,1239.674
7612,1240.024
7613,1239.987
7614,1239.532
7615,1238.736
7616,1237.757
7617,1236.819
7618,1236.153
7619,1235.848
7620,1235.865
7621,1236.069
7622,1236.253
7623,1236.186
7624,1235.715
7625,1234.898
7626,1233.944
7627,1233.060
7628,1232.314
7629,1231.660
7630,1231.064
7631,1230.547
7632,1230.106
7633,1229.718
7634,1229.414
7635,1229.214
7636,1229.022
7637,1228.701
7638,1228.176
7639,1227.501
7640,1226.743
7641,1225.963
7642,1225.205
7643,1224.484
7644,1223.817
7645,1223.229
7646,1222.704
7647,1222.167
7648,1221.571
7649,1220.896
7650,1220.120
7651,1219.216
7652,1218.128
7653,1216.774
7654,1215.036
7655,1212.861
7656,1210.289
7657,1207.443
7658,1204.472
7659,1201.538
7660,1198.804
7661,1196.441
7662,1194.591
7663,1193.365
7664,1192.824
7665,1192.940
7666,1193.607
7667,1194.674
7668,1196.016
7669,1197.562
7670,1199.217
7671,1200.833
7672,1202.234
7673,1203.359
7674,1204.322
7675,1205.259
7676,1206.209
7677,1207.114
7678,1207.931
7679,1208.639
7680,1209.231
7681,1209.681
7682,1209.985
7683,1210.160
7684,1210.285
7685,1210.510
7686,1211.002
7687,1211.823
7688,1212.907
7689,1214.148
7690,1215.515
7691,1217.103
7692,1218.970
7693,1221.033
7694,1223.108
7695,1224.980
7696,1226.463
7697,1227.451
7698,1227.922
7699,1227.914
7700,1227.576
7701,1227.093
7702,1226.597
7703,1226.097
7704,1225.463
7705,1224.530
7706,1223.238
7707,1221.650
7708,1219.900
7709,1218.178
7710,1216.699
7711,1215.607
7712,1214.965
7713,1214.753
7714,1214.828
7715,1214.919
7716,1214.744
7717,1214.115
7718,1212.998
7719,1211.444
7720,1209.556
7721,1207.451
7722,1205.234
7723,1202.992
7724,1200.779
7725,1198.583
7726,1196.358
7727,1194.091
7728,1191.794
7729,1189.448
7730,1186.981
7731,1184.418
7732,1181.938
7733,1179.759
7734,1177.992
7735,1176.633
7736,1175.666
7737,1175.091
7738,1174.841
7739,1174.779
7740,1174.766
7741,1174.720
7742,1174.562
7743,1174.266
7744,1173.816
7745,1173.162
7746,1172.232
7747,1171.061
7748,1169.782
7749,1168.573
7750,1167.594
7751,1166.985
7752,1166.860
7753,1167.323
7754,1168.465
7755,1170.286
7756,1172.662
7757,1175.329
7758,1178.050
7759,1180.696
7760,1183.218
7761,1185.610
7762,1187.910
7763,1190.198
7764,1192.515
7765,1194.849
7766,1197.216
7767,1199.662
7768,1202.305
7769,1205.243
7770,1208.439
7771,1211.777
7772,1215.157
7773,1218.499
7774,1221.725
7775,1224.784
7776,1227.714
7777,1230.589
7778,1233.365
7779,1235.853
7780,1237.845
7781,1239.324
7782,1240.499
7783,1241.666
7784,1243.008
7785,1244.442
7786,1245.696
7787,1246.459
7788,1246.542
7789,1245.875
7790,1244.492
7791,1242.512
7792,1240.174
7793,1237.695
7794,1235.177
7795,1232.673
7796,1230.239
7797,1227.926
7798,1225.717
7799,1223.554
7800,1221.379
7801,1219.091
7802,1216.636
7803,1214.015
7804,1211.265
7805,1208.389
7806,1205.339
7807,1202.030
7808,1198.437
7809,1194.657
7810,1190.936
7811,1187.581
7812,1184.810
7813,1182.672
7814,1181.105
7815,1180.030
7816,1179.450
7817,1179.409
7818,1179.909
7819,1180.884
7820,1182.122
7821,1183.305
7822,1184.130
7823,1184.476
7824,1184.430
7825,1184.210
7826,1183.972
7827,1183.818
7828,1183.826
7829,1184.126
7830,1184.785
7831,1185.764
7832,1186.964
7833,1188.310
7834,1189.744
7835,1191.190
7836,1192.603
7837,1193.961
7838,1195.241
7839,1196.333
7840,1197.104
7841,1197.533
7842,1197.750
7843,1198.000
7844,1198.504
7845,1199.354
7846,1200.575
7847,1202.238
7848,1204.417
7849,1207.135
7850,1210.356
7851,1214.003
7852,1217.912
7853,1221.837
7854,1225.496
7855,1228.701
7856,1231.368
7857,1233.598
7858,1235.548
7859,1237.307
7860,1238.861
7861,1240.220
7862,1241.404
7863,1242.412
7864,1243.229
7865,1243.867
7866,1244.367
7867,1244.750
7868,1244.963
7869,1244.933
7870,1244.654
7871,1244.154
7872,1243.354
7873,1242.033
7874,1239.928
7875,1236.828
7876,1232.681
7877,1227.609
7878,1221.908
7879,1215.945
7880,1210.014
7881,1204.367
7882,1199.233
7883,1194.807
7884,1191.228
7885,1188.573
7886,1186.889
7887,1186.168
7888,1186.364
7889,1187.360
7890,1188.969
7891,1190.915
7892,1192.882
7893,1194.582
7894,1195.824
7895,1196.570
7896,1196.945
7897,1197.137
7898,1197.274
7899,1197.441
7900,1197.720
7901,1198.125
7902,1198.612
7903,1199.167
7904,1199.833
7905,1200.650
7906,1201.692
7907,1203.088
7908,1204.951
7909,1207.293
7910,1210.023
7911,1213.061
7912,1216.320
7913,1219.687
7914,1223.058
7915,1226.376
7916,1229.568
7917,1232.473
7918,1234.890
7919,1236.694
7920,1237.915
7921,1238.682
7922,1239.145
7923,1239.457
7924,1239.737
7925,1240.028
7926,1240.287
7927,1240.474
7928,1240.645
7929,1240.912
7930,1241.337
7931,1241.895
7932,1242.550
7933,1243.271
7934,1244.037
7935,1244.758
7936,1245.334
7937,1245.721
7938,1245.959
7939,1246.100
7940,1246.104
7941,1245.884
7942,1245.346
7943,1244.454
7944,1243.200
7945,1241.608
7946,1239.782
7947,1237.865
7948,1236.019
7949,1234.456
7950,1233.402
7951,1232.990
7952,1233.194
7953,1233.840
7954,1234.682
7955,1235.498
7956,1236.140
7957,1236.544
7958,1236.644
7959,1236.348
7960,1235.632
7961,1234.602
7962,1233.531
7963,1232.764
7964,1232.585
7965,1233.102
7966,1234.215
7967,1235.661
7968,1237.211
7969,1238.716
7970,1240.041
7971,1241.045
7972,1241.624
7973,1241.724
7974,1241.291
7975,1240.320
7976,1238.836
7977,1236.911
7978,1234.652
7979,1232.235
7980,1229.860
7981,1227.622
7982,1225.467
7983,1223.225
7984,1220.721
7985,1217.887
7986,1214.765
7987,1211.410
7988,1207.839
7989,1204.076
7990,1200.254
7991,1196.604
7992,1193.328
7993,1190.548
7994,1188.277
7995,1186.435
7996,1184.906
7997,1183.597
7998,1182.480
7999,1181.567
8000,1180.892
8001,1180.501
8002,1180.446
8003,1180.801
8004,1181.622
8005,1182.884
8006,1184.455
8007,1186.118
8008,1187.652
8009,1188.885
8010,1189.673
8011,1189.890
8012,1189.536
8013,1188.731
8014,1187.664
8015,1186.552
8016,1185.614
8017,1185.101
8018,1185.185
8019,1185.935
8020,1187.314
8021,1189.206
8022,1191.415
8023,1193.724
8024,1195.953
8025,1197.991
8026,1199.775
8027,1201.288
8028,1202.525
8029,1203.476
8030,1204.134
8031,1204.484
8032,1204.501
8033,1204.234
8034,1203.888
8035,1203.734
8036,1203.922
8037,1204.413
8038,1204.988
8039,1205.380
8040,1205.464
8041,1205.376
8042,1205.434
8043,1205.984
8044,1207.243
8045,1209.281
8046,1211.994
8047,1215.132
8048,1218.358
8049,1221.287
8050,1223.609
8051,1225.146
8052,1225.834
8053,1225.663
8054,1224.680
8055,1223.042
8056,1221.016
8057,1218.983
8058,1217.320
8059,1216.295
8060,1215.957
8061,1216.120
8062,1216.507
8063,1216.932
8064,1217.312
8065,1217.587
8066,1217.703
8067,1217.645
8068,1217.362
8069,1216.853
8070,1216.149
8071,1215.265
8072,1214.203
8073,1213.048
8074,1211.915
8075,1210.906
8076,1210.094
8077,1209.548
8078,1209.302
8079,1209.314
8080,1209.518
8081,1209.910
8082,1210.498
8083,1211.160
8084,1211.669
8085,1211.852
8086,1211.719
8087,1211.402
8088,1211.052
8089,1210.785
8090,1210.669
8091,1210.731
8092,1210.985
8093,1211.398
8094,1211.906
8095,1212.486
8096,1213.107
8097,1213.711
8098,1214.186
8099,1214.474
8100,1214.507
8101,1214.169
8102,1213.344
8103,1211.998
8104,1210.227
8105,1208.293
8106,1206.543
8107,1205.284
8108,1204.705
8109,1204.913
8110,1205.922
8111,1207.664
8112,1209.948
8113,1212.498
8114,1214.974
8115,1217.041
8116,1218.487
8117,1219.308
8118,1219.720
8119,1220.066
8120,1220.662
8121,1221.646
8122,1222.975
8123,1224.521
8124,1226.180
8125,1227.834
8126,1229.347
8127,1230.635
8128,1231.648
8129,1232.331
8130,1232.714
8131,1232.981
8132,1233.356
8133,1233.952
8134,1234.794
8135,1235.907
8136,1237.282
8137,1238.732
8138,1239.941
8139,1240.666
8140,1240.887
8141,1240.791
8142,1240.633
8143,1240.570
8144,1240.653
8145,1240.870
8146,1241.208
8147,1241.645
8148,1242.191
8149,1242.837
8150,1243.412
8151,1243.633
8152,1243.254
8153,1242.208
8154,1240.591
8155,1238.628
8156,1236.665
8157,1235.086
8158,1234.165
8159,1233.973
8160,1234.406
8161,1235.282
8162,1236.436
8163,1237.782
8164,1239.224
8165,1240.658
8166,1241.950
8167,1242.975
8168,1243.687
8169,1244.112
8170,1244.371
8171,1244.592
8172,1244.879
8173,1245.242
8174,1245.642
8175,1246.025
8176,1246.346
8177,1246.542
8178,1246.513
8179,1246.230
8180,1245.734
8181,1245.100
8182,1244.383
8183,1243.637
8184,1242.925
8185,1242.262
8186,1241.645
8187,1241.054
8188,1240.478
8189,1239.932
8190,1239.432
8191,1239.011
8192,1238.686
8193,1238.453
8194,1238.295
8195,1238.241
8196,1238.328
8197,1238.586
8198,1239.011
8199,1239.549
8200,1240.116
8201,1240.616
8202,1240.954
8203,1241.083
8204,1240.974
8205,1240.553
8206,1239.799
8207,1238.845
8208,1237.882
8209,1237.078
8210,1236.515
8211,1236.115
8212,1235.598
8213,1234.652
8214,1233.102
8215,1231.022
8216,1228.693
8217,1226.438
8218,1224.450
8219,1222.750
8220,1221.300
8221,1220.108
8222,1219.183
8223,1218.483
8224,1217.920
8225,1217.407
8226,1216.878
8227,1216.282
8228,1215.549
8229,1214.611
8230,1213.436
8231,1212.015
8232,1210.398
8233,1208.681
8234,1206.985
8235,1205.364
8236,1203.834
8237,1202.396
8238,1201.042
8239,1199.742
8240,1198.483
8241,1197.312
8242,1196.308
8243,1195.549
8244,1195.057
8245,1194.849
8246,1194.924
8247,1195.274
8248,1195.828
8249,1196.487
8250,1197.179
8251,1197.887
8252,1198.641
8253,1199.483
8254,1200.425
8255,1201.446
8256,1202.534
8257,1203.738
8258,1205.068
8259,1206.472
8260,1207.860
8261,1209.114
8262,1210.206
8263,1211.290
8264,1212.607
8265,1214.282
8266,1216.182
8267,1218.008
8268,1219.445
8269,1220.304
8270,1220.596
8271,1220.537
8272,1220.462
8273,1220.604
8274,1220.962
8275,1221.396
8276,1221.817
8277,1222.308
8278,1223.017
8279,1224.071
8280,1225.484
8281,1227.155
8282,1228.910
8283,1230.552
8284,1231.868
8285,1232.644
8286,1232.669
8287,1231.802
8288,1230.018
8289,1227.468
8290,1224.425
8291,1221.250
8292,1218.291
8293,1215.857
8294,1214.165
8295,1213.277
8296,1213.094
8297,1213.403
8298,1213.978
8299,1214.649
8300,1215.282
8301,1215.745
8302,1215.915
8303,1215.686
8304,1215.044
8305,1214.103
8306,1213.061
8307,1212.102
8308,1211.373
8309,1210.960
8310,1210.919
8311,1211.273
8312,1211.986
8313,1212.915
8314,1213.857
8315,1214.690
8316,1215.415
8317,1216.057
8318,1216.566
8319,1216.811
8320,1216.716
8321,1216.303
8322,1215.620
8323,1214.715
8324,1213.682
8325,1212.648
8326,1211.744
8327,1211.073
8328,1210.652
8329,1210.444
8330,1210.377
8331,1210.414
8332,1210.539
8333,1210.752
8334,1211.010
8335,1211.269
8336,1211.485
8337,1211.602
8338,1211.573
8339,1211.419
8340,1211.190
8341,1210.965
8342,1210.827
8343,1210.848
8344,1211.073
8345,1211.485
8346,1212.031
8347,1212.615
8348,1213.115
8349,1213.444
8350,1213.557
8351,1213.428
8352,1213.119
8353,1212.773
8354,1212.482
8355,1212.181
8356,1211.773
8357,1211.244
8358,1210.648
8359,1210.035
8360,1209.418
8361,1208.802
8362,1208.202
8363,1207.643
8364,1207.164
8365,1206.785
8366,1206.485
8367,1206.201
8368,1205.864
8369,1205.468
8370,1205.093
8371,1204.818
8372,1204.659
8373,1204.584
8374,1204.555
8375,1204.551
8376,1204.559
8377,1204.551
8378,1204.484
8379,1204.330
8380,1204.063
8381,1203.680
8382,1203.201
8383,1202.738
8384,1202.488
8385,1202.630
8386,1203.213
8387,1204.209
8388,1205.614
8389,1207.456
8390,1209.656
8391,1211.981
8392,1214.157
8393,1215.999
8394,1217.528
8395,1218.895
8396,1220.250
8397,1221.650
8398,1223.125
8399,1224.709
8400,1226.392
8401,1228.084
8402,1229.718
8403,1231.335
8404,1233.010
8405,1234.698
8406,1236.253
8407,1237.545
8408,1238.516
8409,1239.216
8410,1239.791
8411,1240.453
8412,1241.320
8413,1242.354
8414,1243.441
8415,1244.492
8416,1245.417
8417,1246.188
8418,1246.805
8419,1247.259
8420,1247.501
8421,1247.513
8422,1247.301
8423,1246.830
8424,1246.113
8425,1245.179
8426,1244.087
8427,1242.858
8428,1241.545
8429,1240.299
8430,1239.278
8431,1238.507
8432,1237.949
8433,1237.620
8434,1237.624
8435,1238.036
8436,1238.753
8437,1239.482
8438,1239.816
8439,1239.420
8440,1238.149
8441,1236.082
8442,1233.465
8443,1230.585
8444,1227.701
8445,1225.009
8446,1222.638
8447,1220.587
8448,1218.758
8449,1217.037
8450,1215.361
8451,1213.753
8452,1212.315
8453,1211.181
8454,1210.377
8455,1209.727
8456,1208.918
8457,1207.647
8458,1205.801
8459,1203.501
8460,1201.000
8461,1198.529
8462,1196.183
8463,1193.970
8464,1191.907
8465,1190.048
8466,1188.548
8467,1187.689
8468,1187.694
8469,1188.548
8470,1189.977
8471,1191.573
8472,1192.940
8473,1193.816
8474,1194.141
8475,1194.041
8476,1193.782
8477,1193.653
8478,1193.786
8479,1194.136
8480,1194.520
8481,1194.749
8482,1194.766
8483,1194.661
8484,1194.616
8485,1194.816
8486,1195.391
8487,1196.387
8488,1197.708
8489,1199.162
8490,1200.592
8491,1201.938
8492,1203.259
8493,1204.743
8494,1206.543
8495,1208.647
8496,1210.852
8497,1212.936
8498,1214.728
8499,1216.136
8500,1217.199
8501,1218.083
8502,1219.008
8503,1220.129
8504,1221.500
8505,1223.125
8506,1224.930
8507,1226.755
8508,1228.447
8509,1229.951
8510,1231.289
8511,1232.506
8512,1233.635
8513,1234.727
8514,1235.873
8515,1237.128
8516,1238.486
8517,1239.866
8518,1241.149
8519,1242.279
8520,1243.246
8521,1244.112
8522,1244.988
8523,1245.988
8524,1247.213
8525,1248.680
8526,1250.264
8527,1251.806
8528,1253.222
8529,1254.610
8530,1256.131
8531,1257.823
8532,1259.511
8533,1260.928
8534,1261.849
8535,1262.258
8536,1262.349
8537,1262.428
8538,1262.716
8539,1263.199
8540,1263.645
8541,1263.762
8542,1263.395
8543,1262.570
8544,1261.445
8545,1260.174
8546,1258.811
8547,1257.298
8548,1255.606
8549,1253.793
8550,1251.939
8551,1250.101
8552,1248.288
8553,1246.550
8554,1244.979
8555,1243.646
8556,1242.591
8557,1241.841
8558,1241.466
8559,1241.545
8560,1242.091
8561,1242.921
8562,1243.708
8563,1244.129
8564,1243.929
8565,1242.975
8566,1241.308
8567,1239.132
8568,1236.765
8569,1234.536
8570,1232.664
8571,1231.252
8572,1230.268
8573,1229.564
8574,1228.868
8575,1227.939
8576,1226.701
8577,1225.338
8578,1224.125
8579,1223.292
8580,1222.946
8581,1223.071
8582,1223.621
8583,1224.596
8584,1226.022
8585,1227.880
8586,1230.072
8587,1232.427
8588,1234.748
8589,1236.874
8590,1238.691
8591,1240.133
8592,1241.158
8593,1241.720
8594,1241.800
8595,1241.424
8596,1240.728
8597,1239.937
8598,1239.303
8599,1238.991
8600,1238.982
8601,1239.141
8602,1239.374
8603,1239.674
8604,1239.999
8605,1240.266
8606,1240.453
8607,1240.608
8608,1240.762
8609,1240.904
8610,1241.008
8611,1241.104
8612,1241.274
8613,1241.599
8614,1242.054
8615,1242.545
8616,1243.008
8617,1243.371
8618,1243.567
8619,1243.579
8620,1243.446
8621,1243.250
8622,1243.016
8623,1242.666
8624,1242.100
8625,1241.349
8626,1240.549
8627,1239.807
8628,1239.091
8629,1238.349
8630,1237.657
8631,1237.169
8632,1236.994
8633,1237.132
8634,1237.582
8635,1238.424
8636,1239.766
8637,1241.587
8638,1243.654
8639,1245.600
8640,1247.151
8641,1248.234
8642,1248.947
8643,1249.459
8644,1249.864
8645,1250.126
8646,1250.072
