'Elapsed time','wrist_ppg'
'hh:mm:ss.mmm','mV'
'0:00.000',1210.915
'0:00.004',1214.886
'0:00.008',1218.649
'0:00.012',1221.929
'0:00.016',1224.609
'0:00.020',1226.647
'0:00.023',1228.064
'0:00.027',1228.951
'0:00.031',1229.414
'0:00.035',1229.581
'0:00.039',1229.572
'0:00.043',1229.485
'0:00.047',1229.356
'0:00.051',1229.139
'0:00.055',1228.843
'0:00.059',1228.597
'0:00.063',1228.568
'0:00.066',1228.789
'0:00.070',1229.147
'0:00.074',1229.526
'0:00.078',1229.881
'0:00.082',1230.156
'0:00.086',1230.360
'0:00.090',1230.689
'0:00.094',1231.448
'0:00.098',1232.848
'0:00.102',1234.844
'0:00.105',1237.136
'0:00.109',1239.312
'0:00.113',1241.004
'0:00.117',1241.962
'0:00.121',1242.066
'0:00.125',1241.291
'0:00.129',1239.720
'0:00.133',1237.574
'0:00.137',1235.215
'0:00.141',1233.069
'0:00.145',1231.473
'0:00.148',1230.589
'0:00.152',1230.368
'0:00.156',1230.568
'0:00.160',1230.843
'0:00.164',1230.939
'0:00.168',1230.802
'0:00.172',1230.531
'0:00.176',1230.256
'0:00.180',1230.051
'0:00.184',1229.935
'0:00.188',1229.893
'0:00.191',1229.910
'0:00.195',1229.993
'0:00.199',1230.085
'0:00.203',1230.060
'0:00.207',1229.872
'0:00.211',1229.597
'0:00.215',1229.314
'0:00.219',1228.985
'0:00.223',1228.493
'0:00.227',1227.776
'0:00.230',1226.934
'0:00.234',1226.105
'0:00.238',1225.351
'0:00.242',1224.671
'0:00.246',1224.125
'0:00.250',1223.775
'0:00.254',1223.684
'0:00.258',1223.875
'0:00.262',1224.334
'0:00.266',1224.971
'0:00.270',1225.655
'0:00.273',1226.259
'0:00.277',1226.755
'0:00.281',1227.143
'0:00.285',1227.451
'0:00.289',1227.764
'0:00.293',1228.109
'0:00.297',1228.397
'0:00.301',1228.497
'0:00.305',1228.397
'0:00.309',1228.180
'0:00.313',1227.876
'0:00.316',1227.376
'0:00.320',1226.563
'0:00.324',1225.492
'0:00.328',1224.375
'0:00.332',1223.404
'0:00.336',1222.650
'0:00.340',1222.096
'0:00.344',1221.717
'0:00.348',1221.454
'0:00.352',1221.196
'0:00.355',1220.762
'0:00.359',1220.000
'0:00.363',1218.916
'0:00.367',1217.732
'0:00.371',1216.749
'0:00.375',1216.207
'0:00.379',1216.195
'0:00.383',1216.645
'0:00.387',1217.395
'0:00.391',1218.270
'0:00.395',1219.133
'0:00.398',1219.862
'0:00.402',1220.320
'0:00.406',1220.395
'0:00.410',1220.075
'0:00.414',1219.499
'0:00.418',1218.924
'0:00.422',1218.603
'0:00.426',1218.649
'0:00.430',1219.037
'0:00.434',1219.687
'0:00.438',1220.541
'0:00.441',1221.617
'0:00.445',1223.025
'0:00.449',1224.846
'0:00.453',1227.013
'0:00.457',1229.276
'0:00.461',1231.327
'0:00.465',1232.898
'0:00.469',1233.852
'0:00.473',1234.186
'0:00.477',1233.973
'0:00.480',1233.377
'0:00.484',1232.627
'0:00.488',1231.902
'0:00.492',1231.239
'0:00.496',1230.589
'0:00.500',1229.964
'0:00.504',1229.506
'0:00.508',1229.351
'0:00.512',1229.501
'0:00.516',1229.839
'0:00.520',1230.289
'0:00.523',1230.881
'0:00.527',1231.643
'0:00.531',1232.564
'0:00.535',1233.606
'0:00.539',1234.648
'0:00.543',1235.473
'0:00.547',1235.903
'0:00.551',1235.898
'0:00.555',1235.586
'0:00.559',1235.119
'0:00.563',1234.573
'0:00.566',1233.981
'0:00.570',1233.415
'0:00.574',1232.952
'0:00.578',1232.652
'0:00.582',1232.544
'0:00.586',1232.623
'0:00.590',1232.848
'0:00.594',1233.044
'0:00.598',1232.998
'0:00.602',1232.610
'0:00.605',1231.923
'0:00.609',1231.035
'0:00.613',1230.018
'0:00.617',1228.951
'0:00.621',1227.897
'0:00.625',1226.901
'0:00.629',1226.092
'0:00.633',1225.655
'0:00.637',1225.667
'0:00.641',1226.030
'0:00.645',1226.501
'0:00.648',1226.888
'0:00.652',1227.172
'0:00.656',1227.513
'0:00.660',1228.114
'0:00.664',1229.051
'0:00.668',1230.268
'0:00.672',1231.610
'0:00.676',1232.969
'0:00.680',1234.340
'0:00.684',1235.728
'0:00.688',1237.074
'0:00.691',1238.241
'0:00.695',1239.132
'0:00.699',1239.757
'0:00.703',1240.162
'0:00.707',1240.345
'0:00.711',1240.303
'0:00.715',1240.053
'0:00.719',1239.641
'0:00.723',1239.078
'0:00.727',1238.270
'0:00.730',1237.107
'0:00.734',1235.578
'0:00.738',1233.769
'0:00.742',1231.727
'0:00.746',1229.460
'0:00.750',1227.038
'0:00.754',1224.588
'0:00.758',1222.288
'0:00.762',1220.312
'0:00.766',1218.787
'0:00.770',1217.766
'0:00.773',1217.270
'0:00.777',1217.274
'0:00.781',1217.737
'0:00.785',1218.570
'0:00.789',1219.675
'0:00.793',1220.900
'0:00.797',1222.075
'0:00.801',1223.079
'0:00.805',1223.854
'0:00.809',1224.388
'0:00.813',1224.700
'0:00.816',1224.800
'0:00.820',1224.684
'0:00.824',1224.371
'0:00.828',1223.913
'0:00.832',1223.342
'0:00.836',1222.671
'0:00.840',1221.971
'0:00.844',1221.283
'0:00.848',1220.612
'0:00.852',1219.912
'0:00.855',1219.224
'0:00.859',1218.699
'0:00.863',1218.491
'0:00.867',1218.599
'0:00.871',1218.870
'0:00.875',1219.112
'0:00.879',1219.224
'0:00.883',1219.195
'0:00.887',1219.054
'0:00.891',1218.866
'0:00.895',1218.745
'0:00.898',1218.804
'0:00.902',1219.083
'0:00.906',1219.554
'0:00.910',1220.108
'0:00.914',1220.591
'0:00.918',1220.875
'0:00.922',1220.950
'0:00.926',1220.825
'0:00.930',1220.512
'0:00.934',1220.079
'0:00.938',1219.650
'0:00.941',1219.362
'0:00.945',1219.283
'0:00.949',1219.379
'0:00.953',1219.575
'0:00.957',1219.825
'0:00.961',1220.137
'0:00.965',1220.521
'0:00.969',1220.908
'0:00.973',1221.191
'0:00.977',1221.321
'0:00.980',1221.350
'0:00.984',1221.433
'0:00.988',1221.742
'0:00.992',1222.346
'0:00.996',1223.179
'0:01.000',1224.092
'0:01.004',1224.946
'0:01.008',1225.617
'0:01.012',1226.034
'0:01.016',1226.188
'0:01.020',1226.063
'0:01.023',1225.676
'0:01.027',1225.092
'0:01.031',1224.405
'0:01.035',1223.675
'0:01.039',1222.983
'0:01.043',1222.421
'0:01.047',1222.096
'0:01.051',1222.100
'0:01.055',1222.446
'0:01.059',1223.013
'0:01.063',1223.688
'0:01.066',1224.375
'0:01.070',1224.892
'0:01.074',1224.963
'0:01.078',1224.363
'0:01.082',1223.054
'0:01.086',1221.216
'0:01.090',1219.133
'0:01.094',1217.049
'0:01.098',1215.099
'0:01.102',1213.386
'0:01.105',1212.098
'0:01.109',1211.419
'0:01.113',1211.460
'0:01.117',1212.277
'0:01.121',1213.844
'0:01.125',1216.045
'0:01.129',1218.683
'0:01.133',1221.558
'0:01.137',1224.521
'0:01.141',1227.409
'0:01.145',1230.022
'0:01.148',1232.169
'0:01.152',1233.769
'0:01.156',1234.861
'0:01.160',1235.527
'0:01.164',1235.786
'0:01.168',1235.557
'0:01.172',1234.748
'0:01.176',1233.344
'0:01.180',1231.402
'0:01.184',1229.055
'0:01.188',1226.522
'0:01.191',1224.130
'0:01.195',1222.196
'0:01.199',1220.900
'0:01.203',1220.187
'0:01.207',1219.833
'0:01.211',1219.633
'0:01.215',1219.558
'0:01.219',1219.770
'0:01.223',1220.471
'0:01.227',1221.746
'0:01.230',1223.534
'0:01.234',1225.651
'0:01.238',1227.859
'0:01.242',1229.943
'0:01.246',1231.718
'0:01.250',1233.035
'0:01.254',1233.798
'0:01.258',1233.998
'0:01.262',1233.731
'0:01.266',1233.169
'0:01.270',1232.523
'0:01.273',1231.964
'0:01.277',1231.539
'0:01.281',1231.235
'0:01.285',1231.106
'0:01.289',1231.227
'0:01.293',1231.568
'0:01.297',1231.873
'0:01.301',1231.768
'0:01.305',1230.989
'0:01.309',1229.518
'0:01.313',1227.605
'0:01.316',1225.626
'0:01.320',1223.917
'0:01.324',1222.704
'0:01.328',1222.096
'0:01.332',1222.125
'0:01.336',1222.746
'0:01.340',1223.825
'0:01.344',1225.155
'0:01.348',1226.551
'0:01.352',1227.993
'0:01.355',1229.526
'0:01.359',1231.131
'0:01.363',1232.689
'0:01.367',1234.077
'0:01.371',1235.111
'0:01.375',1235.569
'0:01.379',1235.327
'0:01.383',1234.461
'0:01.387',1233.265
'0:01.391',1232.127
'0:01.395',1231.318
'0:01.398',1230.927
'0:01.402',1230.927
'0:01.406',1231.302
'0:01.410',1231.998
'0:01.414',1232.894
'0:01.418',1233.894
'0:01.422',1235.032
'0:01.426',1236.357
'0:01.430',1237.778
'0:01.434',1239.132
'0:01.438',1240.283
'0:01.441',1241.133
'0:01.445',1241.549
'0:01.449',1241.470
'0:01.453',1240.962
'0:01.457',1240.178
'0:01.461',1239.291
'0:01.465',1238.382
'0:01.469',1237.374
'0:01.473',1236.115
'0:01.477',1234.565
'0:01.480',1232.848
'0:01.484',1231.168
'0:01.488',1229.760
'0:01.492',1228.855
'0:01.496',1228.564
'0:01.500',1228.864
'0:01.504',1229.660
'0:01.508',1230.818
'0:01.512',1232.119
'0:01.516',1233.248
'0:01.520',1233.890
'0:01.523',1233.869
'0:01.527',1233.252
'0:01.531',1232.302
'0:01.535',1231.431
'0:01.539',1231.022
'0:01.543',1231.331
'0:01.547',1232.389
'0:01.551',1234.015
'0:01.555',1235.882
'0:01.559',1237.611
'0:01.563',1238.870
'0:01.566',1239.424
'0:01.570',1239.220
'0:01.574',1238.391
'0:01.578',1237.253
'0:01.582',1236.161
'0:01.586',1235.344
'0:01.590',1234.902
'0:01.594',1234.894
'0:01.598',1235.311
'0:01.602',1236.007
'0:01.605',1236.765
'0:01.609',1237.382
'0:01.613',1237.799
'0:01.617',1238.111
'0:01.621',1238.499
'0:01.625',1239.099
'0:01.629',1239.903
'0:01.633',1240.737
'0:01.637',1241.354
'0:01.641',1241.633
'0:01.645',1241.591
'0:01.648',1241.279
'0:01.652',1240.728
'0:01.656',1239.987
'0:01.660',1239.066
'0:01.664',1237.974
'0:01.668',1236.807
'0:01.672',1235.778
'0:01.676',1235.065
'0:01.680',1234.765
'0:01.684',1234.848
'0:01.688',1235.219
'0:01.691',1235.844
'0:01.695',1236.732
'0:01.699',1237.865
'0:01.703',1239.216
'0:01.707',1240.745
'0:01.711',1242.404
'0:01.715',1244.071
'0:01.719',1245.471
'0:01.723',1246.330
'0:01.727',1246.467
'0:01.730',1245.842
'0:01.734',1244.475
'0:01.738',1242.437
'0:01.742',1239.916
'0:01.746',1237.274
'0:01.750',1234.944
'0:01.754',1233.265
'0:01.758',1232.360
'0:01.762',1232.110
'0:01.766',1232.148
'0:01.770',1232.002
'0:01.773',1231.268
'0:01.777',1229.810
'0:01.781',1227.805
'0:01.785',1225.646
'0:01.789',1223.763
'0:01.793',1222.496
'0:01.797',1222.050
'0:01.801',1222.525
'0:01.805',1223.917
'0:01.809',1226.105
'0:01.813',1228.830
'0:01.816',1231.698
'0:01.820',1234.231
'0:01.824',1236.028
'0:01.828',1236.890
'0:01.832',1236.815
'0:01.836',1235.907
'0:01.840',1234.323
'0:01.844',1232.202
'0:01.848',1229.731
'0:01.852',1227.109
'0:01.855',1224.563
'0:01.859',1222.325
'0:01.863',1220.587
'0:01.867',1219.508
'0:01.871',1219.179
'0:01.875',1219.583
'0:01.879',1220.566
'0:01.883',1221.837
'0:01.887',1223.004
'0:01.891',1223.717
'0:01.895',1223.842
'0:01.898',1223.529
'0:01.902',1223.038
'0:01.906',1222.533
'0:01.910',1222.058
'0:01.914',1221.579
'0:01.918',1221.071
'0:01.922',1220.516
'0:01.926',1219.962
'0:01.930',1219.449
'0:01.934',1218.995
'0:01.938',1218.566
'0:01.941',1218.108
'0:01.945',1217.603
'0:01.949',1217.107
'0:01.953',1216.641
'0:01.957',1216.199
'0:01.961',1215.824
'0:01.965',1215.570
'0:01.969',1215.420
'0:01.973',1215.299
'0:01.977',1215.140
'0:01.980',1214.928
'0:01.984',1214.703
'0:01.988',1214.553
'0:01.992',1214.482
'0:01.996',1214.390
'0:02.000',1214.186
'0:02.004',1213.865
'0:02.008',1213.448
'0:02.012',1213.007
'0:02.016',1212.648
'0:02.020',1212.477
'0:02.023',1212.561
'0:02.027',1212.907
'0:02.031',1213.457
'0:02.035',1214.115
'0:02.039',1214.765
'0:02.043',1215.274
'0:02.047',1215.590
'0:02.051',1215.749
'0:02.055',1215.815
'0:02.059',1215.795
'0:02.063',1215.674
'0:02.066',1215.470
'0:02.070',1215.174
'0:02.074',1214.753
'0:02.078',1214.165
'0:02.082',1213.473
'0:02.086',1212.861
'0:02.090',1212.511
'0:02.094',1212.536
'0:02.098',1212.944
'0:02.102',1213.603
'0:02.105',1214.324
'0:02.109',1215.032
'0:02.113',1215.765
'0:02.117',1216.536
'0:02.121',1217.249
'0:02.125',1217.841
'0:02.129',1218.333
'0:02.133',1218.737
'0:02.137',1218.991
'0:02.141',1219.033
'0:02.145',1218.904
'0:02.148',1218.708
'0:02.152',1218.474
'0:02.156',1218.149
'0:02.160',1217.757
'0:02.164',1217.382
'0:02.168',1217.037
'0:02.172',1216.653
'0:02.176',1216.241
'0:02.180',1215.990
'0:02.184',1216.145
'0:02.188',1216.874
'0:02.191',1218.149
'0:02.195',1219.750
'0:02.199',1221.308
'0:02.203',1222.471
'0:02.207',1223.075
'0:02.211',1223.167
'0:02.215',1222.875
'0:02.219',1222.300
'0:02.223',1221.542
'0:02.227',1220.796
'0:02.230',1220.279
'0:02.234',1220.108
'0:02.238',1220.241
'0:02.242',1220.471
'0:02.246',1220.558
'0:02.250',1220.408
'0:02.254',1220.150
'0:02.258',1220.062
'0:02.262',1220.341
'0:02.266',1221.012
'0:02.270',1221.937
'0:02.273',1222.938
'0:02.277',1223.913
'0:02.281',1224.834
'0:02.285',1225.601
'0:02.289',1226.072
'0:02.293',1226.155
'0:02.297',1225.867
'0:02.301',1225.242
'0:02.305',1224.230
'0:02.309',1222.854
'0:02.313',1221.321
'0:02.316',1219.991
'0:02.320',1219.133
'0:02.324',1218.812
'0:02.328',1218.883
'0:02.332',1219.124
'0:02.336',1219.341
'0:02.340',1219.420
'0:02.344',1219.308
'0:02.348',1219.112
'0:02.352',1219.095
'0:02.355',1219.524
'0:02.359',1220.533
'0:02.363',1222.062
'0:02.367',1223.871
'0:02.371',1225.655
'0:02.375',1227.159
'0:02.379',1228.330
'0:02.383',1229.222
'0:02.387',1229.826
'0:02.391',1230.014
'0:02.395',1229.651
'0:02.398',1228.755
'0:02.402',1227.538
'0:02.406',1226.355
'0:02.410',1225.576
'0:02.414',1225.505
'0:02.418',1226.322
'0:02.422',1228.064
'0:02.426',1230.618
'0:02.430',1233.744
'0:02.434',1237.074
'0:02.438',1240.174
'0:02.441',1242.641
'0:02.445',1244.225
'0:02.449',1244.883
'0:02.453',1244.763
'0:02.457',1244.154
'0:02.461',1243.354
'0:02.465',1242.537
'0:02.469',1241.741
'0:02.473',1241.016
'0:02.477',1240.474
'0:02.480',1240.137
'0:02.484',1239.895
'0:02.488',1239.645
'0:02.492',1239.428
'0:02.496',1239.374
'0:02.500',1239.541
'0:02.504',1239.882
'0:02.508',1240.299
'0:02.512',1240.691
'0:02.516',1240.991
'0:02.520',1241.187
'0:02.523',1241.308
'0:02.527',1241.420
'0:02.531',1241.574
'0:02.535',1241.808
'0:02.539',1242.145
'0:02.543',1242.575
'0:02.547',1243.016
'0:02.551',1243.412
'0:02.555',1243.712
'0:02.559',1243.892
'0:02.563',1244.062
'0:02.566',1244.429
'0:02.570',1245.113
'0:02.574',1246.017
'0:02.578',1246.884
'0:02.582',1247.488
'0:02.586',1247.755
'0:02.590',1247.734
'0:02.594',1247.596
'0:02.598',1247.534
'0:02.602',1247.688
'0:02.605',1248.017
'0:02.609',1248.367
'0:02.613',1248.567
'0:02.617',1248.559
'0:02.621',1248.388
'0:02.625',1248.205
'0:02.629',1248.167
'0:02.633',1248.372
'0:02.637',1248.780
'0:02.641',1249.222
'0:02.645',1249.493
'0:02.648',1249.434
'0:02.652',1248.984
'0:02.656',1248.163
'0:02.660',1247.080
'0:02.664',1245.954
'0:02.668',1245.067
'0:02.672',1244.642
'0:02.676',1244.717
'0:02.680',1245.146
'0:02.684',1245.709
'0:02.688',1246.204
'0:02.691',1246.475
'0:02.695',1246.425
'0:02.699',1246.046
'0:02.703',1245.404
'0:02.707',1244.633
'0:02.711',1243.896
'0:02.715',1243.321
'0:02.719',1242.962
'0:02.723',1242.783
'0:02.727',1242.683
'0:02.730',1242.529
'0:02.734',1242.195
'0:02.738',1241.549
'0:02.742',1240.508
'0:02.746',1239.091
'0:02.750',1237.445
'0:02.754',1235.778
'0:02.758',1234.319
'0:02.762',1233.244
'0:02.766',1232.619
'0:02.770',1232.352
'0:02.773',1232.277
'0:02.777',1232.273
'0:02.781',1232.285
'0:02.785',1232.235
'0:02.789',1232.035
'0:02.793',1231.689
'0:02.797',1231.289
'0:02.801',1230.885
'0:02.805',1230.522
'0:02.809',1230.260
'0:02.813',1230.089
'0:02.816',1229.951
'0:02.820',1229.785
'0:02.824',1229.560
'0:02.828',1229.330
'0:02.832',1229.247
'0:02.836',1229.406
'0:02.840',1229.793
'0:02.844',1230.356
'0:02.848',1230.972
'0:02.852',1231.464
'0:02.855',1231.693
'0:02.859',1231.639
'0:02.863',1231.368
'0:02.867',1230.981
'0:02.871',1230.522
'0:02.875',1229.935
'0:02.879',1229.151
'0:02.883',1228.272
'0:02.887',1227.522
'0:02.891',1227.072
'0:02.895',1226.909
'0:02.898',1226.897
'0:02.902',1226.926
'0:02.906',1227.001
'0:02.910',1227.184
'0:02.914',1227.468
'0:02.918',1227.818
'0:02.922',1228.180
'0:02.926',1228.493
'0:02.930',1228.639
'0:02.934',1228.493
'0:02.938',1228.039
'0:02.941',1227.359
'0:02.945',1226.530
'0:02.949',1225.584
'0:02.953',1224.567
'0:02.957',1223.571
'0:02.961',1222.683
'0:02.965',1221.987
'0:02.969',1221.575
'0:02.973',1221.487
'0:02.977',1221.667
'0:02.980',1222.033
'0:02.984',1222.517
'0:02.988',1223.092
'0:02.992',1223.671
'0:02.996',1224.138
'0:03.000',1224.375
'0:03.004',1224.392
'0:03.008',1224.305
'0:03.012',1224.196
'0:03.016',1224.080
'0:03.020',1223.963
'0:03.023',1223.850
'0:03.027',1223.734
'0:03.031',1223.625
'0:03.035',1223.521
'0:03.039',1223.392
'0:03.043',1223.204
'0:03.047',1222.950
'0:03.051',1222.625
'0:03.055',1222.246
'0:03.059',1221.787
'0:03.063',1221.221
'0:03.066',1220.571
'0:03.070',1219.895
'0:03.074',1219.258
'0:03.078',1218.733
'0:03.082',1218.420
'0:03.086',1218.420
'0:03.090',1218.808
'0:03.094',1219.583
'0:03.098',1220.683
'0:03.102',1221.954
'0:03.105',1223.171
'0:03.109',1224.113
'0:03.113',1224.646
'0:03.117',1224.734
'0:03.121',1224.413
'0:03.125',1223.767
'0:03.129',1222.917
'0:03.133',1221.987
'0:03.137',1221.125
'0:03.141',1220.500
'0:03.145',1220.229
'0:03.148',1220.320
'0:03.152',1220.683
'0:03.156',1221.112
'0:03.160',1221.367
'0:03.164',1221.358
'0:03.168',1221.171
'0:03.172',1220.912
'0:03.176',1220.641
'0:03.180',1220.370
'0:03.184',1220.108
'0:03.188',1219.825
'0:03.191',1219.545
'0:03.195',1219.354
'0:03.199',1219.287
'0:03.203',1219.287
'0:03.207',1219.220
'0:03.211',1218.987
'0:03.215',1218.558
'0:03.219',1217.958
'0:03.223',1217.228
'0:03.227',1216.411
'0:03.230',1215.536
'0:03.234',1214.619
'0:03.238',1213.707
'0:03.242',1212.823
'0:03.246',1211.973
'0:03.250',1211.227
'0:03.254',1210.777
'0:03.258',1210.848
'0:03.262',1211.565
'0:03.266',1212.932
'0:03.270',1214.807
'0:03.273',1216.924
'0:03.277',1218.966
'0:03.281',1220.725
'0:03.285',1222.196
'0:03.289',1223.513
'0:03.293',1224.730
'0:03.297',1225.763
'0:03.301',1226.513
'0:03.305',1226.938
'0:03.309',1227.080
'0:03.313',1227.038
'0:03.316',1226.980
'0:03.320',1227.076
'0:03.324',1227.459
'0:03.328',1228.122
'0:03.332',1228.976
'0:03.336',1229.901
'0:03.340',1230.781
'0:03.344',1231.506
'0:03.348',1231.993
'0:03.352',1232.173
'0:03.355',1232.010
'0:03.359',1231.560
'0:03.363',1230.943
'0:03.367',1230.277
'0:03.371',1229.664
'0:03.375',1229.172
'0:03.379',1228.822
'0:03.383',1228.568
'0:03.387',1228.384
'0:03.391',1228.239
'0:03.395',1228.118
'0:03.398',1227.993
'0:03.402',1227.851
'0:03.406',1227.697
'0:03.410',1227.572
'0:03.414',1227.468
'0:03.418',1227.330
'0:03.422',1227.130
'0:03.426',1226.893
'0:03.430',1226.651
'0:03.434',1226.397
'0:03.438',1226.105
'0:03.441',1225.763
'0:03.445',1225.434
'0:03.449',1225.246
'0:03.453',1225.321
'0:03.457',1225.688
'0:03.461',1226.305
'0:03.465',1227.059
'0:03.469',1227.830
'0:03.473',1228.539
'0:03.477',1229.114
'0:03.480',1229.539
'0:03.484',1229.843
'0:03.488',1230.085
'0:03.492',1230.306
'0:03.496',1230.560
'0:03.500',1230.897
'0:03.504',1231.364
'0:03.508',1231.956
'0:03.512',1232.623
'0:03.516',1233.294
'0:03.520',1233.894
'0:03.523',1234.394
'0:03.527',1234.740
'0:03.531',1234.815
'0:03.535',1234.556
'0:03.539',1234.044
'0:03.543',1233.431
'0:03.547',1232.831
'0:03.551',1232.314
'0:03.555',1231.918
'0:03.559',1231.673
'0:03.563',1231.610
'0:03.566',1231.743
'0:03.570',1232.056
'0:03.574',1232.464
'0:03.578',1232.906
'0:03.582',1233.394
'0:03.586',1233.936
'0:03.590',1234.565
'0:03.594',1235.369
'0:03.598',1236.415
'0:03.602',1237.603
'0:03.605',1238.691
'0:03.609',1239.449
'0:03.613',1239.762
'0:03.617',1239.678
'0:03.621',1239.341
'0:03.625',1238.832
'0:03.629',1238.140
'0:03.633',1237.207
'0:03.637',1236.061
'0:03.641',1234.840
'0:03.645',1233.748
'0:03.648',1232.881
'0:03.652',1232.239
'0:03.656',1231.827
'0:03.660',1231.685
'0:03.664',1231.823
'0:03.668',1232.164
'0:03.672',1232.539
'0:03.676',1232.764
'0:03.680',1232.735
'0:03.684',1232.514
'0:03.688',1232.206
'0:03.691',1231.843
'0:03.695',1231.418
'0:03.699',1230.964
'0:03.703',1230.535
'0:03.707',1230.076
'0:03.711',1229.451
'0:03.715',1228.610
'0:03.719',1227.701
'0:03.723',1226.959
'0:03.727',1226.505
'0:03.730',1226.347
'0:03.734',1226.459
'0:03.738',1226.855
'0:03.742',1227.559
'0:03.746',1228.564
'0:03.750',1229.710
'0:03.754',1230.685
'0:03.758',1231.110
'0:03.762',1230.747
'0:03.766',1229.610
'0:03.770',1227.976
'0:03.773',1226.259
'0:03.777',1224.805
'0:03.781',1223.775
'0:03.785',1223.167
'0:03.789',1222.896
'0:03.793',1222.867
'0:03.797',1222.954
'0:03.801',1223.050
'0:03.805',1223.138
'0:03.809',1223.279
'0:03.813',1223.600
'0:03.816',1224.213
'0:03.820',1225.201
'0:03.824',1226.530
'0:03.828',1228.076
'0:03.832',1229.626
'0:03.836',1231.006
'0:03.840',1232.069
'0:03.844',1232.723
'0:03.848',1232.965
'0:03.852',1232.831
'0:03.855',1232.335
'0:03.859',1231.502
'0:03.863',1230.389
'0:03.867',1229.105
'0:03.871',1227.847
'0:03.875',1226.901
'0:03.879',1226.538
'0:03.883',1226.901
'0:03.887',1227.930
'0:03.891',1229.356
'0:03.895',1230.789
'0:03.898',1231.843
'0:03.902',1232.264
'0:03.906',1232.031
'0:03.910',1231.360
'0:03.914',1230.647
'0:03.918',1230.285
'0:03.922',1230.472
'0:03.926',1231.143
'0:03.930',1232.023
'0:03.934',1232.727
'0:03.938',1232.881
'0:03.941',1232.277
'0:03.945',1230.922
'0:03.949',1229.026
'0:03.953',1226.876
'0:03.957',1224.738
'0:03.961',1222.792
'0:03.965',1221.116
'0:03.969',1219.641
'0:03.973',1218.228
'0:03.977',1216.770
'0:03.980',1215.282
'0:03.984',1213.869
'0:03.988',1212.644
'0:03.992',1211.690
'0:03.996',1211.073
'0:04.000',1210.869
'0:04.004',1211.127
'0:04.008',1211.886
'0:04.012',1213.144
'0:04.016',1214.857
'0:04.020',1216.920
'0:04.023',1219.170
'0:04.027',1221.412
'0:04.031',1223.467
'0:04.035',1225.196
'0:04.039',1226.488
'0:04.043',1227.197
'0:04.047',1227.163
'0:04.051',1226.317
'0:04.055',1224.788
'0:04.059',1222.883
'0:04.063',1220.958
'0:04.066',1219.262
'0:04.070',1217.891
'0:04.074',1216.828
'0:04.078',1216.020
'0:04.082',1215.465
'0:04.086',1215.195
'0:04.090',1215.240
'0:04.094',1215.640
'0:04.098',1216.420
'0:04.102',1217.587
'0:04.105',1219.083
'0:04.109',1220.750
'0:04.113',1222.379
'0:04.117',1223.713
'0:04.121',1224.530
'0:04.125',1224.780
'0:04.129',1224.663
'0:04.133',1224.505
'0:04.137',1224.521
'0:04.141',1224.746
'0:04.145',1225.046
'0:04.148',1225.263
'0:04.152',1225.380
'0:04.156',1225.467
'0:04.160',1225.576
'0:04.164',1225.676
'0:04.168',1225.763
'0:04.172',1225.909
'0:04.176',1226.105
'0:04.180',1226.234
'0:04.184',1226.159
'0:04.188',1225.855
'0:04.191',1225.401
'0:04.195',1224.909
'0:04.199',1224.471
'0:04.203',1224.100
'0:04.207',1223.709
'0:04.211',1223.246
'0:04.215',1222.725
'0:04.219',1222.233
'0:04.223',1221.892
'0:04.227',1221.783
'0:04.230',1221.887
'0:04.234',1222.087
'0:04.238',1222.200
'0:04.242',1222.092
'0:04.246',1221.696
'0:04.250',1221.029
'0:04.254',1220.212
'0:04.258',1219.433
'0:04.262',1218.774
'0:04.266',1218.245
'0:04.270',1217.899
'0:04.273',1217.920
'0:04.277',1218.478
'0:04.281',1219.608
'0:04.285',1221.175
'0:04.289',1222.875
'0:04.293',1224.334
'0:04.297',1225.238
'0:04.301',1225.496
'0:04.305',1225.230
'0:04.309',1224.650
'0:04.313',1223.896
'0:04.316',1223.063
'0:04.320',1222.267
'0:04.324',1221.696
'0:04.328',1221.508
'0:04.332',1221.729
'0:04.336',1222.212
'0:04.340',1222.738
'0:04.344',1223.134
'0:04.348',1223.334
'0:04.352',1223.371
'0:04.355',1223.296
'0:04.359',1223.138
'0:04.363',1222.904
'0:04.367',1222.608
'0:04.371',1222.271
'0:04.375',1221.875
'0:04.379',1221.425
'0:04.383',1220.950
'0:04.387',1220.521
'0:04.391',1220.179
'0:04.395',1219.904
'0:04.398',1219.604
'0:04.402',1219.149
'0:04.406',1218.395
'0:04.410',1217.266
'0:04.414',1215.853
'0:04.418',1214.399
'0:04.422',1213.215
'0:04.426',1212.544
'0:04.430',1212.482
'0:04.434',1212.986
'0:04.438',1213.907
'0:04.441',1215.032
'0:04.445',1216.161
'0:04.449',1217.112
'0:04.453',1217.770
'0:04.457',1218.087
'0:04.461',1218.066
'0:04.465',1217.745
'0:04.469',1217.241
'0:04.473',1216.786
'0:04.477',1216.620
'0:04.480',1216.803
'0:04.484',1217.253
'0:04.488',1217.845
'0:04.492',1218.478
'0:04.496',1219.087
'0:04.500',1219.625
'0:04.504',1220.066
'0:04.508',1220.400
'0:04.512',1220.658
'0:04.516',1220.900
'0:04.520',1221.179
'0:04.523',1221.512
'0:04.527',1221.900
'0:04.531',1222.346
'0:04.535',1222.804
'0:04.539',1223.167
'0:04.543',1223.400
'0:04.547',1223.542
'0:04.551',1223.625
'0:04.555',1223.684
'0:04.559',1223.779
'0:04.563',1223.904
'0:04.566',1223.959
'0:04.570',1223.850
'0:04.574',1223.604
'0:04.578',1223.392
'0:04.582',1223.396
'0:04.586',1223.721
'0:04.590',1224.375
'0:04.594',1225.351
'0:04.598',1226.601
'0:04.602',1227.984
'0:04.605',1229.276
'0:04.609',1230.197
'0:04.613',1230.543
'0:04.617',1230.247
'0:04.621',1229.426
'0:04.625',1228.309
'0:04.629',1227.188
'0:04.633',1226.305
'0:04.637',1225.767
'0:04.641',1225.521
'0:04.645',1225.384
'0:04.648',1225.217
'0:04.652',1225.055
'0:04.656',1225.088
'0:04.660',1225.517
'0:04.664',1226.430
'0:04.668',1227.772
'0:04.672',1229.330
'0:04.676',1230.802
'0:04.680',1231.918
'0:04.684',1232.556
'0:04.688',1232.802
'0:04.691',1232.839
'0:04.695',1232.769
'0:04.699',1232.535
'0:04.703',1232.039
'0:04.707',1231.214
'0:04.711',1229.993
'0:04.715',1228.334
'0:04.719',1226.276
'0:04.723',1224.000
'0:04.727',1221.762
'0:04.730',1219.783
'0:04.734',1218.195
'0:04.738',1217.049
'0:04.742',1216.378
'0:04.746',1216.224
'0:04.750',1216.616
'0:04.754',1217.549
'0:04.758',1218.958
'0:04.762',1220.716
'0:04.766',1222.646
'0:04.770',1224.471
'0:04.773',1225.880
'0:04.777',1226.651
'0:04.781',1226.763
'0:04.785',1226.372
'0:04.789',1225.626
'0:04.793',1224.613
'0:04.797',1223.463
'0:04.801',1222.413
'0:04.805',1221.712
'0:04.809',1221.533
'0:04.813',1221.929
'0:04.816',1222.821
'0:04.820',1224.030
'0:04.824',1225.330
'0:04.828',1226.542
'0:04.832',1227.618
'0:04.836',1228.614
'0:04.840',1229.564
'0:04.844',1230.372
'0:04.848',1230.947
'0:04.852',1231.343
'0:04.855',1231.823
'0:04.859',1232.648
'0:04.863',1233.906
'0:04.867',1235.444
'0:04.871',1237.007
'0:04.875',1238.357
'0:04.879',1239.366
'0:04.883',1239.962
'0:04.887',1240.145
'0:04.891',1239.982
'0:04.895',1239.645
'0:04.898',1239.378
'0:04.902',1239.374
'0:04.906',1239.649
'0:04.910',1240.074
'0:04.914',1240.512
'0:04.918',1240.828
'0:04.922',1240.849
'0:04.926',1240.378
'0:04.930',1239.291
'0:04.934',1237.620
'0:04.938',1235.561
'0:04.941',1233.444
'0:04.945',1231.648
'0:04.949',1230.481
'0:04.953',1230.064
'0:04.957',1230.285
'0:04.961',1230.914
'0:04.965',1231.773
'0:04.969',1232.731
'0:04.973',1233.635
'0:04.977',1234.286
'0:04.980',1234.611
'0:04.984',1234.740
'0:04.988',1234.965
'0:04.992',1235.482
'0:04.996',1236.257
'0:05.000',1237.036
'0:05.004',1237.524
'0:05.008',1237.540
'0:05.012',1237.115
'0:05.016',1236.432
'0:05.020',1235.715
'0:05.023',1235.090
'0:05.027',1234.581
'0:05.031',1234.202
'0:05.035',1233.898
'0:05.039',1233.569
'0:05.043',1233.098
'0:05.047',1232.431
'0:05.051',1231.618
'0:05.055',1230.781
'0:05.059',1229.981
'0:05.063',1229.222
'0:05.066',1228.526
'0:05.070',1228.014
'0:05.074',1227.780
'0:05.078',1227.809
'0:05.082',1227.976
'0:05.086',1228.130
'0:05.090',1228.209
'0:05.094',1228.234
'0:05.098',1228.239
'0:05.102',1228.189
'0:05.105',1228.009
'0:05.109',1227.730
'0:05.113',1227.576
'0:05.117',1227.839
'0:05.121',1228.693
'0:05.125',1230.106
'0:05.129',1231.831
'0:05.133',1233.502
'0:05.137',1234.819
'0:05.141',1235.615
'0:05.145',1235.878
'0:05.148',1235.653
'0:05.152',1235.048
'0:05.156',1234.227
'0:05.160',1233.331
'0:05.164',1232.460
'0:05.168',1231.643
'0:05.172',1230.797
'0:05.176',1229.789
'0:05.180',1228.614
'0:05.184',1227.422
'0:05.188',1226.380
'0:05.191',1225.588
'0:05.195',1225.046
'0:05.199',1224.700
'0:05.203',1224.505
'0:05.207',1224.484
'0:05.211',1224.688
'0:05.215',1225.101
'0:05.219',1225.571
'0:05.223',1225.872
'0:05.227',1225.801
'0:05.230',1225.246
'0:05.234',1224.200
'0:05.238',1222.779
'0:05.242',1221.125
'0:05.246',1219.362
'0:05.250',1217.591
'0:05.254',1215.928
'0:05.258',1214.499
'0:05.262',1213.373
'0:05.266',1212.582
'0:05.270',1212.077
'0:05.273',1211.823
'0:05.277',1211.806
'0:05.281',1212.019
'0:05.285',1212.465
'0:05.289',1213.202
'0:05.293',1214.274
'0:05.297',1215.624
'0:05.301',1217.066
'0:05.305',1218.312
'0:05.309',1219.108
'0:05.313',1219.370
'0:05.316',1219.187
'0:05.320',1218.712
'0:05.324',1218.045
'0:05.328',1217.232
'0:05.332',1216.420
'0:05.336',1215.861
'0:05.340',1215.757
'0:05.344',1216.120
'0:05.348',1216.782
'0:05.352',1217.520
'0:05.355',1218.095
'0:05.359',1218.299
'0:05.363',1218.049
'0:05.367',1217.437
'0:05.371',1216.691
'0:05.375',1215.999
'0:05.379',1215.395
'0:05.383',1214.807
'0:05.387',1214.186
'0:05.391',1213.519
'0:05.395',1212.823
'0:05.398',1212.181
'0:05.402',1211.715
'0:05.406',1211.519
'0:05.410',1211.586
'0:05.414',1211.865
'0:05.418',1212.277
'0:05.422',1212.715
'0:05.426',1213.048
'0:05.430',1213.123
'0:05.434',1212.861
'0:05.438',1212.336
'0:05.441',1211.727
'0:05.445',1211.160
'0:05.449',1210.702
'0:05.453',1210.364
'0:05.457',1210.139
'0:05.461',1209.998
'0:05.465',1209.894
'0:05.469',1209.794
'0:05.473',1209.660
'0:05.477',1209.477
'0:05.480',1209.264
'0:05.484',1209.035
'0:05.488',1208.756
'0:05.492',1208.364
'0:05.496',1207.822
'0:05.500',1207.135
'0:05.504',1206.364
'0:05.508',1205.572
'0:05.512',1204.847
'0:05.516',1204.355
'0:05.520',1204.305
'0:05.523',1204.863
'0:05.527',1206.034
'0:05.531',1207.681
'0:05.535',1209.548
'0:05.539',1211.402
'0:05.543',1213.132
'0:05.547',1214.707
'0:05.551',1216.086
'0:05.555',1217.241
'0:05.559',1218.228
'0:05.563',1219.099
'0:05.566',1219.770
'0:05.570',1220.075
'0:05.574',1219.900
'0:05.578',1219.279
'0:05.582',1218.387
'0:05.586',1217.499
'0:05.590',1216.816
'0:05.594',1216.428
'0:05.598',1216.332
'0:05.602',1216.536
'0:05.605',1217.045
'0:05.609',1217.816
'0:05.613',1218.779
'0:05.617',1219.887
'0:05.621',1221.183
'0:05.625',1222.663
'0:05.629',1224.171
'0:05.633',1225.430
'0:05.637',1226.209
'0:05.641',1226.363
'0:05.645',1225.834
'0:05.648',1224.592
'0:05.652',1222.683
'0:05.656',1220.287
'0:05.660',1217.703
'0:05.664',1215.286
'0:05.668',1213.302
'0:05.672',1211.836
'0:05.676',1210.852
'0:05.680',1210.298
'0:05.684',1210.077
'0:05.688',1210.002
'0:05.691',1209.894
'0:05.695',1209.681
'0:05.699',1209.468
'0:05.703',1209.473
'0:05.707',1209.910
'0:05.711',1210.927
'0:05.715',1212.552
'0:05.719',1214.719
'0:05.723',1217.266
'0:05.727',1219.916
'0:05.730',1222.396
'0:05.734',1224.484
'0:05.738',1226.113
'0:05.742',1227.380
'0:05.746',1228.443
'0:05.750',1229.318
'0:05.754',1229.897
'0:05.758',1230.076
'0:05.762',1229.868
'0:05.766',1229.360
'0:05.770',1228.676
'0:05.773',1227.980
'0:05.777',1227.447
'0:05.781',1227.130
'0:05.785',1226.963
'0:05.789',1226.868
'0:05.793',1226.793
'0:05.797',1226.630
'0:05.801',1226.226
'0:05.805',1225.571
'0:05.809',1224.901
'0:05.813',1224.542
'0:05.816',1224.730
'0:05.820',1225.459
'0:05.824',1226.538
'0:05.828',1227.739
'0:05.832',1228.951
'0:05.836',1230.201
'0:05.840',1231.493
'0:05.844',1232.756
'0:05.848',1233.869
'0:05.852',1234.711
'0:05.855',1235.161
'0:05.859',1235.157
'0:05.863',1234.748
'0:05.867',1234.002
'0:05.871',1232.902
'0:05.875',1231.423
'0:05.879',1229.685
'0:05.883',1227.980
'0:05.887',1226.680
'0:05.891',1226.088
'0:05.895',1226.380
'0:05.898',1227.526
'0:05.902',1229.255
'0:05.906',1231.106
'0:05.910',1232.573
'0:05.914',1233.273
'0:05.918',1233.069
'0:05.922',1232.089
'0:05.926',1230.685
'0:05.930',1229.330
'0:05.934',1228.401
'0:05.938',1228.034
'0:05.941',1228.159
'0:05.945',1228.518
'0:05.949',1228.776
'0:05.953',1228.672
'0:05.957',1228.151
'0:05.961',1227.326
'0:05.965',1226.430
'0:05.969',1225.759
'0:05.973',1225.555
'0:05.977',1225.892
'0:05.980',1226.609
'0:05.984',1227.393
'0:05.988',1227.880
'0:05.992',1227.764
'0:05.996',1226.868
'0:06.000',1225.284
'0:06.004',1223.321
'0:06.008',1221.400
'0:06.012',1219.870
'0:06.016',1218.933
'0:06.020',1218.645
'0:06.023',1218.895
'0:06.027',1219.441
'0:06.031',1220.050
'0:06.035',1220.654
'0:06.039',1221.408
'0:06.043',1222.521
'0:06.047',1224.113
'0:06.051',1226.172
'0:06.055',1228.551
'0:06.059',1230.960
'0:06.063',1233.035
'0:06.066',1234.511
'0:06.070',1235.248
'0:06.074',1235.252
'0:06.078',1234.606
'0:06.082',1233.460
'0:06.086',1231.964
'0:06.090',1230.310
'0:06.094',1228.780
'0:06.098',1227.709
'0:06.102',1227.305
'0:06.105',1227.513
'0:06.109',1228.076
'0:06.113',1228.705
'0:06.117',1229.276
'0:06.121',1229.872
'0:06.125',1230.602
'0:06.129',1231.452
'0:06.133',1232.260
'0:06.137',1232.877
'0:06.141',1233.260
'0:06.145',1233.473
'0:06.148',1233.619
'0:06.152',1233.781
'0:06.156',1233.961
'0:06.160',1234.127
'0:06.164',1234.273
'0:06.168',1234.394
'0:06.172',1234.490
'0:06.176',1234.556
'0:06.180',1234.615
'0:06.184',1234.682
'0:06.188',1234.773
'0:06.191',1234.882
'0:06.195',1235.027
'0:06.199',1235.252
'0:06.203',1235.598
'0:06.207',1236.082
'0:06.211',1236.711
'0:06.215',1237.453
'0:06.219',1238.224
'0:06.223',1238.916
'0:06.227',1239.462
'0:06.230',1239.803
'0:06.234',1239.870
'0:06.238',1239.587
'0:06.242',1238.982
'0:06.246',1238.207
'0:06.250',1237.407
'0:06.254',1236.699
'0:06.258',1236.215
'0:06.262',1236.128
'0:06.266',1236.507
'0:06.270',1237.244
'0:06.273',1238.036
'0:06.277',1238.499
'0:06.281',1238.316
'0:06.285',1237.336
'0:06.289',1235.594
'0:06.293',1233.256
'0:06.297',1230.627
'0:06.301',1228.051
'0:06.305',1225.805
'0:06.309',1224.080
'0:06.313',1222.979
'0:06.316',1222.538
'0:06.320',1222.796
'0:06.324',1223.729
'0:06.328',1225.196
'0:06.332',1226.918
'0:06.336',1228.626
'0:06.340',1230.139
'0:06.344',1231.277
'0:06.348',1231.856
'0:06.352',1231.777
'0:06.355',1231.060
'0:06.359',1229.822
'0:06.363',1228.209
'0:06.367',1226.372
'0:06.371',1224.450
'0:06.375',1222.604
'0:06.379',1220.946
'0:06.383',1219.537
'0:06.387',1218.441
'0:06.391',1217.799
'0:06.395',1217.774
'0:06.398',1218.462
'0:06.402',1219.841
'0:06.406',1221.750
'0:06.410',1223.888
'0:06.414',1225.826
'0:06.418',1227.147
'0:06.422',1227.614
'0:06.426',1227.243
'0:06.430',1226.209
'0:06.434',1224.763
'0:06.438',1223.150
'0:06.441',1221.642
'0:06.445',1220.521
'0:06.449',1219.995
'0:06.453',1220.150
'0:06.457',1220.962
'0:06.461',1222.300
'0:06.465',1223.938
'0:06.469',1225.559
'0:06.473',1226.872
'0:06.477',1227.705
'0:06.480',1228.030
'0:06.484',1227.918
'0:06.488',1227.476
'0:06.492',1226.801
'0:06.496',1225.938
'0:06.500',1224.888
'0:06.504',1223.704
'0:06.508',1222.521
'0:06.512',1221.458
'0:06.516',1220.554
'0:06.520',1219.741
'0:06.523',1218.945
'0:06.527',1218.137
'0:06.531',1217.403
'0:06.535',1216.916
'0:06.539',1216.795
'0:06.543',1216.982
'0:06.547',1217.303
'0:06.551',1217.582
'0:06.555',1217.808
'0:06.559',1218.087
'0:06.563',1218.533
'0:06.566',1219.170
'0:06.570',1219.987
'0:06.574',1220.929
'0:06.578',1221.837
'0:06.582',1222.513
'0:06.586',1222.825
'0:06.590',1222.771
'0:06.594',1222.508
'0:06.598',1222.296
'0:06.602',1222.321
'0:06.605',1222.617
'0:06.609',1223.092
'0:06.613',1223.646
'0:06.617',1224.209
'0:06.621',1224.730
'0:06.625',1225.192
'0:06.629',1225.555
'0:06.633',1225.792
'0:06.637',1225.888
'0:06.641',1225.867
'0:06.645',1225.751
'0:06.648',1225.488
'0:06.652',1225.063
'0:06.656',1224.513
'0:06.660',1223.921
'0:06.664',1223.350
'0:06.668',1222.825
'0:06.672',1222.333
'0:06.676',1221.904
'0:06.680',1221.617
'0:06.684',1221.492
'0:06.688',1221.479
'0:06.691',1221.546
'0:06.695',1221.646
'0:06.699',1221.733
'0:06.703',1221.771
'0:06.707',1221.729
'0:06.711',1221.571
'0:06.715',1221.337
'0:06.719',1221.071
'0:06.723',1220.800
'0:06.727',1220.529
'0:06.730',1220.329
'0:06.734',1220.266
'0:06.738',1220.391
'0:06.742',1220.733
'0:06.746',1221.312
'0:06.750',1222.117
'0:06.754',1223.125
'0:06.758',1224.284
'0:06.762',1225.530
'0:06.766',1226.759
'0:06.770',1227.872
'0:06.773',1228.751
'0:06.777',1229.251
'0:06.781',1229.235
'0:06.785',1228.710
'0:06.789',1227.855
'0:06.793',1226.913
'0:06.797',1226.117
'0:06.801',1225.642
'0:06.805',1225.609
'0:06.809',1226.088
'0:06.813',1227.047
'0:06.816',1228.301
'0:06.820',1229.614
'0:06.824',1230.864
'0:06.828',1232.081
'0:06.832',1233.306
'0:06.836',1234.415
'0:06.840',1235.161
'0:06.844',1235.365
'0:06.848',1235.032
'0:06.852',1234.352
'0:06.855',1233.602
'0:06.859',1233.023
'0:06.863',1232.710
'0:06.867',1232.656
'0:06.871',1232.869
'0:06.875',1233.306
'0:06.879',1233.811
'0:06.883',1234.186
'0:06.887',1234.361
'0:06.891',1234.340
'0:06.895',1234.052
'0:06.898',1233.315
'0:06.902',1231.977
'0:06.906',1230.081
'0:06.910',1227.843
'0:06.914',1225.563
'0:06.918',1223.521
'0:06.922',1221.908
'0:06.926',1220.850
'0:06.930',1220.383
'0:06.934',1220.471
'0:06.938',1220.987
'0:06.941',1221.779
'0:06.945',1222.646
'0:06.949',1223.434
'0:06.953',1224.025
'0:06.957',1224.430
'0:06.961',1224.746
'0:06.965',1225.117
'0:06.969',1225.559
'0:06.973',1225.942
'0:06.977',1226.055
'0:06.980',1225.730
'0:06.984',1224.955
'0:06.988',1223.817
'0:06.992',1222.463
'0:06.996',1221.079
'0:07.000',1219.829
'0:07.004',1218.833
'0:07.008',1218.141
'0:07.012',1217.741
'0:07.016',1217.620
'0:07.020',1217.762
'0:07.023',1218.166
'0:07.027',1218.795
'0:07.031',1219.637
'0:07.035',1220.712
'0:07.039',1222.054
'0:07.043',1223.621
'0:07.047',1225.313
'0:07.051',1227.026
'0:07.055',1228.697
'0:07.059',1230.214
'0:07.063',1231.389
'0:07.066',1232.081
'0:07.070',1232.306
'0:07.074',1232.248
'0:07.078',1232.069
'0:07.082',1231.810
'0:07.086',1231.456
'0:07.090',1231.035
'0:07.094',1230.593
'0:07.098',1230.156
'0:07.102',1229.710
'0:07.105',1229.305
'0:07.109',1229.043
'0:07.113',1229.001
'0:07.117',1229.210
'0:07.121',1229.731
'0:07.125',1230.639
'0:07.129',1231.998
'0:07.133',1233.710
'0:07.137',1235.548
'0:07.141',1237.215
'0:07.145',1238.495
'0:07.148',1239.270
'0:07.152',1239.528
'0:07.156',1239.299
'0:07.160',1238.666
'0:07.164',1237.736
'0:07.168',1236.669
'0:07.172',1235.611
'0:07.176',1234.711
'0:07.180',1234.081
'0:07.184',1233.802
'0:07.188',1233.902
'0:07.191',1234.340
'0:07.195',1234.944
'0:07.199',1235.432
'0:07.203',1235.515
'0:07.207',1235.082
'0:07.211',1234.227
'0:07.215',1233.165
'0:07.219',1232.077
'0:07.223',1231.068
'0:07.227',1230.277
'0:07.230',1229.851
'0:07.234',1229.818
'0:07.238',1230.031
'0:07.242',1230.314
'0:07.246',1230.602
'0:07.250',1230.935
'0:07.254',1231.310
'0:07.258',1231.598
'0:07.262',1231.668
'0:07.266',1231.514
'0:07.270',1231.318
'0:07.273',1231.318
'0:07.277',1231.643
'0:07.281',1232.260
'0:07.285',1232.952
'0:07.289',1233.352
'0:07.293',1233.115
'0:07.297',1232.073
'0:07.301',1230.347
'0:07.305',1228.289
'0:07.309',1226.297
'0:07.313',1224.688
'0:07.316',1223.671
'0:07.320',1223.350
'0:07.324',1223.704
'0:07.328',1224.592
'0:07.332',1225.767
'0:07.336',1226.955
'0:07.340',1227.939
'0:07.344',1228.597
'0:07.348',1228.935
'0:07.352',1229.022
'0:07.355',1228.972
'0:07.359',1228.905
'0:07.363',1228.914
'0:07.367',1229.051
'0:07.371',1229.310
'0:07.375',1229.606
'0:07.379',1229.843
'0:07.383',1229.947
'0:07.387',1229.885
'0:07.391',1229.681
'0:07.395',1229.381
'0:07.398',1229.055
'0:07.402',1228.780
'0:07.406',1228.639
'0:07.410',1228.689
'0:07.414',1228.914
'0:07.418',1229.247
'0:07.422',1229.585
'0:07.426',1229.806
'0:07.430',1229.831
'0:07.434',1229.606
'0:07.438',1229.060
'0:07.441',1228.151
'0:07.445',1226.943
'0:07.449',1225.592
'0:07.453',1224.334
'0:07.457',1223.338
'0:07.461',1222.638
'0:07.465',1222.096
'0:07.469',1221.533
'0:07.473',1220.841
'0:07.477',1220.012
'0:07.480',1219.070
'0:07.484',1218.028
'0:07.488',1216.937
'0:07.492',1215.890
'0:07.496',1215.069
'0:07.500',1214.540
'0:07.504',1214.203
'0:07.508',1213.878
'0:07.512',1213.482
'0:07.516',1213.023
'0:07.520',1212.515
'0:07.523',1211.936
'0:07.527',1211.340
'0:07.531',1210.802
'0:07.535',1210.427
'0:07.539',1210.285
'0:07.543',1210.410
'0:07.547',1210.752
'0:07.551',1211.181
'0:07.555',1211.586
'0:07.559',1211.927
'0:07.563',1212.240
'0:07.566',1212.557
'0:07.570',1212.861
'0:07.574',1213.123
'0:07.578',1213.348
'0:07.582',1213.561
'0:07.586',1213.748
'0:07.590',1213.898
'0:07.594',1214.011
'0:07.598',1214.140
'0:07.602',1214.369
'0:07.605',1214.732
'0:07.609',1215.228
'0:07.613',1215.795
'0:07.617',1216.382
'0:07.621',1217.003
'0:07.625',1217.628
'0:07.629',1218.199
'0:07.633',1218.641
'0:07.637',1218.883
'0:07.641',1218.874
'0:07.645',1218.595
'0:07.648',1218.145
'0:07.652',1217.691
'0:07.656',1217.366
'0:07.660',1217.224
'0:07.664',1217.307
'0:07.668',1217.612
'0:07.672',1218.041
'0:07.676',1218.478
'0:07.680',1218.854
'0:07.684',1219.112
'0:07.688',1219.262
'0:07.691',1219.374
'0:07.695',1219.491
'0:07.699',1219.549
'0:07.703',1219.470
'0:07.707',1219.283
'0:07.711',1219.083
'0:07.715',1218.891
'0:07.719',1218.691
'0:07.723',1218.458
'0:07.727',1218.178
'0:07.730',1217.845
'0:07.734',1217.412
'0:07.738',1216.841
'0:07.742',1216.124
'0:07.746',1215.257
'0:07.750',1214.236
'0:07.754',1213.086
'0:07.758',1211.852
'0:07.762',1210.627
'0:07.766',1209.493
'0:07.770',1208.497
'0:07.773',1207.722
'0:07.777',1207.264
'0:07.781',1207.126
'0:07.785',1207.210
'0:07.789',1207.343
'0:07.793',1207.381
'0:07.797',1207.239
'0:07.801',1206.943
'0:07.805',1206.626
'0:07.809',1206.430
'0:07.813',1206.460
'0:07.816',1206.797
'0:07.820',1207.522
'0:07.824',1208.664
'0:07.828',1210.110
'0:07.832',1211.665
'0:07.836',1213.140
'0:07.840',1214.419
'0:07.844',1215.478
'0:07.848',1216.324
'0:07.852',1216.945
'0:07.855',1217.266
'0:07.859',1217.287
'0:07.863',1217.099
'0:07.867',1216.799
'0:07.871',1216.449
'0:07.875',1216.120
'0:07.879',1215.899
'0:07.883',1215.886
'0:07.887',1216.153
'0:07.891',1216.707
'0:07.895',1217.487
'0:07.898',1218.449
'0:07.902',1219.562
'0:07.906',1220.746
'0:07.910',1221.883
'0:07.914',1222.892
'0:07.918',1223.692
'0:07.922',1224.200
'0:07.926',1224.330
'0:07.930',1224.055
'0:07.934',1223.509
'0:07.938',1222.983
'0:07.941',1222.829
'0:07.945',1223.250
'0:07.949',1224.275
'0:07.953',1225.759
'0:07.957',1227.526
'0:07.961',1229.468
'0:07.965',1231.535
'0:07.969',1233.640
'0:07.973',1235.565
'0:07.977',1237.086
'0:07.980',1238.053
'0:07.984',1238.466
'0:07.988',1238.470
'0:07.992',1238.295
'0:07.996',1238.078
'0:08.000',1237.795
'0:08.004',1237.269
'0:08.008',1236.307
'0:08.012',1234.815
'0:08.016',1232.906
'0:08.020',1230.797
'0:08.023',1228.714
'0:08.027',1226.784
'0:08.031',1225.088
'0:08.035',1223.667
'0:08.039',1222.542
'0:08.043',1221.721
'0:08.047',1221.200
'0:08.051',1220.991
'0:08.055',1221.116
'0:08.059',1221.625
'0:08.063',1222.575
'0:08.066',1224.009
'0:08.070',1225.922
'0:08.074',1228.201
'0:08.078',1230.647
'0:08.082',1232.981
'0:08.086',1234.973
'0:08.090',1236.490
'0:08.094',1237.499
'0:08.098',1237.995
'0:08.102',1237.982
'0:08.105',1237.507
'0:08.109',1236.740
'0:08.113',1235.932
'0:08.117',1235.269
'0:08.121',1234.782
'0:08.125',1234.390
'0:08.129',1234.019
'0:08.133',1233.615
'0:08.137',1233.169
'0:08.141',1232.735
'0:08.145',1232.369
'0:08.148',1232.027
'0:08.152',1231.623
'0:08.156',1231.097
'0:08.160',1230.477
'0:08.164',1229.843
'0:08.168',1229.289
'0:08.172',1228.835
'0:08.176',1228.447
'0:08.180',1228.084
'0:08.184',1227.739
'0:08.188',1227.405
'0:08.191',1227.122
'0:08.195',1226.926
'0:08.199',1226.843
'0:08.203',1226.855
'0:08.207',1226.913
'0:08.211',1226.943
'0:08.215',1226.863
'0:08.219',1226.626
'0:08.223',1226.234
'0:08.227',1225.746
'0:08.230',1225.242
'0:08.234',1224.796
'0:08.238',1224.434
'0:08.242',1224.105
'0:08.246',1223.717
'0:08.250',1223.234
'0:08.254',1222.642
'0:08.258',1221.954
'0:08.262',1221.229
'0:08.266',1220.575
'0:08.270',1220.154
'0:08.273',1220.075
'0:08.277',1220.366
'0:08.281',1220.966
'0:08.285',1221.742
'0:08.289',1222.558
'0:08.293',1223.350
'0:08.297',1224.088
'0:08.301',1224.730
'0:08.305',1225.155
'0:08.309',1225.292
'0:08.313',1225.213
'0:08.316',1225.105
'0:08.320',1225.071
'0:08.324',1225.121
'0:08.328',1225.201
'0:08.332',1225.188
'0:08.336',1224.917
'0:08.340',1224.309
'0:08.344',1223.371
'0:08.348',1222.129
'0:08.352',1220.662
'0:08.355',1219.145
'0:08.359',1217.808
'0:08.363',1216.807
'0:08.367',1216.220
'0:08.371',1216.053
'0:08.375',1216.274
'0:08.379',1216.828
'0:08.383',1217.674
'0:08.387',1218.795
'0:08.391',1220.220
'0:08.395',1221.937
'0:08.398',1223.896
'0:08.402',1225.984
'0:08.406',1228.030
'0:08.410',1229.793
'0:08.414',1231.089
'0:08.418',1231.952
'0:08.422',1232.610
'0:08.426',1233.348
'0:08.430',1234.331
'0:08.434',1235.561
'0:08.438',1236.924
'0:08.441',1238.295
'0:08.445',1239.637
'0:08.449',1240.916
'0:08.453',1242.008
'0:08.457',1242.683
'0:08.461',1242.704
'0:08.465',1241.929
'0:08.469',1240.362
'0:08.473',1238.186
'0:08.477',1235.744
'0:08.480',1233.448
'0:08.484',1231.614
'0:08.488',1230.347
'0:08.492',1229.564
'0:08.496',1229.143
'0:08.500',1229.018
'0:08.504',1229.218
'0:08.508',1229.714
'0:08.512',1230.331
'0:08.516',1230.743
'0:08.520',1230.585
'0:08.523',1229.635
'0:08.527',1227.951
'0:08.531',1225.876
'0:08.535',1223.884
'0:08.539',1222.413
'0:08.543',1221.767
'0:08.547',1222.087
'0:08.551',1223.359
'0:08.555',1225.396
'0:08.559',1227.859
'0:08.563',1230.318
'0:08.566',1232.344
'0:08.570',1233.585
'0:08.574',1233.844
'0:08.578',1233.069
'0:08.582',1231.368
'0:08.586',1228.997
'0:08.590',1226.284
'0:08.594',1223.629
'0:08.598',1221.450
'0:08.602',1220.062
'0:08.605',1219.600
'0:08.609',1219.991
'0:08.613',1221.037
'0:08.617',1222.508
'0:08.621',1224.263
'0:08.625',1226.222
'0:08.629',1228.259
'0:08.633',1230.231
'0:08.637',1232.006
'0:08.641',1233.444
'0:08.645',1234.386
'0:08.648',1234.682
'0:08.652',1234.265
'0:08.656',1233.173
'0:08.660',1231.589
'0:08.664',1229.826
'0:08.668',1228.264
'0:08.672',1227.159
'0:08.676',1226.530
'0:08.680',1226.247
'0:08.684',1226.180
'0:08.688',1226.251
'0:08.691',1226.384
'0:08.695',1226.467
'0:08.699',1226.392
'0:08.703',1226.063
'0:08.707',1225.438
'0:08.711',1224.580
'0:08.715',1223.600
'0:08.719',1222.575
'0:08.723',1221.571
'0:08.727',1220.687
'0:08.730',1219.975
'0:08.734',1219.399
'0:08.738',1218.920
'0:08.742',1218.541
'0:08.746',1218.253
'0:08.750',1218.062
'0:08.754',1218.003
'0:08.758',1218.133
'0:08.762',1218.491
'0:08.766',1219.070
'0:08.770',1219.820
'0:08.773',1220.646
'0:08.777',1221.433
'0:08.781',1222.050
'0:08.785',1222.333
'0:08.789',1222.200
'0:08.793',1221.675
'0:08.797',1220.858
'0:08.801',1219.883
'0:08.805',1218.845
'0:08.809',1217.808
'0:08.813',1216.861
'0:08.816',1216.145
'0:08.820',1215.724
'0:08.824',1215.557
'0:08.828',1215.611
'0:08.832',1215.932
'0:08.836',1216.545
'0:08.840',1217.366
'0:08.844',1218.333
'0:08.848',1219.429
'0:08.852',1220.583
'0:08.855',1221.633
'0:08.859',1222.425
'0:08.863',1222.938
'0:08.867',1223.284
'0:08.871',1223.621
'0:08.875',1224.021
'0:08.879',1224.513
'0:08.883',1225.138
'0:08.887',1225.867
'0:08.891',1226.547
'0:08.895',1226.997
'0:08.898',1227.147
'0:08.902',1227.018
'0:08.906',1226.630
'0:08.910',1225.997
'0:08.914',1225.155
'0:08.918',1224.267
'0:08.922',1223.588
'0:08.926',1223.388
'0:08.930',1223.788
'0:08.934',1224.713
'0:08.938',1225.930
'0:08.941',1227.209
'0:08.945',1228.334
'0:08.949',1229.139
'0:08.953',1229.435
'0:08.957',1229.076
'0:08.961',1227.984
'0:08.965',1226.197
'0:08.969',1223.904
'0:08.973',1221.458
'0:08.977',1219.274
'0:08.980',1217.653
'0:08.984',1216.641
'0:08.988',1216.070
'0:08.992',1215.682
'0:08.996',1215.232
'0:09.000',1214.582
'0:09.004',1213.757
'0:09.008',1212.927
'0:09.012',1212.319
'0:09.016',1212.086
'0:09.020',1212.306
'0:09.023',1212.977
'0:09.027',1214.065
'0:09.031',1215.503
'0:09.035',1217.170
'0:09.039',1218.937
'0:09.043',1220.700
'0:09.047',1222.350
'0:09.051',1223.775
'0:09.055',1224.942
'0:09.059',1225.967
'0:09.063',1226.988
'0:09.066',1228.055
'0:09.070',1229.076
'0:09.074',1229.868
'0:09.078',1230.281
'0:09.082',1230.310
'0:09.086',1230.097
'0:09.090',1229.864
'0:09.094',1229.806
'0:09.098',1230.068
'0:09.102',1230.664
'0:09.105',1231.431
'0:09.109',1232.089
'0:09.113',1232.469
'0:09.117',1232.606
'0:09.121',1232.664
'0:09.125',1232.777
'0:09.129',1232.935
'0:09.133',1233.060
'0:09.137',1233.144
'0:09.141',1233.210
'0:09.145',1233.260
'0:09.148',1233.210
'0:09.152',1233.002
'0:09.156',1232.669
'0:09.160',1232.289
'0:09.164',1231.968
'0:09.168',1231.806
'0:09.172',1231.852
'0:09.176',1232.148
'0:09.180',1232.698
'0:09.184',1233.469
'0:09.188',1234.456
'0:09.191',1235.665
'0:09.195',1236.949
'0:09.199',1238.011
'0:09.203',1238.591
'0:09.207',1238.566
'0:09.211',1237.970
'0:09.215',1236.961
'0:09.219',1235.765
'0:09.223',1234.631
'0:09.227',1233.710
'0:09.230',1233.019
'0:09.234',1232.548
'0:09.238',1232.385
'0:09.242',1232.656
'0:09.246',1233.315
'0:09.250',1234.069
'0:09.254',1234.477
'0:09.258',1234.190
'0:09.262',1233.115
'0:09.266',1231.381
'0:09.270',1229.226
'0:09.273',1226.855
'0:09.277',1224.442
'0:09.281',1222.150
'0:09.285',1220.095
'0:09.289',1218.345
'0:09.293',1216.907
'0:09.297',1215.757
'0:09.301',1214.886
'0:09.305',1214.299
'0:09.309',1213.969
'0:09.313',1213.861
'0:09.316',1213.915
'0:09.320',1214.044
'0:09.324',1214.132
'0:09.328',1214.111
'0:09.332',1213.986
'0:09.336',1213.840
'0:09.340',1213.790
'0:09.344',1213.973
'0:09.348',1214.519
'0:09.352',1215.486
'0:09.355',1216.824
'0:09.359',1218.391
'0:09.363',1219.979
'0:09.367',1221.396
'0:09.371',1222.588
'0:09.375',1223.654
'0:09.379',1224.684
'0:09.383',1225.630
'0:09.387',1226.326
'0:09.391',1226.530
'0:09.395',1225.997
'0:09.398',1224.638
'0:09.402',1222.621
'0:09.406',1220.300
'0:09.410',1218.045
'0:09.414',1216.124
'0:09.418',1214.669
'0:09.422',1213.744
'0:09.426',1213.361
'0:09.430',1213.528
'0:09.434',1214.211
'0:09.438',1215.328
'0:09.441',1216.766
'0:09.445',1218.408
'0:09.449',1220.179
'0:09.453',1222.029
'0:09.457',1223.904
'0:09.461',1225.705
'0:09.465',1227.318
'0:09.469',1228.680
'0:09.473',1229.810
'0:09.477',1230.793
'0:09.480',1231.668
'0:09.484',1232.456
'0:09.488',1233.260
'0:09.492',1234.261
'0:09.496',1235.536
'0:09.500',1236.986
'0:09.504',1238.361
'0:09.508',1239.428
'0:09.512',1240.103
'0:09.516',1240.478
'0:09.520',1240.753
'0:09.523',1241.099
'0:09.527',1241.574
'0:09.531',1242.054
'0:09.535',1242.312
'0:09.539',1242.108
'0:09.543',1241.291
'0:09.547',1239.866
'0:09.551',1237.970
'0:09.555',1235.811
'0:09.559',1233.560
'0:09.563',1231.339
'0:09.566',1229.289
'0:09.570',1227.576
'0:09.574',1226.272
'0:09.578',1225.305
'0:09.582',1224.575
'0:09.586',1224.113
'0:09.590',1224.071
'0:09.594',1224.521
'0:09.598',1225.396
'0:09.602',1226.480
'0:09.605',1227.526
'0:09.609',1228.401
'0:09.613',1229.118
'0:09.617',1229.743
'0:09.621',1230.256
'0:09.625',1230.489
'0:09.629',1230.260
'0:09.633',1229.501
'0:09.637',1228.368
'0:09.641',1227.159
'0:09.645',1226.126
'0:09.648',1225.371
'0:09.652',1224.909
'0:09.656',1224.717
'0:09.660',1224.713
'0:09.664',1224.692
'0:09.668',1224.380
'0:09.672',1223.592
'0:09.676',1222.404
'0:09.680',1221.158
'0:09.684',1220.279
'0:09.688',1220.104
'0:09.691',1220.766
'0:09.695',1222.212
'0:09.699',1224.184
'0:09.703',1226.251
'0:09.707',1227.964
'0:09.711',1229.022
'0:09.715',1229.322
'0:09.719',1228.964
'0:09.723',1228.209
'0:09.727',1227.372
'0:09.730',1226.630
'0:09.734',1225.947
'0:09.738',1225.242
'0:09.742',1224.488
'0:09.746',1223.721
'0:09.750',1222.971
'0:09.754',1222.212
'0:09.758',1221.383
'0:09.762',1220.491
'0:09.766',1219.604
'0:09.770',1218.762
'0:09.773',1218.033
'0:09.777',1217.520
'0:09.781',1217.295
'0:09.785',1217.274
'0:09.789',1217.316
'0:09.793',1217.345
'0:09.797',1217.337
'0:09.801',1217.307
'0:09.805',1217.266
'0:09.809',1217.203
'0:09.813',1217.120
'0:09.816',1217.028
'0:09.820',1216.991
'0:09.824',1217.078
'0:09.828',1217.366
'0:09.832',1217.883
'0:09.836',1218.603
'0:09.840',1219.454
'0:09.844',1220.304
'0:09.848',1220.971
'0:09.852',1221.321
'0:09.855',1221.379
'0:09.859',1221.279
'0:09.863',1221.129
'0:09.867',1220.971
'0:09.871',1220.791
'0:09.875',1220.579
'0:09.879',1220.329
'0:09.883',1220.020
'0:09.887',1219.645
'0:09.891',1219.183
'0:09.895',1218.633
'0:09.898',1217.999
'0:09.902',1217.307
'0:09.906',1216.586
'0:09.910',1215.865
'0:09.914',1215.153
'0:09.918',1214.486
'0:09.922',1213.969
'0:09.926',1213.753
'0:09.930',1213.911
'0:09.934',1214.353
'0:09.938',1214.886
'0:09.941',1215.420
'0:09.945',1216.016
'0:09.949',1216.786
'0:09.953',1217.687
'0:09.957',1218.520
'0:09.961',1219.033
'0:09.965',1219.091
'0:09.969',1218.758
'0:09.973',1218.233
'0:09.977',1217.666
'0:09.980',1217.091
'0:09.984',1216.499
'0:09.988',1215.936
'0:09.992',1215.565
'0:09.996',1215.603
'0:10.000',1216.241
'0:10.004',1217.537
'0:10.008',1219.395
'0:10.012',1221.550
'0:10.016',1223.567
'0:10.020',1224.996
'0:10.023',1225.538
'0:10.027',1225.163
'0:10.031',1224.105
'0:10.035',1222.783
'0:10.039',1221.612
'0:10.043',1220.896
'0:10.047',1220.725
'0:10.051',1221.033
'0:10.055',1221.637
'0:10.059',1222.379
'0:10.063',1223.204
'0:10.066',1224.080
'0:10.070',1224.942
'0:10.074',1225.705
'0:10.078',1226.317
'0:10.082',1226.705
'0:10.086',1226.784
'0:10.090',1226.488
'0:10.094',1225.901
'0:10.098',1225.238
'0:10.102',1224.717
'0:10.105',1224.467
'0:10.109',1224.613
'0:10.113',1225.292
'0:10.117',1226.542
'0:10.121',1228.189
'0:10.125',1229.872
'0:10.129',1231.160
'0:10.133',1231.714
'0:10.137',1231.381
'0:10.141',1230.243
'0:10.145',1228.585
'0:10.148',1226.818
'0:10.152',1225.351
'0:10.156',1224.484
'0:10.160',1224.300
'0:10.164',1224.696
'0:10.168',1225.430
'0:10.172',1226.301
'0:10.176',1227.268
'0:10.180',1228.355
'0:10.184',1229.481
'0:10.188',1230.368
'0:10.191',1230.739
'0:10.195',1230.468
'0:10.199',1229.689
'0:10.203',1228.705
'0:10.207',1227.864
'0:10.211',1227.397
'0:10.215',1227.405
'0:10.219',1227.880
'0:10.223',1228.793
'0:10.227',1230.097
'0:10.230',1231.748
'0:10.234',1233.590
'0:10.238',1235.344
'0:10.242',1236.678
'0:10.246',1237.319
'0:10.250',1237.136
'0:10.254',1236.078
'0:10.258',1234.169
'0:10.262',1231.589
'0:10.266',1228.710
'0:10.270',1225.992
'0:10.273',1223.829
'0:10.277',1222.479
'0:10.281',1222.021
'0:10.285',1222.375
'0:10.289',1223.338
'0:10.293',1224.655
'0:10.297',1226.059
'0:10.301',1227.284
'0:10.305',1228.097
'0:10.309',1228.384
'0:10.313',1228.214
'0:10.316',1227.726
'0:10.320',1227.047
'0:10.324',1226.205
'0:10.328',1225.201
'0:10.332',1224.067
'0:10.336',1222.942
'0:10.340',1221.983
'0:10.344',1221.329
'0:10.348',1221.041
'0:10.352',1221.162
'0:10.355',1221.692
'0:10.359',1222.621
'0:10.363',1223.909
'0:10.367',1225.438
'0:10.371',1227.034
'0:10.375',1228.510
'0:10.379',1229.731
'0:10.383',1230.618
'0:10.387',1231.148
'0:10.391',1231.343
'0:10.395',1231.285
'0:10.398',1231.139
'0:10.402',1231.127
'0:10.406',1231.377
'0:10.410',1231.827
'0:10.414',1232.306
'0:10.418',1232.677
'0:10.422',1232.898
'0:10.426',1233.035
'0:10.430',1233.252
'0:10.434',1233.652
'0:10.438',1234.173
'0:10.441',1234.661
'0:10.445',1234.952
'0:10.449',1234.952
'0:10.453',1234.661
'0:10.457',1234.198
'0:10.461',1233.773
'0:10.465',1233.506
'0:10.469',1233.335
'0:10.473',1233.085
'0:10.477',1232.652
'0:10.480',1232.081
'0:10.484',1231.456
'0:10.488',1230.822
'0:10.492',1230.214
'0:10.496',1229.726
'0:10.500',1229.472
'0:10.504',1229.489
'0:10.508',1229.710
'0:10.512',1230.006
'0:10.516',1230.235
'0:10.520',1230.243
'0:10.523',1229.893
'0:10.527',1229.176
'0:10.531',1228.180
'0:10.535',1227.051
'0:10.539',1225.930
'0:10.543',1224.917
'0:10.547',1224.071
'0:10.551',1223.463
'0:10.555',1223.134
'0:10.559',1223.075
'0:10.563',1223.259
'0:10.566',1223.629
'0:10.570',1224.071
'0:10.574',1224.450
'0:10.578',1224.663
'0:10.582',1224.700
'0:10.586',1224.567
'0:10.590',1224.296
'0:10.594',1223.913
'0:10.598',1223.500
'0:10.602',1223.167
'0:10.605',1222.988
'0:10.609',1222.954
'0:10.613',1222.963
'0:10.617',1222.892
'0:10.621',1222.638
'0:10.625',1222.121
'0:10.629',1221.312
'0:10.633',1220.258
'0:10.637',1219.149
'0:10.641',1218.274
'0:10.645',1217.845
'0:10.648',1217.945
'0:10.652',1218.541
'0:10.656',1219.549
'0:10.660',1220.879
'0:10.664',1222.421
'0:10.668',1224.067
'0:10.672',1225.696
'0:10.676',1227.159
'0:10.680',1228.251
'0:10.684',1228.864
'0:10.688',1229.085
'0:10.691',1229.089
'0:10.695',1228.968
'0:10.699',1228.747
'0:10.703',1228.480
'0:10.707',1228.234
'0:10.711',1228.055
'0:10.715',1228.001
'0:10.719',1228.176
'0:10.723',1228.593
'0:10.727',1229.105
'0:10.730',1229.489
'0:10.734',1229.547
'0:10.738',1229.260
'0:10.742',1228.789
'0:10.746',1228.355
'0:10.750',1228.068
'0:10.754',1227.847
'0:10.758',1227.543
'0:10.762',1227.088
'0:10.766',1226.526
'0:10.770',1225.863
'0:10.773',1225.084
'0:10.777',1224.213
'0:10.781',1223.379
'0:10.785',1222.733
'0:10.789',1222.346
'0:10.793',1222.192
'0:10.797',1222.229
'0:10.801',1222.375
'0:10.805',1222.542
'0:10.809',1222.667
'0:10.813',1222.733
'0:10.816',1222.688
'0:10.820',1222.496
'0:10.824',1222.179
'0:10.828',1221.796
'0:10.832',1221.362
'0:10.836',1220.875
'0:10.840',1220.370
'0:10.844',1219.912
'0:10.848',1219.512
'0:10.852',1219.120
'0:10.855',1218.716
'0:10.859',1218.291
'0:10.863',1217.783
'0:10.867',1217.157
'0:10.871',1216.441
'0:10.875',1215.645
'0:10.879',1214.794
'0:10.883',1213.948
'0:10.887',1213.173
'0:10.891',1212.457
'0:10.895',1211.731
'0:10.898',1210.977
'0:10.902',1210.189
'0:10.906',1209.277
'0:10.910',1208.081
'0:10.914',1206.539
'0:10.918',1204.730
'0:10.922',1202.805
'0:10.926',1200.975
'0:10.930',1199.546
'0:10.934',1198.737
'0:10.938',1198.596
'0:10.941',1199.016
'0:10.945',1199.796
'0:10.949',1200.663
'0:10.953',1201.329
'0:10.957',1201.642
'0:10.961',1201.554
'0:10.965',1201.050
'0:10.969',1200.196
'0:10.973',1199.175
'0:10.977',1198.191
'0:10.980',1197.287
'0:10.984',1196.391
'0:10.988',1195.516
'0:10.992',1194.812
'0:10.996',1194.420
'0:11.000',1194.332
'0:11.004',1194.441
'0:11.008',1194.657
'0:11.012',1194.899
'0:11.016',1195.099
'0:11.020',1195.266
'0:11.023',1195.457
'0:11.027',1195.703
'0:11.031',1195.991
'0:11.035',1196.283
'0:11.039',1196.612
'0:11.043',1196.991
'0:11.047',1197.366
'0:11.051',1197.637
'0:11.055',1197.770
'0:11.059',1197.791
'0:11.063',1197.704
'0:11.066',1197.437
'0:11.070',1196.949
'0:11.074',1196.245
'0:11.078',1195.399
'0:11.082',1194.520
'0:11.086',1193.715
'0:11.090',1193.028
'0:11.094',1192.465
'0:11.098',1192.032
'0:11.102',1191.715
'0:11.105',1191.494
'0:11.109',1191.407
'0:11.113',1191.494
'0:11.117',1191.719
'0:11.121',1192.003
'0:11.125',1192.340
'0:11.129',1192.790
'0:11.133',1193.386
'0:11.137',1194.103
'0:11.141',1194.874
'0:11.145',1195.649
'0:11.148',1196.403
'0:11.152',1197.133
'0:11.156',1197.883
'0:11.160',1198.691
'0:11.164',1199.617
'0:11.168',1200.713
'0:11.172',1201.980
'0:11.176',1203.359
'0:11.180',1204.755
'0:11.184',1206.039
'0:11.188',1207.114
'0:11.191',1207.910
'0:11.195',1208.343
'0:11.199',1208.364
'0:11.203',1208.010
'0:11.207',1207.372
'0:11.211',1206.560
'0:11.215',1205.668
'0:11.219',1204.788
'0:11.223',1203.988
'0:11.227',1203.317
'0:11.230',1202.788
'0:11.234',1202.425
'0:11.238',1202.300
'0:11.242',1202.509
'0:11.246',1203.117
'0:11.250',1204.109
'0:11.254',1205.430
'0:11.258',1207.010
'0:11.262',1208.760
'0:11.266',1210.589
'0:11.270',1212.411
'0:11.273',1214.144
'0:11.277',1215.765
'0:11.281',1217.299
'0:11.285',1218.749
'0:11.289',1220.033
'0:11.293',1221.116
'0:11.297',1222.104
'0:11.301',1223.234
'0:11.305',1224.709
'0:11.309',1226.580
'0:11.313',1228.730
'0:11.316',1231.006
'0:11.320',1233.335
'0:11.324',1235.678
'0:11.328',1238.015
'0:11.332',1240.408
'0:11.336',1242.975
'0:11.340',1245.813
'0:11.344',1248.934
'0:11.348',1252.256
'0:11.352',1255.623
'0:11.355',1258.944
'0:11.359',1262.270
'0:11.363',1265.775
'0:11.367',1269.567
'0:11.371',1273.647
'0:11.375',1277.865
'0:11.379',1281.945
'0:11.383',1285.604
'0:11.387',1288.658
'0:11.391',1291.038
'0:11.395',1292.722
'0:11.398',1293.772
'0:11.402',1294.305
'0:11.406',1294.422
'0:11.410',1294.147
'0:11.414',1293.493
'0:11.418',1292.484
'0:11.422',1291.071
'0:11.426',1289.100
'0:11.430',1286.425
'0:11.434',1283.053
'0:11.438',1279.127
'0:11.441',1274.777
'0:11.445',1270.059
'0:11.449',1264.996
'0:11.453',1259.686
'0:11.457',1254.273
'0:11.461',1248.909
'0:11.465',1243.654
'0:11.469',1238.486
'0:11.473',1233.331
'0:11.477',1228.164
'0:11.480',1223.063
'0:11.484',1218.199
'0:11.488',1213.753
'0:11.492',1209.802
'0:11.496',1206.260
'0:11.500',1202.963
'0:11.504',1199.808
'0:11.508',1196.749
'0:11.512',1193.782
'0:11.516',1190.890
'0:11.520',1188.081
'0:11.523',1185.381
'0:11.527',1182.863
'0:11.531',1180.626
'0:11.535',1178.763
'0:11.539',1177.375
'0:11.543',1176.583
'0:11.547',1176.554
'0:11.551',1177.467
'0:11.555',1179.400
'0:11.559',1182.255
'0:11.563',1185.772
'0:11.566',1189.598
'0:11.570',1193.420
'0:11.574',1197.070
'0:11.578',1200.546
'0:11.582',1203.967
'0:11.586',1207.456
'0:11.590',1211.098
'0:11.594',1214.953
'0:11.598',1218.970
'0:11.602',1222.979
'0:11.605',1226.734
'0:11.609',1230.039
'0:11.613',1232.769
'0:11.617',1234.894
'0:11.621',1236.490
'0:11.625',1237.682
'0:11.629',1238.670
'0:11.633',1239.649
'0:11.637',1240.728
'0:11.641',1241.916
'0:11.645',1243.116
'0:11.648',1244.208
'0:11.652',1245.075
'0:11.656',1245.621
'0:11.660',1245.842
'0:11.664',1245.788
'0:11.668',1245.463
'0:11.672',1244.704
'0:11.676',1243.308
'0:11.680',1241.241
'0:11.684',1238.736
'0:11.688',1236.161
'0:11.691',1233.861
'0:11.695',1232.006
'0:11.699',1230.602
'0:11.703',1229.564
'0:11.707',1228.789
'0:11.711',1228.151
'0:11.715',1227.564
'0:11.719',1226.959
'0:11.723',1226.280
'0:11.727',1225.488
'0:11.730',1224.567
'0:11.734',1223.546
'0:11.738',1222.508
'0:11.742',1221.558
'0:11.746',1220.750
'0:11.750',1220.070
'0:11.754',1219.483
'0:11.758',1218.958
'0:11.762',1218.483
'0:11.766',1218.083
'0:11.770',1217.799
'0:11.773',1217.645
'0:11.777',1217.616
'0:11.781',1217.749
'0:11.785',1218.087
'0:11.789',1218.628
'0:11.793',1219.291
'0:11.797',1219.941
'0:11.801',1220.412
'0:11.805',1220.625
'0:11.809',1220.600
'0:11.813',1220.391
'0:11.816',1220.050
'0:11.820',1219.641
'0:11.824',1219.245
'0:11.828',1218.887
'0:11.832',1218.499
'0:11.836',1218.024
'0:11.840',1217.466
'0:11.844',1216.870
'0:11.848',1216.282
'0:11.852',1215.736
'0:11.855',1215.265
'0:11.859',1214.890
'0:11.863',1214.611
'0:11.867',1214.428
'0:11.871',1214.319
'0:11.875',1214.232
'0:11.879',1214.119
'0:11.883',1214.019
'0:11.887',1214.032
'0:11.891',1214.219
'0:11.895',1214.582
'0:11.898',1215.099
'0:11.902',1215.782
'0:11.906',1216.641
'0:11.910',1217.703
'0:11.914',1218.983
'0:11.918',1220.446
'0:11.922',1222.058
'0:11.926',1223.779
'0:11.930',1225.588
'0:11.934',1227.484
'0:11.938',1229.414
'0:11.941',1231.227
'0:11.945',1232.785
'0:11.949',1234.044
'0:11.953',1235.061
'0:11.957',1235.936
'0:11.961',1236.861
'0:11.965',1238.003
'0:11.969',1239.370
'0:11.973',1240.716
'0:11.977',1241.691
'0:11.980',1242.041
'0:11.984',1241.712
'0:11.988',1240.878
'0:11.992',1239.857
'0:11.996',1238.957
'0:12.000',1238.349
'0:12.004',1238.015
'0:12.008',1237.853
'0:12.012',1237.707
'0:12.016',1237.420
'0:12.020',1236.865
'0:12.023',1236.044
'0:12.027',1235.077
'0:12.031',1234.077
'0:12.035',1232.998
'0:12.039',1231.639
'0:12.043',1229.789
'0:12.047',1227.380
'0:12.051',1224.509
'0:12.055',1221.333
'0:12.059',1218.028
'0:12.063',1214.753
'0:12.066',1211.623
'0:12.070',1208.622
'0:12.074',1205.634
'0:12.078',1202.567
'0:12.082',1199.483
'0:12.086',1196.545
'0:12.090',1193.878
'0:12.094',1191.582
'0:12.098',1189.744
'0:12.102',1188.456
'0:12.105',1187.831
'0:12.109',1187.969
'0:12.113',1188.865
'0:12.117',1190.436
'0:12.121',1192.494
'0:12.125',1194.820
'0:12.129',1197.174
'0:12.133',1199.337
'0:12.137',1201.154
'0:12.141',1202.588
'0:12.145',1203.684
'0:12.148',1204.522
'0:12.152',1205.155
'0:12.156',1205.701
'0:12.160',1206.280
'0:12.164',1206.947
'0:12.168',1207.651
'0:12.172',1208.306
'0:12.176',1208.843
'0:12.180',1209.227
'0:12.184',1209.439
'0:12.188',1209.481
'0:12.191',1209.331
'0:12.195',1208.985
'0:12.199',1208.477
'0:12.203',1207.868
'0:12.207',1207.193
'0:12.211',1206.510
'0:12.215',1205.872
'0:12.219',1205.313
'0:12.223',1204.872
'0:12.227',1204.584
'0:12.230',1204.459
'0:12.234',1204.488
'0:12.238',1204.684
'0:12.242',1205.005
'0:12.246',1205.293
'0:12.250',1205.401
'0:12.254',1205.284
'0:12.258',1205.018
'0:12.262',1204.693
'0:12.266',1204.326
'0:12.270',1203.951
'0:12.273',1203.701
'0:12.277',1203.730
'0:12.281',1204.130
'0:12.285',1204.959
'0:12.289',1206.268
'0:12.293',1208.031
'0:12.297',1210.089
'0:12.301',1212.236
'0:12.305',1214.386
'0:12.309',1216.549
'0:12.313',1218.749
'0:12.316',1220.991
'0:12.320',1223.250
'0:12.324',1225.438
'0:12.328',1227.368
'0:12.332',1228.768
'0:12.336',1229.447
'0:12.340',1229.385
'0:12.344',1228.760
'0:12.348',1227.951
'0:12.352',1227.376
'0:12.355',1227.326
'0:12.359',1227.943
'0:12.363',1229.264
'0:12.367',1231.268
'0:12.371',1233.802
'0:12.375',1236.624
'0:12.379',1239.457
'0:12.383',1242.008
'0:12.387',1243.979
'0:12.391',1245.138
'0:12.395',1245.404
'0:12.398',1244.813
'0:12.402',1243.516
'0:12.406',1241.774
'0:12.410',1239.953
'0:12.414',1238.457
'0:12.418',1237.540
'0:12.422',1237.228
'0:12.426',1237.332
'0:12.430',1237.624
'0:12.434',1237.961
'0:12.438',1238.311
'0:12.441',1238.632
'0:12.445',1238.778
'0:12.449',1238.524
'0:12.453',1237.749
'0:12.457',1236.561
'0:12.461',1235.232
'0:12.465',1233.986
'0:12.469',1232.915
'0:12.473',1232.006
'0:12.477',1231.277
'0:12.480',1230.864
'0:12.484',1230.931
'0:12.488',1231.548
'0:12.492',1232.619
'0:12.496',1233.894
'0:12.500',1235.007
'0:12.504',1235.636
'0:12.508',1235.648
'0:12.512',1235.165
'0:12.516',1234.452
'0:12.520',1233.719
'0:12.523',1232.998
'0:12.527',1232.160
'0:12.531',1231.077
'0:12.535',1229.760
'0:12.539',1228.409
'0:12.543',1227.268
'0:12.547',1226.505
'0:12.551',1226.197
'0:12.555',1226.313
'0:12.559',1226.705
'0:12.563',1227.122
'0:12.566',1227.347
'0:12.570',1227.380
'0:12.574',1227.447
'0:12.578',1227.814
'0:12.582',1228.647
'0:12.586',1229.960
'0:12.590',1231.635
'0:12.594',1233.519
'0:12.598',1235.432
'0:12.602',1237.269
'0:12.605',1238.974
'0:12.609',1240.520
'0:12.613',1241.908
'0:12.617',1243.071
'0:12.621',1243.854
'0:12.625',1244.087
'0:12.629',1243.662
'0:12.633',1242.587
'0:12.637',1240.995
'0:12.641',1239.170
'0:12.645',1237.424
'0:12.648',1236.003
'0:12.652',1235.007
'0:12.656',1234.390
'0:12.660',1234.019
'0:12.664',1233.773
'0:12.668',1233.598
'0:12.672',1233.452
'0:12.676',1233.302
'0:12.680',1233.140
'0:12.684',1232.977
'0:12.688',1232.860
'0:12.691',1232.864
'0:12.695',1233.040
'0:12.699',1233.394
'0:12.703',1233.865
'0:12.707',1234.361
'0:12.711',1234.790
'0:12.715',1235.065
'0:12.719',1235.119
'0:12.723',1234.902
'0:12.727',1234.377
'0:12.730',1233.573
'0:12.734',1232.594
'0:12.738',1231.568
'0:12.742',1230.552
'0:12.746',1229.564
'0:12.750',1228.693
'0:12.754',1228.034
'0:12.758',1227.576
'0:12.762',1227.201
'0:12.766',1226.851
'0:12.770',1226.517
'0:12.773',1226.205
'0:12.777',1225.913
'0:12.781',1225.655
'0:12.785',1225.417
'0:12.789',1225.188
'0:12.793',1224.951
'0:12.797',1224.692
'0:12.801',1224.405
'0:12.805',1224.063
'0:12.809',1223.667
'0:12.813',1223.271
'0:12.816',1222.971
'0:12.820',1222.771
'0:12.824',1222.617
'0:12.828',1222.413
'0:12.832',1222.075
'0:12.836',1221.608
'0:12.840',1221.108
'0:12.844',1220.629
'0:12.848',1220.175
'0:12.852',1219.725
'0:12.855',1219.262
'0:12.859',1218.774
'0:12.863',1218.316
'0:12.867',1217.962
'0:12.871',1217.749
'0:12.875',1217.662
'0:12.879',1217.670
'0:12.883',1217.716
'0:12.887',1217.778
'0:12.891',1217.853
'0:12.895',1217.937
'0:12.898',1218.003
'0:12.902',1218.037
'0:12.906',1218.028
'0:12.910',1217.928
'0:12.914',1217.695
'0:12.918',1217.349
'0:12.922',1216.907
'0:12.926',1216.399
'0:12.930',1215.878
'0:12.934',1215.370
'0:12.938',1214.857
'0:12.941',1214.357
'0:12.945',1213.944
'0:12.949',1213.632
'0:12.953',1213.353
'0:12.957',1213.086
'0:12.961',1212.873
'0:12.965',1212.773
'0:12.969',1212.865
'0:12.973',1213.173
'0:12.977',1213.623
'0:12.980',1214.069
'0:12.984',1214.403
'0:12.988',1214.586
'0:12.992',1214.657
'0:12.996',1214.661
'0:13.000',1214.640
'0:13.004',1214.632
'0:13.008',1214.644
'0:13.012',1214.649
'0:13.016',1214.611
'0:13.020',1214.532
'0:13.023',1214.419
'0:13.027',1214.332
'0:13.031',1214.344
'0:13.035',1214.503
'0:13.039',1214.815
'0:13.043',1215.274
'0:13.047',1215.849
'0:13.051',1216.478
'0:13.055',1217.095
'0:13.059',1217.653
'0:13.063',1218.116
'0:13.066',1218.528
'0:13.070',1218.999
'0:13.074',1219.575
'0:13.078',1220.220
'0:13.082',1220.841
'0:13.086',1221.358
'0:13.090',1221.783
'0:13.094',1222.212
'0:13.098',1222.738
'0:13.102',1223.317
'0:13.105',1223.888
'0:13.109',1224.417
'0:13.113',1224.896
'0:13.117',1225.301
'0:13.121',1225.605
'0:13.125',1225.822
'0:13.129',1226.042
'0:13.133',1226.334
'0:13.137',1226.668
'0:13.141',1226.988
'0:13.145',1227.313
'0:13.148',1227.714
'0:13.152',1228.205
'0:13.156',1228.789
'0:13.160',1229.464
'0:13.164',1230.172
'0:13.168',1230.843
'0:13.172',1231.443
'0:13.176',1231.964
'0:13.180',1232.398
'0:13.184',1232.731
'0:13.188',1232.977
'0:13.191',1233.265
'0:13.195',1233.769
'0:13.199',1234.573
'0:13.203',1235.578
'0:13.207',1236.582
'0:13.211',1237.395
'0:13.215',1237.857
'0:13.219',1237.865
'0:13.223',1237.378
'0:13.227',1236.549
'0:13.230',1235.640
'0:13.234',1234.873
'0:13.238',1234.340
'0:13.242',1234.073
'0:13.246',1234.094
'0:13.250',1234.336
'0:13.254',1234.723
'0:13.258',1235.194
'0:13.262',1235.640
'0:13.266',1235.940
'0:13.270',1236.044
'0:13.273',1235.986
'0:13.277',1235.798
'0:13.281',1235.477
'0:13.285',1235.052
'0:13.289',1234.602
'0:13.293',1234.140
'0:13.297',1233.665
'0:13.301',1233.177
'0:13.305',1232.702
'0:13.309',1232.310
'0:13.313',1232.064
'0:13.316',1232.002
'0:13.320',1232.106
'0:13.324',1232.310
'0:13.328',1232.560
'0:13.332',1232.835
'0:13.336',1233.110
'0:13.340',1233.310
'0:13.344',1233.369
'0:13.348',1233.256
'0:13.352',1232.985
'0:13.355',1232.594
'0:13.359',1232.210
'0:13.363',1232.019
'0:13.367',1232.127
'0:13.371',1232.556
'0:13.375',1233.240
'0:13.379',1234.065
'0:13.383',1234.919
'0:13.387',1235.711
'0:13.391',1236.357
'0:13.395',1236.782
'0:13.398',1236.936
'0:13.402',1236.840
'0:13.406',1236.561
'0:13.410',1236.203
'0:13.414',1235.840
'0:13.418',1235.511
'0:13.422',1235.257
'0:13.426',1235.169
'0:13.430',1235.298
'0:13.434',1235.636
'0:13.438',1236.111
'0:13.441',1236.674
'0:13.445',1237.294
'0:13.449',1237.940
'0:13.453',1238.532
'0:13.457',1238.991
'0:13.461',1239.274
'0:13.465',1239.366
'0:13.469',1239.232
'0:13.473',1238.903
'0:13.477',1238.474
'0:13.480',1238.082
'0:13.484',1237.828
'0:13.488',1237.770
'0:13.492',1237.940
'0:13.496',1238.328
'0:13.500',1238.803
'0:13.504',1239.124
'0:13.508',1239.137
'0:13.512',1238.907
'0:13.516',1238.699
'0:13.520',1238.782
'0:13.523',1239.266
'0:13.527',1240.041
'0:13.531',1240.824
'0:13.535',1241.291
'0:13.539',1241.208
'0:13.543',1240.566
'0:13.547',1239.574
'0:13.551',1238.557
'0:13.555',1237.753
'0:13.559',1237.174
'0:13.563',1236.678
'0:13.566',1236.128
'0:13.570',1235.519
'0:13.574',1235.011
'0:13.578',1234.702
'0:13.582',1234.577
'0:13.586',1234.590
'0:13.590',1234.752
'0:13.594',1235.057
'0:13.598',1235.402
'0:13.602',1235.623
'0:13.605',1235.623
'0:13.609',1235.402
'0:13.613',1234.977
'0:13.617',1234.365
'0:13.621',1233.640
'0:13.625',1232.956
'0:13.629',1232.498
'0:13.633',1232.410
'0:13.637',1232.689
'0:13.641',1233.252
'0:13.645',1234.056
'0:13.648',1235.086
'0:13.652',1236.236
'0:13.656',1237.299
'0:13.660',1238.086
'0:13.664',1238.503
'0:13.668',1238.536
'0:13.672',1238.236
'0:13.676',1237.703
'0:13.680',1237.086
'0:13.684',1236.528
'0:13.688',1236.107
'0:13.691',1235.794
'0:13.695',1235.490
'0:13.699',1235.098
'0:13.703',1234.602
'0:13.707',1234.086
'0:13.711',1233.640
'0:13.715',1233.319
'0:13.719',1233.110
'0:13.723',1233.031
'0:13.727',1233.110
'0:13.730',1233.377
'0:13.734',1233.760
'0:13.738',1234.086
'0:13.742',1234.215
'0:13.746',1234.194
'0:13.750',1234.152
'0:13.754',1234.152
'0:13.758',1234.190
'0:13.762',1234.248
'0:13.766',1234.323
'0:13.770',1234.427
'0:13.773',1234.586
'0:13.777',1234.773
'0:13.781',1234.882
'0:13.785',1234.777
'0:13.789',1234.381
'0:13.793',1233.685
'0:13.797',1232.739
'0:13.801',1231.652
'0:13.805',1230.568
'0:13.809',1229.585
'0:13.813',1228.743
'0:13.816',1228.026
'0:13.820',1227.363
'0:13.824',1226.668
'0:13.828',1225.892
'0:13.832',1225.067
'0:13.836',1224.246
'0:13.840',1223.463
'0:13.844',1222.692
'0:13.848',1221.917
'0:13.852',1221.150
'0:13.855',1220.462
'0:13.859',1219.912
'0:13.863',1219.508
'0:13.867',1219.258
'0:13.871',1219.187
'0:13.875',1219.241
'0:13.879',1219.316
'0:13.883',1219.308
'0:13.887',1219.195
'0:13.891',1219.008
'0:13.895',1218.795
'0:13.898',1218.524
'0:13.902',1218.133
'0:13.906',1217.628
'0:13.910',1217.041
'0:13.914',1216.366
'0:13.918',1215.624
'0:13.922',1214.911
'0:13.926',1214.340
'0:13.930',1213.973
'0:13.934',1213.857
'0:13.938',1214.019
'0:13.941',1214.444
'0:13.945',1215.032
'0:13.949',1215.674
'0:13.953',1216.332
'0:13.957',1217.024
'0:13.961',1217.724
'0:13.965',1218.362
'0:13.969',1218.937
'0:13.973',1219.458
'0:13.977',1219.908
'0:13.980',1220.279
'0:13.984',1220.579
'0:13.988',1220.825
'0:13.992',1221.083
'0:13.996',1221.412
'0:14.000',1221.862
'0:14.004',1222.500
'0:14.008',1223.367
'0:14.012',1224.363
'0:14.016',1225.234
'0:14.020',1225.746
'0:14.023',1225.780
'0:14.027',1225.321
'0:14.031',1224.471
'0:14.035',1223.475
'0:14.039',1222.621
'0:14.043',1222.117
'0:14.047',1222.004
'0:14.051',1222.212
'0:14.055',1222.613
'0:14.059',1223.046
'0:14.063',1223.413
'0:14.066',1223.704
'0:14.070',1223.971
'0:14.074',1224.209
'0:14.078',1224.334
'0:14.082',1224.305
'0:14.086',1224.100
'0:14.090',1223.709
'0:14.094',1223.142
'0:14.098',1222.417
'0:14.102',1221.575
'0:14.105',1220.687
'0:14.109',1219.816
'0:14.113',1218.995
'0:14.117',1218.258
'0:14.121',1217.641
'0:14.125',1217.232
'0:14.129',1217.107
'0:14.133',1217.237
'0:14.137',1217.528
'0:14.141',1217.928
'0:14.145',1218.408
'0:14.148',1218.883
'0:14.152',1219.258
'0:14.156',1219.449
'0:14.160',1219.387
'0:14.164',1219.041
'0:14.168',1218.499
'0:14.172',1217.962
'0:14.176',1217.632
'0:14.180',1217.545
'0:14.184',1217.603
'0:14.188',1217.657
'0:14.191',1217.691
'0:14.195',1217.849
'0:14.199',1218.341
'0:14.203',1219.254
'0:14.207',1220.483
'0:14.211',1221.833
'0:14.215',1223.138
'0:14.219',1224.321
'0:14.223',1225.313
'0:14.227',1226.042
'0:14.230',1226.530
'0:14.234',1226.863
'0:14.238',1227.126
'0:14.242',1227.347
'0:14.246',1227.513
'0:14.250',1227.601
'0:14.254',1227.618
'0:14.258',1227.593
'0:14.262',1227.551
'0:14.266',1227.534
'0:14.270',1227.605
'0:14.273',1227.797
'0:14.277',1228.097
'0:14.281',1228.480
'0:14.285',1228.910
'0:14.289',1229.322
'0:14.293',1229.668
'0:14.297',1229.893
'0:14.301',1230.014
'0:14.305',1230.106
'0:14.309',1230.260
'0:14.313',1230.506
'0:14.316',1230.781
'0:14.320',1231.006
'0:14.324',1231.131
'0:14.328',1231.114
'0:14.332',1230.914
'0:14.336',1230.556
'0:14.340',1230.122
'0:14.344',1229.689
'0:14.348',1229.326
'0:14.352',1229.068
'0:14.355',1228.914
'0:14.359',1228.860
'0:14.363',1228.868
'0:14.367',1228.818
'0:14.371',1228.593
'0:14.375',1228.193
'0:14.379',1227.730
'0:14.383',1227.330
'0:14.387',1227.113
'0:14.391',1227.176
'0:14.395',1227.551
'0:14.398',1228.114
'0:14.402',1228.680
'0:14.406',1229.097
'0:14.410',1229.293
'0:14.414',1229.255
'0:14.418',1229.080
'0:14.422',1228.889
'0:14.426',1228.751
'0:14.430',1228.651
'0:14.434',1228.547
'0:14.438',1228.422
'0:14.441',1228.347
'0:14.445',1228.409
'0:14.449',1228.560
'0:14.453',1228.643
'0:14.457',1228.547
'0:14.461',1228.322
'0:14.465',1228.109
'0:14.469',1227.989
'0:14.473',1228.009
'0:14.477',1228.209
'0:14.480',1228.539
'0:14.484',1228.880
'0:14.488',1229.135
'0:14.492',1229.330
'0:14.496',1229.543
'0:14.500',1229.868
'0:14.504',1230.347
'0:14.508',1230.914
'0:14.512',1231.452
'0:14.516',1231.918
'0:14.520',1232.373
'0:14.523',1232.910
'0:14.527',1233.556
'0:14.531',1234.273
'0:14.535',1235.007
'0:14.539',1235.678
'0:14.543',1236.240
'0:14.547',1236.649
'0:14.551',1236.869
'0:14.555',1236.861
'0:14.559',1236.619
'0:14.563',1236.207
'0:14.566',1235.732
'0:14.570',1235.307
'0:14.574',1235.011
'0:14.578',1234.840
'0:14.582',1234.719
'0:14.586',1234.577
'0:14.590',1234.402
'0:14.594',1234.198
'0:14.598',1233.969
'0:14.602',1233.723
'0:14.605',1233.465
'0:14.609',1233.190
'0:14.613',1232.877
'0:14.617',1232.519
'0:14.621',1232.156
'0:14.625',1231.877
'0:14.629',1231.777
'0:14.633',1231.860
'0:14.637',1232.102
'0:14.641',1232.477
'0:14.645',1232.977
'0:14.648',1233.581
'0:14.652',1234.223
'0:14.656',1234.811
'0:14.660',1235.223
'0:14.664',1235.436
'0:14.668',1235.527
'0:14.672',1235.578
'0:14.676',1235.628
'0:14.680',1235.694
'0:14.684',1235.790
'0:14.688',1235.944
'0:14.691',1236.190
'0:14.695',1236.544
'0:14.699',1236.940
'0:14.703',1237.282
'0:14.707',1237.536
'0:14.711',1237.715
'0:14.715',1237.845
'0:14.719',1237.945
'0:14.723',1238.049
'0:14.727',1238.170
'0:14.730',1238.232
'0:14.734',1238.149
'0:14.738',1237.853
'0:14.742',1237.290
'0:14.746',1236.457
'0:14.750',1235.457
'0:14.754',1234.448
'0:14.758',1233.665
'0:14.762',1233.356
'0:14.766',1233.715
'0:14.770',1234.790
'0:14.773',1236.503
'0:14.777',1238.641
'0:14.781',1240.949
'0:14.785',1243.237
'0:14.789',1245.400
'0:14.793',1247.334
'0:14.797',1248.859
'0:14.801',1249.793
'0:14.805',1250.014
'0:14.809',1249.551
'0:14.813',1248.609
'0:14.816',1247.463
'0:14.820',1246.300
'0:14.824',1245.183
'0:14.828',1244.154
'0:14.832',1243.358
'0:14.836',1242.975
'0:14.840',1243.054
'0:14.844',1243.450
'0:14.848',1243.854
'0:14.852',1243.987
'0:14.855',1243.767
'0:14.859',1243.246
'0:14.863',1242.495
'0:14.867',1241.558
'0:14.871',1240.483
'0:14.875',1239.337
'0:14.879',1238.203
'0:14.883',1237.194
'0:14.887',1236.432
'0:14.891',1235.982
'0:14.895',1235.819
'0:14.898',1235.886
'0:14.902',1236.153
'0:14.906',1236.590
'0:14.910',1237.169
'0:14.914',1237.874
'0:14.918',1238.653
'0:14.922',1239.437
'0:14.926',1240.149
'0:14.930',1240.691
'0:14.934',1241.024
'0:14.938',1241.149
'0:14.941',1241.083
'0:14.945',1240.828
'0:14.949',1240.416
'0:14.953',1239.891
'0:14.957',1239.274
'0:14.961',1238.595
'0:14.965',1237.890
'0:14.969',1237.182
'0:14.973',1236.453
'0:14.977',1235.732
'0:14.980',1235.127
'0:14.984',1234.736
'0:14.988',1234.548
'0:14.992',1234.473
'0:14.996',1234.419
'0:15.000',1234.269
'0:15.004',1233.919
'0:15.008',1233.398
'0:15.012',1232.877
'0:15.016',1232.544
'0:15.020',1232.410
'0:15.023',1232.369
'0:15.027',1232.339
'0:15.031',1232.319
'0:15.035',1232.269
'0:15.039',1232.060
'0:15.043',1231.539
'0:15.047',1230.639
'0:15.051',1229.426
'0:15.055',1228.084
'0:15.059',1226.809
'0:15.063',1225.713
'0:15.066',1224.855
'0:15.070',1224.275
'0:15.074',1223.938
'0:15.078',1223.696
'0:15.082',1223.363
'0:15.086',1222.858
'0:15.090',1222.233
'0:15.094',1221.608
'0:15.098',1221.100
'0:15.102',1220.800
'0:15.105',1220.725
'0:15.109',1220.821
'0:15.113',1221.016
'0:15.117',1221.250
'0:15.121',1221.450
'0:15.125',1221.579
'0:15.129',1221.658
'0:15.133',1221.737
'0:15.137',1221.867
'0:15.141',1222.050
'0:15.145',1222.250
'0:15.148',1222.417
'0:15.152',1222.483
'0:15.156',1222.375
'0:15.160',1222.033
'0:15.164',1221.462
'0:15.168',1220.775
'0:15.172',1220.112
'0:15.176',1219.600
'0:15.180',1219.329
'0:15.184',1219.291
'0:15.188',1219.399
'0:15.191',1219.566
'0:15.195',1219.704
'0:15.199',1219.758
'0:15.203',1219.716
'0:15.207',1219.583
'0:15.211',1219.404
'0:15.215',1219.241
'0:15.219',1219.149
'0:15.223',1219.179
'0:15.227',1219.358
'0:15.230',1219.666
'0:15.234',1220.025
'0:15.238',1220.391
'0:15.242',1220.775
'0:15.246',1221.187
'0:15.250',1221.629
'0:15.254',1222.062
'0:15.258',1222.433
'0:15.262',1222.704
'0:15.266',1222.879
'0:15.270',1222.958
'0:15.273',1222.900
'0:15.277',1222.663
'0:15.281',1222.258
'0:15.285',1221.746
'0:15.289',1221.208
'0:15.293',1220.712
'0:15.297',1220.316
'0:15.301',1220.066
'0:15.305',1219.950
'0:15.309',1219.879
'0:15.313',1219.758
'0:15.316',1219.512
'0:15.320',1219.120
'0:15.324',1218.583
'0:15.328',1217.991
'0:15.332',1217.499
'0:15.336',1217.328
'0:15.340',1217.724
'0:15.344',1218.916
'0:15.348',1220.979
'0:15.352',1223.767
'0:15.355',1226.938
'0:15.359',1230.060
'0:15.363',1232.714
'0:15.367',1234.623
'0:15.371',1235.707
'0:15.375',1236.048
'0:15.379',1235.848
'0:15.383',1235.252
'0:15.387',1234.290
'0:15.391',1232.981
'0:15.395',1231.452
'0:15.398',1229.985
'0:15.402',1228.880
'0:15.406',1228.347
'0:15.410',1228.364
'0:15.414',1228.705
'0:15.418',1229.076
'0:15.422',1229.251
'0:15.426',1229.130
'0:15.430',1228.755
'0:15.434',1228.201
'0:15.438',1227.568
'0:15.441',1227.030
'0:15.445',1226.793
'0:15.449',1226.988
'0:15.453',1227.538
'0:15.457',1228.226
'0:15.461',1228.835
'0:15.465',1229.289
'0:15.469',1229.622
'0:15.473',1229.876
'0:15.477',1230.014
'0:15.480',1230.043
'0:15.484',1230.126
'0:15.488',1230.552
'0:15.492',1231.564
'0:15.496',1233.252
'0:15.500',1235.511
'0:15.504',1238.095
'0:15.508',1240.708
'0:15.512',1243.091
'0:15.516',1245.063
'0:15.520',1246.563
'0:15.523',1247.655
'0:15.527',1248.434
'0:15.531',1248.880
'0:15.535',1248.859
'0:15.539',1248.251
'0:15.543',1247.067
'0:15.547',1245.434
'0:15.551',1243.567
'0:15.555',1241.741
'0:15.559',1240.274
'0:15.563',1239.445
'0:15.566',1239.412
'0:15.570',1240.216
'0:15.574',1241.816
'0:15.578',1244.092
'0:15.582',1246.834
'0:15.586',1249.713
'0:15.590',1252.318
'0:15.594',1254.323
'0:15.598',1255.585
'0:15.602',1256.094
'0:15.605',1255.965
'0:15.609',1255.448
'0:15.613',1254.798
'0:15.617',1254.143
'0:15.621',1253.406
'0:15.625',1252.502
'0:15.629',1251.460
'0:15.633',1250.451
'0:15.637',1249.597
'0:15.641',1248.893
'0:15.645',1248.163
'0:15.648',1247.230
'0:15.652',1246.046
'0:15.656',1244.775
'0:15.660',1243.692
'0:15.664',1243.054
'0:15.668',1242.954
'0:15.672',1243.246
'0:15.676',1243.650
'0:15.680',1243.942
'0:15.684',1244.083
'0:15.688',1244.158
'0:15.691',1244.208
'0:15.695',1244.212
'0:15.699',1244.158
'0:15.703',1244.067
'0:15.707',1243.946
'0:15.711',1243.842
'0:15.715',1243.762
'0:15.719',1243.642
'0:15.723',1243.408
'0:15.727',1243.050
'0:15.730',1242.570
'0:15.734',1241.941
'0:15.738',1241.137
'0:15.742',1240.178
'0:15.746',1239.153
'0:15.750',1238.145
'0:15.754',1237.211
'0:15.758',1236.436
'0:15.762',1235.894
'0:15.766',1235.628
'0:15.770',1235.778
'0:15.773',1236.503
'0:15.777',1237.865
'0:15.781',1239.716
'0:15.785',1241.733
'0:15.789',1243.567
'0:15.793',1244.975
'0:15.797',1245.900
'0:15.801',1246.355
'0:15.805',1246.330
'0:15.809',1245.788
'0:15.813',1244.779
'0:15.816',1243.441
'0:15.820',1241.933
'0:15.824',1240.428
'0:15.828',1239.149
'0:15.832',1238.407
'0:15.836',1238.511
'0:15.840',1239.649
'0:15.844',1241.737
'0:15.848',1244.450
'0:15.852',1247.334
'0:15.855',1250.001
'0:15.859',1252.189
'0:15.863',1253.698
'0:15.867',1254.327
'0:15.871',1253.914
'0:15.875',1252.385
'0:15.879',1249.780
'0:15.883',1246.300
'0:15.887',1242.308
'0:15.891',1238.303
'0:15.895',1234.773
'0:15.898',1232.089
'0:15.902',1230.427
'0:15.906',1229.818
'0:15.910',1230.181
'0:15.914',1231.335
'0:15.918',1233.060
'0:15.922',1235.090
'0:15.926',1237.094
'0:15.930',1238.766
'0:15.934',1239.949
'0:15.938',1240.641
'0:15.941',1240.912
'0:15.945',1240.870
'0:15.949',1240.645
'0:15.953',1240.341
'0:15.957',1239.995
'0:15.961',1239.591
'0:15.965',1239.099
'0:15.969',1238.470
'0:15.973',1237.753
'0:15.977',1237.186
'0:15.980',1237.099
'0:15.984',1237.699
'0:15.988',1238.924
'0:15.992',1240.508
'0:15.996',1242.141
'0:16.000',1243.608
'0:16.004',1244.754
'0:16.008',1245.446
'0:16.012',1245.592
'0:16.016',1245.133
'0:16.020',1244.075
'0:16.023',1242.483
'0:16.027',1240.466
'0:16.031',1238.190
'0:16.035',1235.903
'0:16.039',1233.836
'0:16.043',1232.089
'0:16.047',1230.606
'0:16.051',1229.326
'0:16.055',1228.322
'0:16.059',1227.693
'0:16.063',1227.484
'0:16.066',1227.601
'0:16.070',1227.889
'0:16.074',1228.214
'0:16.078',1228.564
'0:16.082',1228.993
'0:16.086',1229.426
'0:16.090',1229.643
'0:16.094',1229.410
'0:16.098',1228.647
'0:16.102',1227.472
'0:16.105',1226.126
'0:16.109',1224.871
'0:16.113',1223.850
'0:16.117',1223.033
'0:16.121',1222.321
'0:16.125',1221.675
'0:16.129',1221.112
'0:16.133',1220.558
'0:16.137',1219.841
'0:16.141',1218.820
'0:16.145',1217.553
'0:16.148',1216.274
'0:16.152',1215.228
'0:16.156',1214.532
'0:16.160',1214.136
'0:16.164',1213.869
'0:16.168',1213.628
'0:16.172',1213.390
'0:16.176',1213.165
'0:16.180',1212.919
'0:16.184',1212.636
'0:16.188',1212.352
'0:16.191',1212.123
'0:16.195',1211.956
'0:16.199',1211.761
'0:16.203',1211.431
'0:16.207',1210.965
'0:16.211',1210.423
'0:16.215',1209.877
'0:16.219',1209.368
'0:16.223',1208.923
'0:16.227',1208.593
'0:16.230',1208.456
'0:16.234',1208.522
'0:16.238',1208.772
'0:16.242',1209.127
'0:16.246',1209.468
'0:16.250',1209.698
'0:16.254',1209.852
'0:16.258',1210.073
'0:16.262',1210.406
'0:16.266',1210.760
'0:16.270',1211.019
'0:16.273',1211.165
'0:16.277',1211.265
'0:16.281',1211.419
'0:16.285',1211.673
'0:16.289',1212.031
'0:16.293',1212.502
'0:16.297',1213.107
'0:16.301',1213.844
'0:16.305',1214.694
'0:16.309',1215.607
'0:16.313',1216.545
'0:16.316',1217.491
'0:16.320',1218.474
'0:16.324',1219.495
'0:16.328',1220.537
'0:16.332',1221.546
'0:16.336',1222.504
'0:16.340',1223.421
'0:16.344',1224.275
'0:16.348',1225.055
'0:16.352',1225.797
'0:16.355',1226.580
'0:16.359',1227.451
'0:16.363',1228.430
'0:16.367',1229.489
'0:16.371',1230.585
'0:16.375',1231.668
'0:16.379',1232.706
'0:16.383',1233.665
'0:16.387',1234.494
'0:16.391',1235.123
'0:16.395',1235.536
'0:16.398',1235.778
'0:16.402',1235.936
'0:16.406',1236.123
'0:16.410',1236.436
'0:16.414',1236.949
'0:16.418',1237.711
'0:16.422',1238.682
'0:16.426',1239.774
'0:16.430',1240.895
'0:16.434',1241.987
'0:16.438',1243.004
'0:16.441',1243.896
'0:16.445',1244.633
'0:16.449',1245.192
'0:16.453',1245.542
'0:16.457',1245.675
'0:16.461',1245.629
'0:16.465',1245.479
'0:16.469',1245.275
'0:16.473',1245.000
'0:16.477',1244.608
'0:16.480',1244.083
'0:16.484',1243.466
'0:16.488',1242.904
'0:16.492',1242.595
'0:16.496',1242.641
'0:16.500',1242.979
'0:16.504',1243.437
'0:16.508',1243.871
'0:16.512',1244.204
'0:16.516',1244.429
'0:16.520',1244.596
'0:16.523',1244.788
'0:16.527',1245.104
'0:16.531',1245.592
'0:16.535',1246.267
'0:16.539',1247.096
'0:16.543',1248.047
'0:16.547',1249.034
'0:16.551',1249.918
'0:16.555',1250.522
'0:16.559',1250.722
'0:16.563',1250.497
'0:16.566',1249.905
'0:16.570',1249.055
'0:16.574',1248.101
'0:16.578',1247.221
'0:16.582',1246.571
'0:16.586',1246.209
'0:16.590',1246.142
'0:16.594',1246.325
'0:16.598',1246.617
'0:16.602',1246.738
'0:16.605',1246.396
'0:16.609',1245.450
'0:16.613',1244.033
'0:16.617',1242.491
'0:16.621',1241.204
'0:16.625',1240.437
'0:16.629',1240.237
'0:16.633',1240.508
'0:16.637',1241.112
'0:16.641',1241.941
'0:16.645',1242.846
'0:16.648',1243.596
'0:16.652',1243.992
'0:16.656',1244.033
'0:16.660',1243.925
'0:16.664',1243.908
'0:16.668',1244.137
'0:16.672',1244.638
'0:16.676',1245.363
'0:16.680',1246.217
'0:16.684',1247.146
'0:16.688',1248.176
'0:16.691',1249.326
'0:16.695',1250.534
'0:16.699',1251.689
'0:16.703',1252.664
'0:16.707',1253.310
'0:16.711',1253.510
'0:16.715',1253.218
'0:16.719',1252.443
'0:16.723',1251.305
'0:16.727',1250.089
'0:16.730',1249.172
'0:16.734',1248.884
'0:16.738',1249.338
'0:16.742',1250.430
'0:16.746',1251.876
'0:16.750',1253.302
'0:16.754',1254.377
'0:16.758',1254.948
'0:16.762',1255.073
'0:16.766',1254.914
'0:16.770',1254.569
'0:16.773',1253.968
'0:16.777',1252.968
'0:16.781',1251.510
'0:16.785',1249.709
'0:16.789',1247.809
'0:16.793',1246.000
'0:16.797',1244.371
'0:16.801',1242.941
'0:16.805',1241.716
'0:16.809',1240.708
'0:16.813',1239.924
'0:16.816',1239.353
'0:16.820',1238.978
'0:16.824',1238.736
'0:16.828',1238.591
'0:16.832',1238.528
'0:16.836',1238.457
'0:16.840',1238.228
'0:16.844',1237.720
'0:16.848',1236.899
'0:16.852',1235.828
'0:16.855',1234.707
'0:16.859',1233.706
'0:16.863',1232.852
'0:16.867',1231.993
'0:16.871',1231.014
'0:16.875',1229.951
'0:16.879',1228.968
'0:16.883',1228.193
'0:16.887',1227.639
'0:16.891',1227.343
'0:16.895',1227.368
'0:16.898',1227.734
'0:16.902',1228.355
'0:16.906',1229.176
'0:16.910',1230.210
'0:16.914',1231.531
'0:16.918',1233.144
'0:16.922',1234.932
'0:16.926',1236.661
'0:16.930',1238.082
'0:16.934',1239.011
'0:16.938',1239.337
'0:16.941',1239.007
'0:16.945',1237.999
'0:16.949',1236.311
'0:16.953',1234.011
'0:16.957',1231.252
'0:16.961',1228.297
'0:16.965',1225.421
'0:16.969',1222.875
'0:16.973',1220.812
'0:16.977',1219.337
'0:16.980',1218.553
'0:16.984',1218.612
'0:16.988',1219.625
'0:16.992',1221.562
'0:16.996',1224.205
'0:17.000',1227.143
'0:17.004',1229.893
'0:17.008',1232.027
'0:17.012',1233.260
'0:17.016',1233.435
'0:17.020',1232.514
'0:17.023',1230.564
'0:17.027',1227.726
'0:17.031',1224.292
'0:17.035',1220.704
'0:17.039',1217.432
'0:17.043',1214.840
'0:17.047',1213.102
'0:17.051',1212.211
'0:17.055',1212.048
'0:17.059',1212.411
'0:17.063',1213.086
'0:17.066',1213.886
'0:17.070',1214.703
'0:17.074',1215.424
'0:17.078',1215.895
'0:17.082',1215.999
'0:17.086',1215.770
'0:17.090',1215.411
'0:17.094',1215.178
'0:17.098',1215.249
'0:17.102',1215.732
'0:17.105',1216.711
'0:17.109',1218.212
'0:17.113',1220.212
'0:17.117',1222.638
'0:17.121',1225.334
'0:17.125',1228.030
'0:17.129',1230.422
'0:17.133',1232.302
'0:17.137',1233.615
'0:17.141',1234.402
'0:17.145',1234.673
'0:17.148',1234.398
'0:17.152',1233.581
'0:17.156',1232.323
'0:17.160',1230.814
'0:17.164',1229.305
'0:17.168',1228.005
'0:17.172',1227.051
'0:17.176',1226.542
'0:17.180',1226.567
'0:17.184',1227.163
'0:17.188',1228.239
'0:17.191',1229.597
'0:17.195',1230.997
'0:17.199',1232.177
'0:17.203',1232.906
'0:17.207',1233.065
'0:17.211',1232.731
'0:17.215',1232.135
'0:17.219',1231.523
'0:17.223',1231.093
'0:17.227',1230.981
'0:17.230',1231.289
'0:17.234',1232.052
'0:17.238',1233.194
'0:17.242',1234.519
'0:17.246',1235.782
'0:17.250',1236.753
'0:17.254',1237.257
'0:17.258',1237.178
'0:17.262',1236.457
'0:17.266',1235.094
'0:17.270',1233.098
'0:17.273',1230.489
'0:17.277',1227.351
'0:17.281',1223.904
'0:17.285',1220.483
'0:17.289',1217.462
'0:17.293',1215.153
'0:17.297',1213.761
'0:17.301',1213.386
'0:17.305',1214.036
'0:17.309',1215.640
'0:17.313',1218.020
'0:17.316',1220.866
'0:17.320',1223.821
'0:17.324',1226.572
'0:17.328',1228.864
'0:17.332',1230.481
'0:17.336',1231.273
'0:17.340',1231.231
'0:17.344',1230.552
'0:17.348',1229.568
'0:17.352',1228.564
'0:17.355',1227.609
'0:17.359',1226.668
'0:17.363',1225.805
'0:17.367',1225.217
'0:17.371',1225.105
'0:17.375',1225.496
'0:17.379',1226.255
'0:17.383',1227.222
'0:17.387',1228.255
'0:17.391',1229.176
'0:17.395',1229.776
'0:17.398',1229.972
'0:17.402',1229.781
'0:17.406',1229.272
'0:17.410',1228.518
'0:17.414',1227.618
'0:17.418',1226.697
'0:17.422',1225.813
'0:17.426',1224.959
'0:17.430',1224.134
'0:17.434',1223.417
'0:17.438',1222.967
'0:17.441',1222.929
'0:17.445',1223.329
'0:17.449',1224.105
'0:17.453',1225.163
'0:17.457',1226.397
'0:17.461',1227.630
'0:17.465',1228.622
'0:17.469',1229.176
'0:17.473',1229.255
'0:17.477',1229.005
'0:17.480',1228.614
'0:17.484',1228.164
'0:17.488',1227.697
'0:17.492',1227.280
'0:17.496',1227.013
'0:17.500',1226.938
'0:17.504',1227.068
'0:17.508',1227.343
'0:17.512',1227.647
'0:17.516',1227.864
'0:17.520',1227.980
'0:17.523',1228.026
'0:17.527',1228.018
'0:17.531',1227.901
'0:17.535',1227.634
'0:17.539',1227.263
'0:17.543',1226.859
'0:17.547',1226.442
'0:17.551',1226.022
'0:17.555',1225.730
'0:17.559',1225.776
'0:17.563',1226.288
'0:17.566',1227.188
'0:17.570',1228.193
'0:17.574',1228.989
'0:17.578',1229.431
'0:17.582',1229.593
'0:17.586',1229.606
'0:17.590',1229.597
'0:17.594',1229.639
'0:17.598',1229.743
'0:17.602',1229.818
'0:17.605',1229.810
'0:17.609',1229.764
'0:17.613',1229.756
'0:17.617',1229.768
'0:17.621',1229.764
'0:17.625',1229.797
'0:17.629',1229.981
'0:17.633',1230.318
'0:17.637',1230.627
'0:17.641',1230.610
'0:17.645',1230.072
'0:17.648',1229.043
'0:17.652',1227.730
'0:17.656',1226.409
'0:17.660',1225.359
'0:17.664',1224.821
'0:17.668',1224.967
'0:17.672',1225.842
'0:17.676',1227.363
'0:17.680',1229.310
'0:17.684',1231.306
'0:17.688',1232.873
'0:17.691',1233.581
'0:17.695',1233.240
'0:17.699',1231.973
'0:17.703',1230.106
'0:17.707',1228.022
'0:17.711',1226.063
'0:17.715',1224.521
'0:17.719',1223.584
'0:17.723',1223.321
'0:17.727',1223.700
'0:17.730',1224.592
'0:17.734',1225.838
'0:17.738',1227.343
'0:17.742',1229.043
'0:17.746',1230.822
'0:17.750',1232.460
'0:17.754',1233.690
'0:17.758',1234.390
'0:17.762',1234.694
'0:17.766',1234.911
'0:17.770',1235.361
'0:17.773',1236.190
'0:17.777',1237.336
'0:17.781',1238.561
'0:17.785',1239.591
'0:17.789',1240.274
'0:17.793',1240.666
'0:17.797',1240.929
'0:17.801',1241.154
'0:17.805',1241.341
'0:17.809',1241.437
'0:17.813',1241.345
'0:17.816',1241.016
'0:17.820',1240.524
'0:17.824',1240.020
'0:17.828',1239.570
'0:17.832',1239.049
'0:17.836',1238.236
'0:17.840',1237.011
'0:17.844',1235.477
'0:17.848',1233.886
'0:17.852',1232.473
'0:17.855',1231.385
'0:17.859',1230.672
'0:17.863',1230.277
'0:17.867',1230.076
'0:17.871',1229.935
'0:17.875',1229.772
'0:17.879',1229.551
'0:17.883',1229.301
'0:17.887',1229.110
'0:17.891',1229.089
'0:17.895',1229.322
'0:17.898',1229.843
'0:17.902',1230.689
'0:17.906',1231.873
'0:17.910',1233.323
'0:17.914',1234.815
'0:17.918',1236.011
'0:17.922',1236.632
'0:17.926',1236.586
'0:17.930',1235.961
'0:17.934',1235.007
'0:17.938',1233.994
'0:17.941',1233.127
'0:17.945',1232.452
'0:17.949',1231.898
'0:17.953',1231.402
'0:17.957',1230.960
'0:17.961',1230.564
'0:17.965',1230.197
'0:17.969',1229.822
'0:17.973',1229.364
'0:17.977',1228.793
'0:17.980',1228.205
'0:17.984',1227.809
'0:17.988',1227.805
'0:17.992',1228.268
'0:17.996',1229.139
'0:18.000',1230.314
'0:18.004',1231.598
'0:18.008',1232.744
'0:18.012',1233.577
'0:18.016',1234.056
'0:18.020',1234.215
'0:18.023',1234.106
'0:18.027',1233.798
'0:18.031',1233.340
'0:18.035',1232.785
'0:18.039',1232.210
'0:18.043',1231.681
'0:18.047',1231.277
'0:18.051',1231.068
'0:18.055',1231.097
'0:18.059',1231.331
'0:18.063',1231.685
'0:18.066',1232.085
'0:18.070',1232.448
'0:18.074',1232.735
'0:18.078',1232.944
'0:18.082',1233.069
'0:18.086',1233.065
'0:18.090',1232.902
'0:18.094',1232.577
'0:18.098',1232.139
'0:18.102',1231.673
'0:18.105',1231.298
'0:18.109',1231.189
'0:18.113',1231.510
'0:18.117',1232.260
'0:18.121',1233.235
'0:18.125',1234.169
'0:18.129',1234.844
'0:18.133',1235.173
'0:18.137',1235.202
'0:18.141',1235.065
'0:18.145',1234.898
'0:18.148',1234.761
'0:18.152',1234.606
'0:18.156',1234.390
'0:18.160',1234.115
'0:18.164',1233.823
'0:18.168',1233.581
'0:18.172',1233.456
'0:18.176',1233.460
'0:18.180',1233.594
'0:18.184',1233.794
'0:18.188',1233.961
'0:18.191',1234.011
'0:18.195',1233.948
'0:18.199',1233.802
'0:18.203',1233.490
'0:18.207',1232.910
'0:18.211',1232.089
'0:18.215',1231.181
'0:18.219',1230.406
'0:18.223',1229.968
'0:18.227',1229.951
'0:18.230',1230.235
'0:18.234',1230.539
'0:18.238',1230.568
'0:18.242',1230.176
'0:18.246',1229.381
'0:18.250',1228.347
'0:18.254',1227.355
'0:18.258',1226.651
'0:18.262',1226.384
'0:18.266',1226.555
'0:18.270',1227.030
'0:18.273',1227.584
'0:18.277',1227.955
'0:18.281',1227.939
'0:18.285',1227.476
'0:18.289',1226.701
'0:18.293',1225.842
'0:18.297',1225.051
'0:18.301',1224.300
'0:18.305',1223.479
'0:18.309',1222.533
'0:18.313',1221.496
'0:18.316',1220.408
'0:18.320',1219.266
'0:18.324',1218.099
'0:18.328',1217.053
'0:18.332',1216.270
'0:18.336',1215.782
'0:18.340',1215.574
'0:18.344',1215.624
'0:18.348',1215.895
'0:18.352',1216.199
'0:18.355',1216.249
'0:18.359',1215.840
'0:18.363',1215.007
'0:18.367',1214.019
'0:18.371',1213.244
'0:18.375',1212.919
'0:18.379',1213.111
'0:18.383',1213.694
'0:18.387',1214.507
'0:18.391',1215.486
'0:18.395',1216.728
'0:18.398',1218.312
'0:18.402',1220.204
'0:18.406',1222.221
'0:18.410',1224.096
'0:18.414',1225.621
'0:18.418',1226.688
'0:18.422',1227.326
'0:18.426',1227.626
'0:18.430',1227.672
'0:18.434',1227.522
'0:18.438',1227.193
'0:18.441',1226.697
'0:18.445',1226.084
'0:18.449',1225.467
'0:18.453',1224.959
'0:18.457',1224.625
'0:18.461',1224.480
'0:18.465',1224.480
'0:18.469',1224.555
'0:18.473',1224.592
'0:18.477',1224.500
'0:18.480',1224.213
'0:18.484',1223.746
'0:18.488',1223.171
'0:18.492',1222.650
'0:18.496',1222.417
'0:18.500',1222.671
'0:18.504',1223.446
'0:18.508',1224.563
'0:18.512',1225.788
'0:18.516',1226.947
'0:18.520',1227.972
'0:18.523',1228.885
'0:18.527',1229.726
'0:18.531',1230.472
'0:18.535',1230.997
'0:18.539',1231.177
'0:18.543',1230.927
'0:18.547',1230.252
'0:18.551',1229.201
'0:18.555',1227.909
'0:18.559',1226.530
'0:18.563',1225.196
'0:18.566',1223.942
'0:18.570',1222.758
'0:18.574',1221.671
'0:18.578',1220.729
'0:18.582',1219.937
'0:18.586',1219.258
'0:18.590',1218.749
'0:18.594',1218.516
'0:18.598',1218.553
'0:18.602',1218.695
'0:18.605',1218.787
'0:18.609',1218.770
'0:18.613',1218.645
'0:18.617',1218.374
'0:18.621',1217.903
'0:18.625',1217.278
'0:18.629',1216.574
'0:18.633',1215.732
'0:18.637',1214.607
'0:18.641',1213.132
'0:18.645',1211.427
'0:18.648',1209.756
'0:18.652',1208.402
'0:18.656',1207.560
'0:18.660',1207.335
'0:18.664',1207.747
'0:18.668',1208.777
'0:18.672',1210.352
'0:18.676',1212.298
'0:18.680',1214.324
'0:18.684',1216.070
'0:18.688',1217.253
'0:18.691',1217.820
'0:18.695',1217.991
'0:18.699',1218.174
'0:18.703',1218.741
'0:18.707',1219.858
'0:18.711',1221.450
'0:18.715',1223.259
'0:18.719',1224.992
'0:18.723',1226.480
'0:18.727',1227.693
'0:18.730',1228.618
'0:18.734',1229.205
'0:18.738',1229.418
'0:18.742',1229.318
'0:18.746',1229.101
'0:18.750',1229.014
'0:18.754',1229.226
'0:18.758',1229.726
'0:18.762',1230.356
'0:18.766',1230.952
'0:18.770',1231.518
'0:18.773',1232.127
'0:18.777',1232.839
'0:18.781',1233.623
'0:18.785',1234.423
'0:18.789',1235.252
'0:18.793',1236.157
'0:18.797',1237.111
'0:18.801',1237.995
'0:18.805',1238.686
'0:18.809',1239.141
'0:18.813',1239.357
'0:18.816',1239.291
'0:18.820',1238.932
'0:18.824',1238.411
'0:18.828',1237.932
'0:18.832',1237.649
'0:18.836',1237.607
'0:18.840',1237.724
'0:18.844',1237.865
'0:18.848',1237.903
'0:18.852',1237.782
'0:18.855',1237.540
'0:18.859',1237.315
'0:18.863',1237.299
'0:18.867',1237.674
'0:18.871',1238.557
'0:18.875',1239.982
'0:18.879',1241.833
'0:18.883',1243.862
'0:18.887',1245.750
'0:18.891',1247.201
'0:18.895',1248.088
'0:18.898',1248.459
'0:18.902',1248.422
'0:18.906',1248.042
'0:18.910',1247.409
'0:18.914',1246.675
'0:18.918',1245.942
'0:18.922',1245.254
'0:18.926',1244.625
'0:18.930',1244.075
'0:18.934',1243.617
'0:18.938',1243.233
'0:18.941',1242.862
'0:18.945',1242.412
'0:18.949',1241.795
'0:18.953',1240.958
'0:18.957',1239.937
'0:18.961',1238.807
'0:18.965',1237.657
'0:18.969',1236.569
'0:18.973',1235.623
'0:18.977',1234.869
'0:18.980',1234.365
'0:18.984',1234.177
'0:18.988',1234.327
'0:18.992',1234.740
'0:18.996',1235.265
'0:19.000',1235.740
'0:19.004',1236.019
'0:19.008',1236.007
'0:19.012',1235.686
'0:19.016',1235.119
'0:19.020',1234.398
'0:19.023',1233.590
'0:19.027',1232.785
'0:19.031',1232.052
'0:19.035',1231.439
'0:19.039',1231.027
'0:19.043',1230.960
'0:19.047',1231.348
'0:19.051',1232.206
'0:19.055',1233.481
'0:19.059',1234.977
'0:19.063',1236.407
'0:19.066',1237.507
'0:19.070',1238.174
'0:19.074',1238.449
'0:19.078',1238.499
'0:19.082',1238.491
'0:19.086',1238.482
'0:19.090',1238.407
'0:19.094',1238.199
'0:19.098',1237.832
'0:19.102',1237.336
'0:19.105',1236.790
'0:19.109',1236.319
'0:19.113',1236.086
'0:19.117',1236.236
'0:19.121',1236.786
'0:19.125',1237.615
'0:19.129',1238.574
'0:19.133',1239.528
'0:19.137',1240.324
'0:19.141',1240.753
'0:19.145',1240.716
'0:19.148',1240.287
'0:19.152',1239.632
'0:19.156',1238.870
'0:19.160',1238.107
'0:19.164',1237.470
'0:19.168',1237.003
'0:19.172',1236.644
'0:19.176',1236.332
'0:19.180',1236.023
'0:19.184',1235.611
'0:19.188',1234.915
'0:19.191',1233.802
'0:19.195',1232.302
'0:19.199',1230.556
'0:19.203',1228.655
'0:19.207',1226.597
'0:19.211',1224.384
'0:19.215',1222.171
'0:19.219',1220.229
'0:19.223',1218.812
'0:19.227',1218.049
'0:19.230',1217.962
'0:19.234',1218.491
'0:19.238',1219.575
'0:19.242',1221.100
'0:19.246',1222.888
'0:19.250',1224.700
'0:19.254',1226.388
'0:19.258',1227.901
'0:19.262',1229.185
'0:19.266',1230.031
'0:19.270',1230.168
'0:19.273',1229.401
'0:19.277',1227.743
'0:19.281',1225.451
'0:19.285',1222.996
'0:19.289',1220.837
'0:19.293',1219.316
'0:19.297',1218.587
'0:19.301',1218.666
'0:19.305',1219.399
'0:19.309',1220.483
'0:19.313',1221.508
'0:19.316',1222.154
'0:19.320',1222.308
'0:19.324',1222.087
'0:19.328',1221.712
'0:19.332',1221.358
'0:19.336',1221.079
'0:19.340',1220.754
'0:19.344',1220.225
'0:19.348',1219.441
'0:19.352',1218.533
'0:19.355',1217.712
'0:19.359',1217.182
'0:19.363',1217.057
'0:19.367',1217.316
'0:19.371',1217.828
'0:19.375',1218.433
'0:19.379',1219.058
'0:19.383',1219.725
'0:19.387',1220.425
'0:19.391',1221.083
'0:19.395',1221.658
'0:19.398',1222.112
'0:19.402',1222.350
'0:19.406',1222.200
'0:19.410',1221.517
'0:19.414',1220.233
'0:19.418',1218.428
'0:19.422',1216.366
'0:19.426',1214.369
'0:19.430',1212.694
'0:19.434',1211.523
'0:19.438',1210.952
'0:19.441',1210.944
'0:19.445',1211.306
'0:19.449',1211.781
'0:19.453',1212.131
'0:19.457',1212.215
'0:19.461',1212.015
'0:19.465',1211.598
'0:19.469',1211.065
'0:19.473',1210.527
'0:19.477',1210.077
'0:19.480',1209.764
'0:19.484',1209.606
'0:19.488',1209.581
'0:19.492',1209.656
'0:19.496',1209.823
'0:19.500',1210.110
'0:19.504',1210.569
'0:19.508',1211.181
'0:19.512',1211.919
'0:19.516',1212.769
'0:19.520',1213.690
'0:19.523',1214.661
'0:19.527',1215.790
'0:19.531',1217.312
'0:19.535',1219.408
'0:19.539',1222.054
'0:19.543',1224.984
'0:19.547',1227.839
'0:19.551',1230.293
'0:19.555',1232.177
'0:19.559',1233.481
'0:19.563',1234.302
'0:19.566',1234.740
'0:19.570',1234.857
'0:19.574',1234.748
'0:19.578',1234.581
'0:19.582',1234.494
'0:19.586',1234.531
'0:19.590',1234.661
'0:19.594',1234.836
'0:19.598',1235.040
'0:19.602',1235.311
'0:19.605',1235.686
'0:19.609',1236.161
'0:19.613',1236.711
'0:19.617',1237.311
'0:19.621',1237.953
'0:19.625',1238.657
'0:19.629',1239.474
'0:19.633',1240.424
'0:19.637',1241.512
'0:19.641',1242.708
'0:19.645',1243.971
'0:19.648',1245.233
'0:19.652',1246.442
'0:19.656',1247.505
'0:19.660',1248.301
'0:19.664',1248.730
'0:19.668',1248.730
'0:19.672',1248.322
'0:19.676',1247.663
'0:19.680',1246.963
'0:19.684',1246.438
'0:19.688',1246.217
'0:19.691',1246.338
'0:19.695',1246.784
'0:19.699',1247.542
'0:19.703',1248.542
'0:19.707',1249.580
'0:19.711',1250.397
'0:19.715',1250.789
'0:19.719',1250.634
'0:19.723',1249.918
'0:19.727',1248.830
'0:19.730',1247.730
'0:19.734',1246.980
'0:19.738',1246.809
'0:19.742',1247.263
'0:19.746',1248.226
'0:19.750',1249.472
'0:19.754',1250.751
'0:19.758',1251.897
'0:19.762',1252.810
'0:19.766',1253.431
'0:19.770',1253.693
'0:19.773',1253.568
'0:19.777',1253.110
'0:19.781',1252.481
'0:19.785',1251.847
'0:19.789',1251.351
'0:19.793',1251.055
'0:19.797',1250.918
'0:19.801',1250.822
'0:19.805',1250.668
'0:19.809',1250.451
'0:19.813',1250.218
'0:19.816',1249.968
'0:19.820',1249.701
'0:19.824',1249.376
'0:19.828',1248.930
'0:19.832',1248.347
'0:19.836',1247.709
'0:19.840',1247.130
'0:19.844',1246.700
'0:19.848',1246.471
'0:19.852',1246.409
'0:19.855',1246.430
'0:19.859',1246.517
'0:19.863',1246.775
'0:19.867',1247.280
'0:19.871',1247.951
'0:19.875',1248.622
'0:19.879',1249.130
'0:19.883',1249.347
'0:19.887',1249.193
'0:19.891',1248.688
'0:19.895',1247.967
'0:19.898',1247.134
'0:19.902',1246.196
'0:19.906',1245.129
'0:19.910',1243.929
'0:19.914',1242.533
'0:19.918',1240.828
'0:19.922',1238.811
'0:19.926',1236.657
'0:19.930',1234.644
'0:19.934',1233.019
'0:19.938',1231.939
'0:19.941',1231.481
'0:19.945',1231.631
'0:19.949',1232.310
'0:19.953',1233.377
'0:19.957',1234.698
'0:19.961',1236.186
'0:19.965',1237.740
'0:19.969',1239.203
'0:19.973',1240.374
'0:19.977',1241.104
'0:19.980',1241.366
'0:19.984',1241.199
'0:19.988',1240.662
'0:19.992',1239.807
'0:19.996',1238.711
'0:20.000',1237.482
'0:20.004',1236.244
'0:20.008',1235.094
'0:20.012',1234.048
'0:20.016',1233.140
'0:20.020',1232.398
'0:20.023',1231.764
'0:20.027',1231.077
'0:20.031',1230.239
'0:20.035',1229.318
'0:20.039',1228.460
'0:20.043',1227.730
'0:20.047',1227.122
'0:20.051',1226.638
'0:20.055',1226.317
'0:20.059',1226.180
'0:20.063',1226.138
'0:20.066',1226.034
'0:20.070',1225.759
'0:20.074',1225.351
'0:20.078',1224.880
'0:20.082',1224.359
'0:20.086',1223.800
'0:20.090',1223.267
'0:20.094',1222.817
'0:20.098',1222.458
'0:20.102',1222.179
'0:20.105',1221.958
'0:20.109',1221.762
'0:20.113',1221.504
'0:20.117',1221.121
'0:20.121',1220.687
'0:20.125',1220.475
'0:20.129',1220.804
'0:20.133',1221.879
'0:20.137',1223.684
'0:20.141',1225.967
'0:20.145',1228.297
'0:20.148',1230.201
'0:20.152',1231.318
'0:20.156',1231.510
'0:20.160',1230.893
'0:20.164',1229.781
'0:20.168',1228.530
'0:20.172',1227.363
'0:20.176',1226.376
'0:20.180',1225.659
'0:20.184',1225.380
'0:20.188',1225.638
'0:20.191',1226.326
'0:20.195',1227.222
'0:20.199',1228.151
'0:20.203',1229.110
'0:20.207',1230.185
'0:20.211',1231.389
'0:20.215',1232.589
'0:20.219',1233.623
'0:20.223',1234.419
'0:20.227',1235.011
'0:20.230',1235.444
'0:20.234',1235.748
'0:20.238',1235.940
'0:20.242',1236.065
'0:20.246',1236.069
'0:20.250',1235.840
'0:20.254',1235.294
'0:20.258',1234.494
'0:20.262',1233.573
'0:20.266',1232.610
'0:20.270',1231.602
'0:20.273',1230.472
'0:20.277',1229.164
'0:20.281',1227.684
'0:20.285',1226.172
'0:20.289',1224.892
'0:20.293',1224.105
'0:20.297',1223.975
'0:20.301',1224.550
'0:20.305',1225.713
'0:20.309',1227.188
'0:20.313',1228.672
'0:20.316',1229.997
'0:20.320',1231.160
'0:20.324',1232.189
'0:20.328',1233.073
'0:20.332',1233.831
'0:20.336',1234.531
'0:20.340',1235.165
'0:20.344',1235.607
'0:20.348',1235.723
'0:20.352',1235.444
'0:20.355',1234.857
'0:20.359',1234.190
'0:20.363',1233.752
'0:20.367',1233.840
'0:20.371',1234.644
'0:20.375',1236.182
'0:20.379',1238.349
'0:20.383',1240.949
'0:20.387',1243.667
'0:20.391',1246.138
'0:20.395',1248.076
'0:20.398',1249.401
'0:20.402',1250.201
'0:20.406',1250.693
'0:20.410',1251.130
'0:20.414',1251.747
'0:20.418',1252.685
'0:20.422',1253.952
'0:20.426',1255.485
'0:20.430',1257.173
'0:20.434',1258.824
'0:20.438',1260.240
'0:20.441',1261.362
'0:20.445',1262.199
'0:20.449',1262.737
'0:20.453',1262.849
'0:20.457',1262.403
'0:20.461',1261.362
'0:20.465',1259.874
'0:20.469',1258.198
'0:20.473',1256.615
'0:20.477',1255.352
'0:20.480',1254.519
'0:20.484',1254.048
'0:20.488',1253.760
'0:20.492',1253.518
'0:20.496',1253.260
'0:20.500',1252.947
'0:20.504',1252.572
'0:20.508',1252.168
'0:20.512',1251.743
'0:20.516',1251.330
'0:20.520',1250.980
'0:20.523',1250.701
'0:20.527',1250.434
'0:20.531',1250.114
'0:20.535',1249.655
'0:20.539',1249.030
'0:20.543',1248.305
'0:20.547',1247.596
'0:20.551',1246.971
'0:20.555',1246.442
'0:20.559',1245.984
'0:20.563',1245.617
'0:20.566',1245.463
'0:20.570',1245.588
'0:20.574',1245.921
'0:20.578',1246.309
'0:20.582',1246.613
'0:20.586',1246.755
'0:20.590',1246.696
'0:20.594',1246.421
'0:20.598',1245.942
'0:20.602',1245.329
'0:20.605',1244.671
'0:20.609',1244.000
'0:20.613',1243.296
'0:20.617',1242.554
'0:20.621',1241.820
'0:20.625',1241.166
'0:20.629',1240.645
'0:20.633',1240.283
'0:20.637',1240.028
'0:20.641',1239.799
'0:20.645',1239.532
'0:20.648',1239.257
'0:20.652',1239.066
'0:20.656',1239.066
'0:20.660',1239.249
'0:20.664',1239.516
'0:20.668',1239.724
'0:20.672',1239.749
'0:20.676',1239.566
'0:20.680',1239.299
'0:20.684',1239.145
'0:20.688',1239.224
'0:20.691',1239.599
'0:20.695',1240.199
'0:20.699',1240.824
'0:20.703',1241.283
'0:20.707',1241.516
'0:20.711',1241.645
'0:20.715',1241.791
'0:20.719',1241.975
'0:20.723',1242.104
'0:20.727',1242.170
'0:20.730',1242.266
'0:20.734',1242.495
'0:20.738',1242.866
'0:20.742',1243.321
'0:20.746',1243.771
'0:20.750',1244.162
'0:20.754',1244.538
'0:20.758',1244.963
'0:20.762',1245.471
'0:20.766',1246.034
'0:20.770',1246.530
'0:20.773',1246.800
'0:20.777',1246.775
'0:20.781',1246.492
'0:20.785',1246.063
'0:20.789',1245.600
'0:20.793',1245.229
'0:20.797',1245.096
'0:20.801',1245.304
'0:20.805',1245.875
'0:20.809',1246.721
'0:20.813',1247.680
'0:20.816',1248.576
'0:20.820',1249.172
'0:20.824',1249.172
'0:20.828',1248.313
'0:20.832',1246.513
'0:20.836',1243.933
'0:20.840',1240.916
'0:20.844',1237.920
'0:20.848',1235.352
'0:20.852',1233.469
'0:20.855',1232.339
'0:20.859',1231.893
'0:20.863',1231.985
'0:20.867',1232.423
'0:20.871',1233.015
'0:20.875',1233.598
'0:20.879',1234.094
'0:20.883',1234.502
'0:20.887',1234.923
'0:20.891',1235.569
'0:20.895',1236.665
'0:20.898',1238.303
'0:20.902',1240.433
'0:20.906',1242.862
'0:20.910',1245.354
'0:20.914',1247.680
'0:20.918',1249.630
'0:20.922',1251.060
'0:20.926',1251.876
'0:20.930',1252.031
'0:20.934',1251.460
'0:20.938',1250.147
'0:20.941',1248.176
'0:20.945',1245.746
'0:20.949',1243.150
'0:20.953',1240.633
'0:20.957',1238.307
'0:20.961',1236.236
'0:20.965',1234.540
'0:20.969',1233.352
'0:20.973',1232.731
'0:20.977',1232.648
'0:20.980',1233.019
'0:20.984',1233.744
'0:20.988',1234.765
'0:20.992',1236.044
'0:20.996',1237.507
'0:21.000',1238.966
'0:21.004',1240.203
'0:21.008',1241.116
'0:21.012',1241.791
'0:21.016',1242.325
'0:21.020',1242.712
'0:21.023',1242.883
'0:21.027',1242.837
'0:21.031',1242.658
'0:21.035',1242.383
'0:21.039',1241.900
'0:21.043',1241.049
'0:21.047',1239.841
'0:21.051',1238.528
'0:21.055',1237.557
'0:21.059',1237.340
'0:21.063',1238.107
'0:21.066',1239.824
'0:21.070',1242.229
'0:21.074',1244.867
'0:21.078',1247.271
'0:21.082',1249.101
'0:21.086',1250.201
'0:21.090',1250.601
'0:21.094',1250.497
'0:21.098',1250.172
'0:21.102',1249.868
'0:21.105',1249.672
'0:21.109',1249.551
'0:21.113',1249.476
'0:21.117',1249.476
'0:21.121',1249.622
'0:21.125',1249.939
'0:21.129',1250.397
'0:21.133',1250.951
'0:21.137',1251.535
'0:21.141',1252.122
'0:21.145',1252.718
'0:21.148',1253.272
'0:21.152',1253.731
'0:21.156',1254.064
'0:21.160',1254.273
'0:21.164',1254.406
'0:21.168',1254.523
'0:21.172',1254.664
'0:21.176',1254.952
'0:21.180',1255.569
'0:21.184',1256.661
'0:21.188',1258.282
'0:21.191',1260.357
'0:21.195',1262.662
'0:21.199',1264.879
'0:21.203',1266.708
'0:21.207',1267.954
'0:21.211',1268.600
'0:21.215',1268.800
'0:21.219',1268.767
'0:21.223',1268.663
'0:21.227',1268.517
'0:21.230',1268.242
'0:21.234',1267.729
'0:21.238',1266.938
'0:21.242',1265.996
'0:21.246',1265.137
'0:21.250',1264.550
'0:21.254',1264.266
'0:21.258',1264.225
'0:21.262',1264.333
'0:21.266',1264.487
'0:21.270',1264.583
'0:21.273',1264.562
'0:21.277',1264.412
'0:21.281',1264.145
'0:21.285',1263.770
'0:21.289',1263.320
'0:21.293',1262.837
'0:21.297',1262.383
'0:21.301',1261.999
'0:21.305',1261.662
'0:21.309',1261.311
'0:21.313',1260.874
'0:21.316',1260.315
'0:21.320',1259.607
'0:21.324',1258.736
'0:21.328',1257.748
'0:21.332',1256.736
'0:21.336',1255.781
'0:21.340',1254.939
'0:21.344',1254.273
'0:21.348',1253.831
'0:21.352',1253.614
'0:21.355',1253.552
'0:21.359',1253.577
'0:21.363',1253.643
'0:21.367',1253.693
'0:21.371',1253.685
'0:21.375',1253.585
'0:21.379',1253.373
'0:21.383',1253.018
'0:21.387',1252.527
'0:21.391',1251.972
'0:21.395',1251.468
'0:21.398',1251.097
'0:21.402',1251.001
'0:21.406',1251.351
'0:21.410',1252.185
'0:21.414',1253.285
'0:21.418',1254.289
'0:21.422',1254.877
'0:21.426',1254.860
'0:21.430',1254.152
'0:21.434',1252.802
'0:21.438',1250.993
'0:21.441',1249.013
'0:21.445',1247.100
'0:21.449',1245.346
'0:21.453',1243.746
'0:21.457',1242.304
'0:21.461',1241.008
'0:21.465',1239.753
'0:21.469',1238.432
'0:21.473',1237.007
'0:21.477',1235.515
'0:21.480',1234.081
'0:21.484',1232.931
'0:21.488',1232.310
'0:21.492',1232.364
'0:21.496',1233.081
'0:21.500',1234.277
'0:21.504',1235.611
'0:21.508',1236.665
'0:21.512',1237.107
'0:21.516',1236.832
'0:21.520',1235.998
'0:21.523',1234.944
'0:21.527',1234.019
'0:21.531',1233.477
'0:21.535',1233.440
'0:21.539',1233.886
'0:21.543',1234.661
'0:21.547',1235.573
'0:21.551',1236.453
'0:21.555',1237.144
'0:21.559',1237.511
'0:21.563',1237.399
'0:21.566',1236.744
'0:21.570',1235.632
'0:21.574',1234.277
'0:21.578',1232.923
'0:21.582',1231.681
'0:21.586',1230.539
'0:21.590',1229.510
'0:21.594',1228.718
'0:21.598',1228.314
'0:21.602',1228.330
'0:21.605',1228.697
'0:21.609',1229.389
'0:21.613',1230.472
'0:21.617',1231.993
'0:21.621',1233.819
'0:21.625',1235.673
'0:21.629',1237.249
'0:21.633',1238.278
'0:21.637',1238.578
'0:21.641',1238.065
'0:21.645',1236.761
'0:21.648',1234.807
'0:21.652',1232.460
'0:21.656',1230.051
'0:21.660',1227.855
'0:21.664',1225.972
'0:21.668',1224.313
'0:21.672',1222.767
'0:21.676',1221.342
'0:21.680',1220.145
'0:21.684',1219.237
'0:21.688',1218.645
'0:21.691',1218.449
'0:21.695',1218.762
'0:21.699',1219.587
'0:21.703',1220.779
'0:21.707',1222.167
'0:21.711',1223.654
'0:21.715',1225.134
'0:21.719',1226.417
'0:21.723',1227.305
'0:21.727',1227.718
'0:21.730',1227.764
'0:21.734',1227.659
'0:21.738',1227.534
'0:21.742',1227.351
'0:21.746',1226.988
'0:21.750',1226.392
'0:21.754',1225.626
'0:21.758',1224.771
'0:21.762',1223.946
'0:21.766',1223.338
'0:21.770',1223.179
'0:21.773',1223.675
'0:21.777',1224.926
'0:21.781',1226.880
'0:21.785',1229.310
'0:21.789',1231.910
'0:21.793',1234.365
'0:21.797',1236.478
'0:21.801',1238.174
'0:21.805',1239.474
'0:21.809',1240.424
'0:21.813',1241.020
'0:21.816',1241.162
'0:21.820',1240.720
'0:21.824',1239.574
'0:21.828',1237.665
'0:21.832',1234.986
'0:21.836',1231.664
'0:21.840',1227.980
'0:21.844',1224.334
'0:21.848',1221.129
'0:21.852',1218.637
'0:21.855',1217.007
'0:21.859',1216.303
'0:21.863',1216.536
'0:21.867',1217.620
'0:21.871',1219.374
'0:21.875',1221.512
'0:21.879',1223.729
'0:21.883',1225.859
'0:21.887',1227.901
'0:21.891',1229.901
'0:21.895',1231.781
'0:21.898',1233.360
'0:21.902',1234.469
'0:21.906',1234.994
'0:21.910',1234.907
'0:21.914',1234.256
'0:21.918',1233.206
'0:21.922',1232.056
'0:21.926',1231.156
'0:21.930',1230.727
'0:21.934',1230.814
'0:21.938',1231.373
'0:21.941',1232.323
'0:21.945',1233.502
'0:21.949',1234.656
'0:21.953',1235.540
'0:21.957',1236.032
'0:21.961',1236.203
'0:21.965',1236.290
'0:21.969',1236.582
'0:21.973',1237.303
'0:21.977',1238.541
'0:21.980',1240.212
'0:21.984',1242.137
'0:21.988',1244.175
'0:21.992',1246.234
'0:21.996',1248.213
'0:22.000',1250.039
'0:22.004',1251.710
'0:22.008',1253.268
'0:22.012',1254.735
'0:22.016',1256.073
'0:22.020',1257.207
'0:22.023',1258.032
'0:22.027',1258.528
'0:22.031',1258.765
'0:22.035',1258.957
'0:22.039',1259.374
'0:22.043',1260.153
'0:22.047',1261.211
'0:22.051',1262.308
'0:22.055',1263.262
'0:22.059',1264.041
'0:22.063',1264.691
'0:22.066',1265.191
'0:22.070',1265.487
'0:22.074',1265.566
'0:22.078',1265.487
'0:22.082',1265.391
'0:22.086',1265.379
'0:22.090',1265.437
'0:22.094',1265.437
'0:22.098',1265.266
'0:22.102',1264.937
'0:22.105',1264.516
'0:22.109',1264.012
'0:22.113',1263.349
'0:22.117',1262.478
'0:22.121',1261.403
'0:22.125',1260.199
'0:22.129',1258.990
'0:22.133',1257.948
'0:22.137',1257.144
'0:22.141',1256.573
'0:22.145',1256.223
'0:22.148',1256.081
'0:22.152',1256.123
'0:22.156',1256.311
'0:22.160',1256.577
'0:22.164',1256.806
'0:22.168',1256.898
'0:22.172',1256.790
'0:22.176',1256.423
'0:22.180',1255.777
'0:22.184',1254.873
'0:22.188',1253.823
'0:22.191',1252.739
'0:22.195',1251.714
'0:22.199',1250.789
'0:22.203',1250.009
'0:22.207',1249.459
'0:22.211',1249.209
'0:22.215',1249.297
'0:22.219',1249.655
'0:22.223',1250.118
'0:22.227',1250.451
'0:22.230',1250.489
'0:22.234',1250.197
'0:22.238',1249.580
'0:22.242',1248.559
'0:22.246',1247.021
'0:22.250',1244.958
'0:22.254',1242.545
'0:22.258',1240.103
'0:22.262',1237.990
'0:22.266',1236.478
'0:22.270',1235.669
'0:22.273',1235.473
'0:22.277',1235.665
'0:22.281',1236.044
'0:22.285',1236.561
'0:22.289',1237.236
'0:22.293',1237.970
'0:22.297',1238.549
'0:22.301',1238.795
'0:22.305',1238.724
'0:22.309',1238.474
'0:22.313',1238.128
'0:22.316',1237.661
'0:22.320',1237.044
'0:22.324',1236.394
'0:22.328',1235.890
'0:22.332',1235.628
'0:22.336',1235.527
'0:22.340',1235.427
'0:22.344',1235.277
'0:22.348',1235.194
'0:22.352',1235.365
'0:22.355',1235.932
'0:22.359',1236.944
'0:22.363',1238.357
'0:22.367',1240.062
'0:22.371',1241.850
'0:22.375',1243.462
'0:22.379',1244.688
'0:22.383',1245.388
'0:22.387',1245.479
'0:22.391',1245.008
'0:22.395',1244.187
'0:22.398',1243.383
'0:22.402',1242.941
'0:22.406',1243.012
'0:22.410',1243.475
'0:22.414',1244.029
'0:22.418',1244.379
'0:22.422',1244.304
'0:22.426',1243.700
'0:22.430',1242.600
'0:22.434',1241.154
'0:22.438',1239.574
'0:22.441',1238.003
'0:22.445',1236.565
'0:22.449',1235.473
'0:22.453',1234.948
'0:22.457',1235.098
'0:22.461',1235.832
'0:22.465',1236.944
'0:22.469',1238.224
'0:22.473',1239.487
'0:22.477',1240.616
'0:22.480',1241.545
'0:22.484',1242.270
'0:22.488',1242.804
'0:22.492',1243.162
'0:22.496',1243.337
'0:22.500',1243.262
'0:22.504',1242.862
'0:22.508',1242.075
'0:22.512',1240.970
'0:22.516',1239.745
'0:22.520',1238.624
'0:22.523',1237.707
'0:22.527',1236.949
'0:22.531',1236.332
'0:22.535',1235.894
'0:22.539',1235.594
'0:22.543',1235.319
'0:22.547',1234.923
'0:22.551',1234.252
'0:22.555',1233.248
'0:22.559',1232.060
'0:22.563',1230.977
'0:22.566',1230.197
'0:22.570',1229.697
'0:22.574',1229.272
'0:22.578',1228.735
'0:22.582',1228.089
'0:22.586',1227.522
'0:22.590',1227.197
'0:22.594',1227.151
'0:22.598',1227.355
'0:22.602',1227.822
'0:22.605',1228.514
'0:22.609',1229.255
'0:22.613',1229.797
'0:22.617',1229.997
'0:22.621',1229.893
'0:22.625',1229.647
'0:22.629',1229.410
'0:22.633',1229.205
'0:22.637',1228.960
'0:22.641',1228.630
'0:22.645',1228.218
'0:22.648',1227.659
'0:22.652',1226.913
'0:22.656',1226.063
'0:22.660',1225.313
'0:22.664',1224.805
'0:22.668',1224.525
'0:22.672',1224.417
'0:22.676',1224.467
'0:22.680',1224.663
'0:22.684',1224.871
'0:22.688',1224.913
'0:22.691',1224.696
'0:22.695',1224.280
'0:22.699',1223.834
'0:22.703',1223.492
'0:22.707',1223.179
'0:22.711',1222.642
'0:22.715',1221.612
'0:22.719',1220.008
'0:22.723',1217.928
'0:22.727',1215.665
'0:22.730',1213.611
'0:22.734',1212.131
'0:22.738',1211.485
'0:22.742',1211.748
'0:22.746',1212.798
'0:22.750',1214.378
'0:22.754',1216.207
'0:22.758',1218.033
'0:22.762',1219.604
'0:22.766',1220.662
'0:22.770',1221.058
'0:22.773',1220.754
'0:22.777',1219.766
'0:22.781',1218.153
'0:22.785',1216.103
'0:22.789',1213.919
'0:22.793',1211.923
'0:22.797',1210.348
'0:22.801',1209.310
'0:22.805',1208.818
'0:22.809',1208.772
'0:22.813',1208.939
'0:22.816',1209.052
'0:22.820',1208.993
'0:22.824',1208.893
'0:22.828',1209.002
'0:22.832',1209.489
'0:22.836',1210.339
'0:22.840',1211.415
'0:22.844',1212.569
'0:22.848',1213.728
'0:22.852',1214.844
'0:22.855',1215.878
'0:22.859',1216.766
'0:22.863',1217.466
'0:22.867',1217.941
'0:22.871',1218.162
'0:22.875',1218.095
'0:22.879',1217.787
'0:22.883',1217.345
'0:22.887',1216.870
'0:22.891',1216.436
'0:22.895',1216.149
'0:22.898',1216.070
'0:22.902',1216.161
'0:22.906',1216.345
'0:22.910',1216.661
'0:22.914',1217.237
'0:22.918',1218.166
'0:22.922',1219.479
'0:22.926',1221.196
'0:22.930',1223.334
'0:22.934',1225.834
'0:22.938',1228.510
'0:22.941',1231.139
'0:22.945',1233.548
'0:22.949',1235.615
'0:22.953',1237.278
'0:22.957',1238.541
'0:22.961',1239.470
'0:22.965',1240.141
'0:22.969',1240.649
'0:22.973',1241.070
'0:22.977',1241.474
'0:22.980',1241.895
'0:22.984',1242.358
'0:22.988',1242.887
'0:22.992',1243.533
'0:22.996',1244.354
'0:23.000',1245.338
'0:23.004',1246.384
'0:23.008',1247.363
'0:23.012',1248.188
'0:23.016',1248.772
'0:23.020',1248.934
'0:23.023',1248.459
'0:23.027',1247.238
'0:23.031',1245.384
'0:23.035',1243.171
'0:23.039',1240.954
'0:23.043',1239.003
'0:23.047',1237.407
'0:23.051',1236.044
'0:23.055',1234.723
'0:23.059',1233.331
'0:23.063',1231.877
'0:23.066',1230.435
'0:23.070',1229.151
'0:23.074',1228.209
'0:23.078',1227.784
'0:23.082',1227.947
'0:23.086',1228.664
'0:23.090',1229.772
'0:23.094',1230.977
'0:23.098',1231.952
'0:23.102',1232.519
'0:23.105',1232.719
'0:23.109',1232.739
'0:23.113',1232.652
'0:23.117',1232.389
'0:23.121',1231.898
'0:23.125',1231.214
'0:23.129',1230.414
'0:23.133',1229.551
'0:23.137',1228.668
'0:23.141',1227.805
'0:23.145',1227.009
'0:23.148',1226.363
'0:23.152',1225.872
'0:23.156',1225.505
'0:23.160',1225.326
'0:23.164',1225.455
'0:23.168',1225.926
'0:23.172',1226.613
'0:23.176',1227.305
'0:23.180',1227.897
'0:23.184',1228.414
'0:23.188',1228.935
'0:23.191',1229.526
'0:23.195',1230.247
'0:23.199',1231.097
'0:23.203',1232.006
'0:23.207',1232.860
'0:23.211',1233.560
'0:23.215',1234.048
'0:23.219',1234.306
'0:23.223',1234.294
'0:23.227',1233.956
'0:23.230',1233.256
'0:23.234',1232.273
'0:23.238',1231.218
'0:23.242',1230.306
'0:23.246',1229.685
'0:23.250',1229.472
'0:23.254',1229.826
'0:23.258',1230.885
'0:23.262',1232.631
'0:23.266',1234.840
'0:23.270',1237.128
'0:23.273',1239.041
'0:23.277',1240.195
'0:23.281',1240.349
'0:23.285',1239.482
'0:23.289',1237.765
'0:23.293',1235.544
'0:23.297',1233.181
'0:23.301',1230.893
'0:23.305',1228.701
'0:23.309',1226.592
'0:23.313',1224.655
'0:23.316',1223.079
'0:23.320',1222.037
'0:23.324',1221.654
'0:23.328',1221.958
'0:23.332',1222.896
'0:23.336',1224.325
'0:23.340',1226.034
'0:23.344',1227.784
'0:23.348',1229.397
'0:23.352',1230.881
'0:23.355',1232.373
'0:23.359',1233.936
'0:23.363',1235.398
'0:23.367',1236.407
'0:23.371',1236.632
'0:23.375',1235.882
'0:23.379',1234.115
'0:23.383',1231.423
'0:23.387',1228.080
'0:23.391',1224.534
'0:23.395',1221.342
'0:23.398',1218.970
'0:23.402',1217.670
'0:23.406',1217.470
'0:23.410',1218.216
'0:23.414',1219.620
'0:23.418',1221.308
'0:23.422',1222.871
