'Elapsed time','wrist_ppg'
'hh:mm:ss.mmm','mV'
'0:00.000',1166.400
'0:00.004',1179.777
'0:00.008',1192.271
'0:00.012',1203.308
'0:00.016',1212.535
'0:00.020',1219.907
'0:00.023',1225.382
'0:00.027',1229.179
'0:00.031',1231.651
'0:00.035',1233.373
'0:00.039',1234.874
'0:00.043',1236.640
'0:00.047',1238.891
'0:00.051',1241.849
'0:00.055',1245.690
'0:00.059',1250.590
'0:00.063',1256.771
'0:00.066',1264.497
'0:00.070',1274.077
'0:00.074',1285.644
'0:00.078',1299.286
'0:00.082',1314.959
'0:00.086',1332.618
'0:00.090',1351.999
'0:00.094',1372.661
'0:00.098',1394.073
'0:00.102',1415.838
'0:00.105',1437.603
'0:00.109',1458.971
'0:00.113',1479.411
'0:00.117',1498.263
'0:00.121',1514.818
'0:00.125',1528.284
'0:00.129',1538.129
'0:00.133',1543.912
'0:00.137',1545.325
'0:00.141',1542.190
'0:00.145',1534.155
'0:00.148',1521.087
'0:00.152',1502.678
'0:00.156',1478.661
'0:00.160',1448.684
'0:00.164',1412.571
'0:00.168',1370.409
'0:00.172',1322.817
'0:00.176',1270.678
'0:00.180',1215.095
'0:00.184',1157.393
'0:00.188',1098.853
'0:00.191',1040.709
'0:00.195',983.979
'0:00.199',929.279
'0:00.203',876.963
'0:00.207',827.031
'0:00.211',779.395
'0:00.215',734.011
'0:00.219',691.098
'0:00.223',651.012
'0:00.227',614.104
'0:00.230',580.639
'0:00.234',550.707
'0:00.238',524.350
'0:00.242',501.702
'0:00.246',482.762
'0:00.250',467.354
'0:00.254',455.170
'0:00.258',446.119
'0:00.262',440.027
'0:00.266',436.848
'0:00.270',436.539
'0:00.273',439.232
'0:00.277',444.971
'0:00.281',454.022
'0:00.285',466.295
'0:00.289',481.703
'0:00.293',500.024
'0:00.297',521.083
'0:00.301',544.438
'0:00.305',569.646
'0:00.309',596.312
'0:00.313',624.258
'0:00.316',653.352
'0:00.320',683.417
'0:00.324',714.276
'0:00.328',745.931
'0:00.332',778.556
'0:00.336',812.286
'0:00.340',847.384
'0:00.344',883.983
'0:00.348',922.259
'0:00.352',961.904
'0:00.355',1002.300
'0:00.359',1042.652
'0:00.363',1082.253
'0:00.367',1120.441
'0:00.371',1156.864
'0:00.375',1191.299
'0:00.379',1223.616
'0:00.383',1253.460
'0:00.387',1280.435
'0:00.391',1304.363
'0:00.395',1324.936
'0:00.398',1342.154
'0:00.402',1355.928
'0:00.406',1366.303
'0:00.410',1373.367
'0:00.414',1377.120
'0:00.418',1377.649
'0:00.422',1375.177
'0:00.426',1370.056
'0:00.430',1362.551
'0:00.434',1352.882
'0:00.438',1341.006
'0:00.441',1326.791
'0:00.445',1310.191
'0:00.449',1291.428
'0:00.453',1270.722
'0:00.457',1248.295
'0:00.461',1224.278
'0:00.465',1198.849
'0:00.469',1172.227
'0:00.473',1144.811
'0:00.477',1116.821
'0:00.480',1088.831
'0:00.484',1061.282
'0:00.488',1034.705
'0:00.492',1009.540
'0:00.496',986.142
'0:00.500',964.774
'0:00.504',945.614
'0:00.508',928.881
'0:00.512',914.798
'0:00.516',903.540
'0:00.520',895.329
'0:00.523',890.516
'0:00.527',889.457
'0:00.531',892.547
'0:00.535',900.185
'0:00.539',912.591
'0:00.543',929.985
'0:00.547',952.368
'0:00.551',979.564
'0:00.555',1011.351
'0:00.559',1047.376
'0:00.563',1087.065
'0:00.566',1129.580
'0:00.570',1173.993
'0:00.574',1219.245
'0:00.578',1264.276
'0:00.582',1308.027
'0:00.586',1349.704
'0:00.590',1388.422
'0:00.594',1423.299
'0:00.598',1453.452
'0:00.602',1477.910
'0:00.605',1496.144
'0:00.609',1507.931
'0:00.613',1513.626
'0:00.617',1513.715
'0:00.621',1508.858
'0:00.625',1499.940
'0:00.629',1488.109
'0:00.633',1474.599
'0:00.637',1460.604
'0:00.641',1447.227
'0:00.645',1434.998
'0:00.648',1424.182
'0:00.652',1414.557
'0:00.656',1405.816
'0:00.660',1397.428
'0:00.664',1389.172
'0:00.668',1380.828
'0:00.672',1372.352
'0:00.676',1363.478
'0:00.680',1353.986
'0:00.684',1343.832
'0:00.688',1333.148
'0:00.691',1322.376
'0:00.695',1312.177
'0:00.699',1303.259
'0:00.703',1296.240
'0:00.707',1291.737
'0:00.711',1290.059
'0:00.715',1291.472
'0:00.719',1296.063
'0:00.723',1303.657
'0:00.727',1313.988
'0:00.730',1326.791
'0:00.734',1341.845
'0:00.738',1359.019
'0:00.742',1378.047
'0:00.746',1398.576
'0:00.750',1420.208
'0:00.754',1442.680
'0:00.758',1465.946
'0:00.762',1489.963
'0:00.766',1514.730
'0:00.770',1540.248
'0:00.773',1566.428
'0:00.777',1593.358
'0:00.781',1620.995
'0:00.785',1649.118
'0:00.789',1677.196
'0:00.793',1704.745
'0:00.797',1731.189
'0:00.801',1756.354
'0:00.805',1780.106
'0:00.809',1802.666
'0:00.813',1824.166
'0:00.816',1844.651
'0:00.820',1864.208
'0:00.824',1882.795
'0:00.828',1900.543
'0:00.832',1917.407
'0:00.836',1933.389
'0:00.840',1948.444
'0:00.844',1962.306
'0:00.848',1974.888
'0:00.852',1985.970
'0:00.855',1995.285
'0:00.859',2002.614
'0:00.863',2007.779
'0:00.867',2010.649
'0:00.871',2011.178
'0:00.875',2009.280
'0:00.879',2005.174
'0:00.883',1998.949
'0:00.887',1990.782
'0:00.891',1980.848
'0:00.895',1969.370
'0:00.898',1956.479
'0:00.902',1942.439
'0:00.906',1927.208
'0:00.910',1910.873
'0:00.914',1893.391
'0:00.918',1875.025
'0:00.922',1855.909
'0:00.926',1836.351
'0:00.930',1816.749
'0:00.934',1797.412
'0:00.938',1778.561
'0:00.941',1760.372
'0:00.945',1742.845
'0:00.949',1725.892
'0:00.953',1709.380
'0:00.957',1693.354
'0:00.961',1677.814
'0:00.965',1662.715
'0:00.969',1648.102
'0:00.973',1633.887
'0:00.977',1619.891
'0:00.980',1605.852
'0:00.984',1591.460
'0:00.988',1576.538
'0:00.992',1561.174
'0:00.996',1545.546
'0:01.000',1529.873
'0:01.004',1514.421
'0:01.008',1499.455
'0:01.012',1485.107
'0:01.016',1471.641
'0:01.020',1459.236
'0:01.023',1448.154
'0:01.027',1438.530
'0:01.031',1430.363
'0:01.035',1423.740
'0:01.039',1418.575
'0:01.043',1414.867
'0:01.047',1412.571
'0:01.051',1411.688
'0:01.055',1412.173
'0:01.059',1414.204
'0:01.063',1417.604
'0:01.066',1422.151
'0:01.070',1427.449
'0:01.074',1433.276
'0:01.078',1439.457
'0:01.082',1445.682
'0:01.086',1451.421
'0:01.090',1456.145
'0:01.094',1459.191
'0:01.098',1459.942
'0:01.102',1457.955
'0:01.105',1452.834
'0:01.109',1444.358
'0:01.113',1432.349
'0:01.117',1416.765
'0:01.121',1397.869
'0:01.125',1376.193
'0:01.129',1352.485
'0:01.133',1327.497
'0:01.137',1302.200
'0:01.141',1277.389
'0:01.145',1253.813
'0:01.148',1231.916
'0:01.152',1212.181
'0:01.156',1194.964
'0:01.160',1180.439
'0:01.164',1168.607
'0:01.168',1159.512
'0:01.172',1152.978
'0:01.176',1148.564
'0:01.180',1145.826
'0:01.184',1144.061
'0:01.188',1142.559
'0:01.191',1140.705
'0:01.195',1138.012
'0:01.199',1134.127
'0:01.203',1128.785
'0:01.207',1121.986
'0:01.211',1113.995
'0:01.215',1105.254
'0:01.219',1096.160
'0:01.223',1087.242
'0:01.227',1079.030
'0:01.230',1072.055
'0:01.234',1067.066
'0:01.238',1064.638
'0:01.242',1065.300
'0:01.246',1069.538
'0:01.250',1077.750
'0:01.254',1090.111
'0:01.258',1106.711
'0:01.262',1127.461
'0:01.266',1151.919
'0:01.270',1179.732
'0:01.273',1210.548
'0:01.277',1243.968
'0:01.281',1279.640
'0:01.285',1316.945
'0:01.289',1355.134
'0:01.293',1393.234
'0:01.297',1430.407
'0:01.301',1465.902
'0:01.305',1499.234
'0:01.309',1530.005
'0:01.313',1557.731
'0:01.316',1581.880
'0:01.320',1601.791
'0:01.324',1616.934
'0:01.328',1626.823
'0:01.332',1631.105
'0:01.336',1629.472
'0:01.340',1621.834
'0:01.344',1608.413
'0:01.348',1589.694
'0:01.352',1566.693
'0:01.355',1540.733
'0:01.359',1513.450
'0:01.363',1486.387
'0:01.367',1461.399
'0:01.371',1439.987
'0:01.375',1423.564
'0:01.379',1412.968
'0:01.383',1408.509
'0:01.387',1409.745
'0:01.391',1415.661
'0:01.395',1424.976
'0:01.398',1436.278
'0:01.402',1448.508
'0:01.406',1461.178
'0:01.410',1474.069
'0:01.414',1487.446
'0:01.418',1502.104
'0:01.422',1519.012
'0:01.426',1539.541
'0:01.430',1564.750
'0:01.434',1595.433
'0:01.438',1631.723
'0:01.441',1673.355
'0:01.445',1719.402
'0:01.449',1768.627
'0:01.453',1819.707
'0:01.457',1871.184
'0:01.461',1921.866
'0:01.465',1970.385
'0:01.469',2015.461
'0:01.473',2056.166
'0:01.477',2091.705
'0:01.480',2121.638
'0:01.484',2145.698
'0:01.488',2163.888
'0:01.492',2176.161
'0:01.496',2182.651
'0:01.500',2183.534
'0:01.504',2178.986
'0:01.508',2169.185
'0:01.512',2154.484
'0:01.516',2135.059
'0:01.520',2111.219
'0:01.523',2083.405
'0:01.527',2051.971
'0:01.531',2017.315
'0:01.535',1980.010
'0:01.539',1940.497
'0:01.543',1899.306
'0:01.547',1856.836
'0:01.551',1813.129
'0:01.555',1768.230
'0:01.559',1722.139
'0:01.563',1674.724
'0:01.566',1625.896
'0:01.570',1575.346
'0:01.574',1522.942
'0:01.578',1468.639
'0:01.582',1412.350
'0:01.586',1354.339
'0:01.590',1294.827
'0:01.594',1234.300
'0:01.598',1173.331
'0:01.602',1112.627
'0:01.605',1053.159
'0:01.609',996.075
'0:01.613',943.141
'0:01.617',896.521
'0:01.621',858.730
'0:01.625',831.843
'0:01.629',817.230
'0:01.633',815.288
'0:01.637',825.354
'0:01.641',846.147
'0:01.645',875.727
'0:01.648',911.884
'0:01.652',952.059
'0:01.656',993.647
'0:01.660',1034.352
'0:01.664',1072.099
'0:01.668',1105.387
'0:01.672',1133.421
'0:01.676',1155.804
'0:01.680',1172.845
'0:01.684',1185.074
'0:01.688',1193.374
'0:01.691',1199.025
'0:01.695',1203.440
'0:01.699',1208.031
'0:01.703',1213.991
'0:01.707',1222.291
'0:01.711',1233.814
'0:01.715',1248.869
'0:01.719',1267.632
'0:01.723',1290.147
'0:01.727',1316.372
'0:01.730',1346.260
'0:01.734',1379.724
'0:01.738',1416.412
'0:01.742',1455.924
'0:01.746',1497.821
'0:01.750',1541.352
'0:01.754',1585.544
'0:01.758',1629.295
'0:01.762',1671.368
'0:01.766',1710.572
'0:01.770',1745.582
'0:01.773',1775.161
'0:01.777',1798.074
'0:01.781',1813.394
'0:01.785',1820.369
'0:01.789',1818.647
'0:01.793',1808.052
'0:01.797',1788.936
'0:01.801',1761.961
'0:01.805',1728.452
'0:01.809',1690.132
'0:01.813',1649.250
'0:01.816',1608.413
'0:01.820',1570.269
'0:01.824',1537.599
'0:01.828',1512.832
'0:01.832',1497.689
'0:01.836',1493.142
'0:01.840',1498.969
'0:01.844',1514.377
'0:01.848',1537.864
'0:01.852',1567.399
'0:01.855',1601.084
'0:01.859',1636.844
'0:01.863',1672.870
'0:01.867',1707.570
'0:01.871',1739.357
'0:01.875',1766.950
'0:01.879',1789.112
'0:01.883',1805.006
'0:01.887',1813.879
'0:01.891',1815.557
'0:01.895',1810.038
'0:01.898',1797.633
'0:01.902',1779.046
'0:01.906',1755.206
'0:01.910',1727.260
'0:01.914',1696.180
'0:01.918',1662.848
'0:01.922',1627.926
'0:01.926',1591.990
'0:01.930',1555.744
'0:01.934',1519.940
'0:01.938',1485.195
'0:01.941',1451.995
'0:01.945',1420.606
'0:01.949',1391.071
'0:01.953',1363.610
'0:01.957',1338.269
'0:01.961',1315.312
'0:01.965',1294.915
'0:01.969',1277.168
'0:01.973',1262.157
'0:01.977',1249.752
'0:01.980',1239.862
'0:01.984',1232.446
'0:01.988',1227.501
'0:01.992',1224.940
'0:01.996',1224.675
'0:02.000',1226.795
'0:02.004',1231.342
'0:02.008',1238.538
'0:02.012',1248.251
'0:02.016',1260.303
'0:02.020',1274.210
'0:02.023',1289.662
'0:02.027',1306.482
'0:02.031',1324.274
'0:02.035',1342.772
'0:02.039',1361.535
'0:02.043',1380.122
'0:02.047',1398.178
'0:02.051',1415.264
'0:02.055',1430.937
'0:02.059',1445.064
'0:02.063',1457.426
'0:02.066',1467.889
'0:02.070',1476.056
'0:02.074',1481.884
'0:02.078',1485.283
'0:02.082',1486.431
'0:02.086',1485.371
'0:02.090',1482.149
'0:02.094',1476.674
'0:02.098',1468.860
'0:02.102',1458.838
'0:02.105',1447.007
'0:02.109',1433.806
'0:02.113',1419.811
'0:02.117',1405.375
'0:02.121',1390.894
'0:02.125',1376.678
'0:02.129',1363.080
'0:02.133',1350.587
'0:02.137',1339.373
'0:02.141',1329.528
'0:02.145',1321.007
'0:02.148',1313.678
'0:02.152',1307.498
'0:02.156',1302.244
'0:02.160',1297.829
'0:02.164',1294.077
'0:02.168',1290.721
'0:02.172',1287.543
'0:02.176',1284.364
'0:02.180',1281.274
'0:02.184',1278.448
'0:02.188',1276.064
'0:02.191',1274.386
'0:02.195',1273.503
'0:02.199',1273.459
'0:02.203',1274.386
'0:02.207',1276.329
'0:02.211',1279.243
'0:02.215',1282.995
'0:02.219',1287.631
'0:02.223',1293.017
'0:02.227',1299.021
'0:02.230',1305.599
'0:02.234',1312.707
'0:02.238',1320.257
'0:02.242',1328.247
'0:02.246',1336.591
'0:02.250',1345.333
'0:02.254',1354.427
'0:02.258',1363.831
'0:02.262',1373.720
'0:02.266',1384.139
'0:02.270',1395.265
'0:02.273',1407.141
'0:02.277',1419.502
'0:02.281',1431.952
'0:02.285',1443.916
'0:02.289',1454.865
'0:02.293',1464.578
'0:02.297',1472.966
'0:02.301',1480.162
'0:02.305',1486.122
'0:02.309',1490.713
'0:02.313',1493.715
'0:02.316',1494.952
'0:02.320',1494.201
'0:02.324',1491.596
'0:02.328',1487.358
'0:02.332',1481.663
'0:02.336',1474.467
'0:02.340',1465.725
'0:02.344',1455.395
'0:02.348',1443.695
'0:02.352',1431.025
'0:02.355',1417.913
'0:02.359',1404.668
'0:02.363',1391.424
'0:02.367',1378.179
'0:02.371',1364.935
'0:02.375',1351.690
'0:02.379',1338.534
'0:02.383',1325.731
'0:02.387',1313.546
'0:02.391',1302.200
'0:02.395',1292.002
'0:02.398',1283.128
'0:02.402',1275.711
'0:02.406',1269.574
'0:02.410',1264.497
'0:02.414',1260.127
'0:02.418',1256.418
'0:02.422',1253.284
'0:02.426',1250.546
'0:02.430',1247.942
'0:02.434',1245.425
'0:02.438',1242.865
'0:02.441',1240.039
'0:02.445',1236.904
'0:02.449',1233.417
'0:02.453',1229.576
'0:02.457',1225.558
'0:02.461',1221.762
'0:02.465',1218.583
'0:02.469',1216.155
'0:02.473',1214.389
'0:02.477',1213.064
'0:02.480',1211.961
'0:02.484',1211.034
'0:02.488',1210.239
'0:02.492',1209.886
'0:02.496',1210.371
'0:02.500',1212.049
'0:02.504',1215.184
'0:02.508',1219.775
'0:02.512',1225.823
'0:02.516',1233.240
'0:02.520',1241.893
'0:02.523',1251.827
'0:02.527',1262.996
'0:02.531',1275.269
'0:02.535',1288.426
'0:02.539',1302.112
'0:02.543',1315.930
'0:02.547',1329.439
'0:02.551',1342.331
'0:02.555',1354.427
'0:02.559',1365.597
'0:02.563',1375.751
'0:02.566',1384.934
'0:02.570',1393.190
'0:02.574',1400.430
'0:02.578',1406.611
'0:02.582',1411.864
'0:02.586',1416.456
'0:02.590',1420.871
'0:02.594',1425.330
'0:02.598',1430.009
'0:02.602',1434.822
'0:02.605',1439.590
'0:02.609',1444.181
'0:02.613',1448.508
'0:02.617',1452.569
'0:02.621',1456.101
'0:02.625',1458.971
'0:02.629',1461.134
'0:02.633',1462.723
'0:02.637',1463.695
'0:02.641',1464.224
'0:02.645',1464.269
'0:02.648',1463.827
'0:02.652',1462.679
'0:02.656',1460.737
'0:02.660',1458.044
'0:02.664',1454.644
'0:02.668',1450.538
'0:02.672',1445.682
'0:02.676',1440.119
'0:02.680',1433.850
'0:02.684',1427.051
'0:02.688',1419.855
'0:02.691',1412.483
'0:02.695',1405.110
'0:02.699',1398.002
'0:02.703',1391.380
'0:02.707',1385.331
'0:02.711',1380.078
'0:02.715',1375.574
'0:02.719',1371.822
'0:02.723',1368.731
'0:02.727',1366.127
'0:02.730',1364.008
'0:02.734',1362.418
'0:02.738',1361.270
'0:02.742',1360.564
'0:02.746',1360.167
'0:02.750',1360.167
'0:02.754',1360.741
'0:02.758',1362.109
'0:02.762',1364.582
'0:02.766',1368.246
'0:02.770',1373.279
'0:02.773',1379.504
'0:02.777',1386.523
'0:02.781',1393.984
'0:02.785',1401.622
'0:02.789',1409.392
'0:02.793',1417.339
'0:02.797',1425.330
'0:02.801',1433.321
'0:02.805',1441.135
'0:02.809',1448.817
'0:02.813',1456.498
'0:02.816',1464.180
'0:02.820',1471.818
'0:02.824',1479.191
'0:02.828',1486.166
'0:02.832',1492.568
'0:02.836',1498.174
'0:02.840',1502.898
'0:02.844',1506.695
'0:02.848',1509.918
'0:02.852',1512.920
'0:02.855',1516.055
'0:02.859',1519.498
'0:02.863',1523.207
'0:02.867',1527.003
'0:02.871',1530.933
'0:02.875',1534.862
'0:02.879',1538.747
'0:02.883',1542.411
'0:02.887',1545.722
'0:02.891',1548.548
'0:02.895',1550.932
'0:02.898',1552.830
'0:02.902',1554.155
'0:02.906',1554.861
'0:02.910',1555.038
'0:02.914',1554.905
'0:02.918',1554.508
'0:02.922',1553.978
'0:02.926',1553.316
'0:02.930',1552.477
'0:02.934',1551.373
'0:02.938',1550.049
'0:02.941',1548.459
'0:02.945',1546.649
'0:02.949',1544.619
'0:02.953',1542.455
'0:02.957',1540.160
'0:02.961',1537.820
'0:02.965',1535.480
'0:02.969',1533.228
'0:02.973',1530.933
'0:02.977',1528.637
'0:02.980',1526.253
'0:02.984',1523.781
'0:02.988',1521.132
'0:02.992',1518.218
'0:02.996',1514.995
'0:03.000',1511.375
'0:03.004',1507.269
'0:03.008',1502.810
'0:03.012',1498.219
'0:03.016',1493.671
'0:03.020',1489.433
'0:03.023',1485.725
'0:03.027',1482.723
'0:03.031',1480.427
'0:03.035',1478.837
'0:03.039',1478.043
'0:03.043',1477.999
'0:03.047',1478.705
'0:03.051',1479.941
'0:03.055',1481.663
'0:03.059',1483.561
'0:03.063',1485.548
'0:03.066',1487.491
'0:03.070',1489.345
'0:03.074',1491.022
'0:03.078',1492.612
'0:03.082',1494.025
'0:03.086',1495.172
'0:03.090',1495.923
'0:03.094',1496.188
'0:03.098',1495.923
'0:03.102',1495.172
'0:03.105',1494.069
'0:03.109',1492.523
'0:03.113',1490.758
'0:03.117',1488.771
'0:03.121',1486.608
'0:03.125',1484.179
'0:03.129',1481.531
'0:03.133',1478.837
'0:03.137',1476.233
'0:03.141',1474.025
'0:03.145',1472.304
'0:03.148',1471.112
'0:03.152',1470.405
'0:03.156',1469.920
'0:03.160',1469.213
'0:03.164',1467.845
'0:03.168',1465.372
'0:03.172',1461.796
'0:03.176',1457.205
'0:03.180',1452.084
'0:03.184',1446.786
'0:03.188',1441.665
'0:03.191',1436.720
'0:03.195',1431.731
'0:03.199',1426.301
'0:03.203',1419.855
'0:03.207',1412.041
'0:03.211',1402.417
'0:03.215',1390.629
'0:03.219',1376.413
'0:03.223',1359.593
'0:03.227',1340.167
'0:03.230',1318.093
'0:03.234',1293.547
'0:03.238',1266.925
'0:03.242',1238.626
'0:03.246',1208.959
'0:03.250',1177.922
'0:03.254',1145.164
'0:03.258',1110.375
'0:03.262',1073.114
'0:03.266',1032.895
'0:03.270',989.541
'0:03.273',943.009
'0:03.277',893.474
'0:03.281',841.291
'0:03.285',786.680
'0:03.289',730.258
'0:03.293',672.644
'0:03.297',615.031
'0:03.301',558.874
'0:03.305',505.896
'0:03.309',457.598
'0:03.313',415.392
'0:03.316',380.515
'0:03.320',353.893
'0:03.324',336.057
'0:03.328',327.183
'0:03.332',327.095
'0:03.336',335.528
'0:03.340',351.730
'0:03.344',374.731
'0:03.348',403.163
'0:03.352',435.479
'0:03.355',470.092
'0:03.359',505.675
'0:03.363',541.347
'0:03.367',576.357
'0:03.371',610.219
'0:03.375',642.491
'0:03.379',672.821
'0:03.383',700.855
'0:03.387',726.594
'0:03.391',750.345
'0:03.395',772.552
'0:03.398',793.787
'0:03.402',814.625
'0:03.406',835.728
'0:03.410',857.582
'0:03.414',880.495
'0:03.418',904.379
'0:03.422',929.235
'0:03.426',954.885
'0:03.430',981.330
'0:03.434',1008.481
'0:03.438',1036.294
'0:03.441',1064.593
'0:03.445',1093.069
'0:03.449',1121.236
'0:03.453',1148.608
'0:03.457',1174.523
'0:03.461',1198.540
'0:03.465',1220.349
'0:03.469',1239.951
'0:03.473',1257.169
'0:03.477',1271.782
'0:03.480',1283.702
'0:03.484',1292.929
'0:03.488',1299.419
'0:03.492',1303.171
'0:03.496',1304.275
'0:03.500',1302.862
'0:03.504',1298.845
'0:03.508',1292.178
'0:03.512',1282.775
'0:03.516',1270.457
'0:03.520',1255.138
'0:03.523',1236.640
'0:03.527',1214.830
'0:03.531',1189.489
'0:03.535',1160.528
'0:03.539',1127.858
'0:03.543',1091.259
'0:03.547',1050.289
'0:03.551',1004.552
'0:03.555',953.649
'0:03.559',897.315
'0:03.563',835.375
'0:03.566',768.005
'0:03.570',695.646
'0:03.574',619.269
'0:03.578',540.155
'0:03.582',459.982
'0:03.586',380.647
'0:03.590',304.094
'0:03.594',232.265
'0:03.598',167.057
'0:03.602',110.283
'0:03.605',63.265
'0:03.609',26.577
'0:03.613',-0.177
'0:03.617',-17.792
'0:03.621',-27.195
'0:03.625',-29.050
'0:03.629',-23.487
'0:03.633',-10.154
'0:03.637',11.699
'0:03.641',43.000
'0:03.645',84.500
'0:03.648',136.507
'0:03.652',198.932
'0:03.656',271.159
'0:03.660',352.127
'0:03.664',440.380
'0:03.668',534.239
'0:03.672',631.807
'0:03.676',731.141
'0:03.680',830.386
'0:03.684',927.998
'0:03.688',1022.564
'0:03.691',1112.936
'0:03.695',1198.275
'0:03.699',1277.742
'0:03.703',1350.631
'0:03.707',1416.456
'0:03.711',1474.952
'0:03.715',1526.032
'0:03.719',1569.474
'0:03.723',1605.190
'0:03.727',1633.224
'0:03.730',1653.797
'0:03.734',1667.307
'0:03.738',1674.238
'0:03.742',1675.254
'0:03.746',1670.971
'0:03.750',1662.230
'0:03.754',1649.692
'0:03.758',1633.887
'0:03.762',1615.432
'0:03.766',1594.992
'0:03.770',1573.094
'0:03.773',1550.270
'0:03.777',1526.738
'0:03.781',1502.633
'0:03.785',1478.175
'0:03.789',1453.629
'0:03.793',1429.612
'0:03.797',1406.567
'0:03.801',1385.155
'0:03.805',1365.729
'0:03.809',1348.688
'0:03.813',1334.031
'0:03.816',1321.758
'0:03.820',1311.824
'0:03.824',1304.187
'0:03.828',1298.756
'0:03.832',1295.489
'0:03.836',1294.165
'0:03.840',1294.651
'0:03.844',1296.681
'0:03.848',1300.125
'0:03.852',1304.849
'0:03.855',1310.809
'0:03.859',1317.917
'0:03.863',1326.217
'0:03.867',1335.576
'0:03.871',1345.907
'0:03.875',1357.032
'0:03.879',1368.820
'0:03.883',1380.961
'0:03.887',1393.322
'0:03.891',1405.772
'0:03.895',1418.001
'0:03.898',1429.833
'0:03.902',1440.914
'0:03.906',1450.892
'0:03.910',1459.545
'0:03.914',1466.476
'0:03.918',1471.553
'0:03.922',1474.511
'0:03.926',1475.438
'0:03.930',1474.246
'0:03.934',1471.067
'0:03.938',1466.167
'0:03.941',1459.765
'0:03.945',1452.304
'0:03.949',1444.093
'0:03.953',1435.572
'0:03.957',1427.096
'0:03.961',1418.884
'0:03.965',1411.202
'0:03.969',1404.227
'0:03.973',1398.134
'0:03.977',1393.146
'0:03.980',1389.349
'0:03.984',1386.479
'0:03.988',1384.272
'0:03.992',1382.550
'0:03.996',1381.225
'0:04.000',1380.298
'0:04.004',1379.769
'0:04.008',1379.283
'0:04.012',1378.753
'0:04.016',1378.003
'0:04.020',1377.208
'0:04.023',1376.281
'0:04.027',1375.089
'0:04.031',1373.500
'0:04.035',1371.557
'0:04.039',1369.394
'0:04.043',1367.363
'0:04.047',1365.553
'0:04.051',1364.228
'0:04.055',1363.478
'0:04.059',1363.566
'0:04.063',1364.626
'0:04.066',1366.657
'0:04.070',1369.659
'0:04.074',1373.764
'0:04.078',1379.018
'0:04.082',1385.552
'0:04.086',1393.234
'0:04.090',1401.975
'0:04.094',1411.511
'0:04.098',1421.754
'0:04.102',1432.570
'0:04.105',1443.960
'0:04.109',1456.013
'0:04.113',1468.683
'0:04.117',1481.751
'0:04.121',1495.040
'0:04.125',1508.284
'0:04.129',1521.176
'0:04.133',1533.537
'0:04.137',1545.325
'0:04.141',1556.406
'0:04.145',1566.737
'0:04.148',1576.140
'0:04.152',1584.440
'0:04.156',1591.372
'0:04.160',1596.978
'0:04.164',1601.217
'0:04.168',1604.219
'0:04.172',1606.205
'0:04.176',1607.265
'0:04.180',1607.530
'0:04.184',1606.956
'0:04.188',1605.411
'0:04.191',1602.806
'0:04.195',1599.230
'0:04.199',1595.036
'0:04.203',1590.621
'0:04.207',1586.206
'0:04.211',1581.703
'0:04.215',1576.935
'0:04.219',1571.549
'0:04.223',1565.368
'0:04.227',1558.172
'0:04.230',1549.651
'0:04.234',1539.586
'0:04.238',1527.798
'0:04.242',1514.377
'0:04.246',1499.587
'0:04.250',1483.650
'0:04.254',1467.050
'0:04.258',1449.788
'0:04.262',1431.731
'0:04.266',1412.615
'0:04.270',1392.042
'0:04.273',1369.482
'0:04.277',1344.450
'0:04.281',1316.327
'0:04.285',1284.541
'0:04.289',1248.648
'0:04.293',1208.650
'0:04.297',1164.634
'0:04.301',1116.644
'0:04.305',1064.770
'0:04.309',1009.055
'0:04.313',949.631
'0:04.316',886.808
'0:04.320',821.027
'0:04.324',752.994
'0:04.328',683.726
'0:04.332',614.236
'0:04.336',545.718
'0:04.340',479.363
'0:04.344',416.496
'0:04.348',358.573
'0:04.352',307.052
'0:04.355',263.212
'0:04.359',228.247
'0:04.363',203.436
'0:04.367',189.882
'0:04.371',188.734
'0:04.375',200.963
'0:04.379',227.232
'0:04.383',267.716
'0:04.387',322.504
'0:04.391',391.199
'0:04.395',473.138
'0:04.398',567.306
'0:04.402',672.512
'0:04.406',787.474
'0:04.410',910.781
'0:04.414',1040.974
'0:04.418',1176.686
'0:04.422',1316.592
'0:04.426',1459.103
'0:04.430',1602.674
'0:04.434',1745.758
'0:04.438',1886.857
'0:04.441',2024.467
'0:04.445',2156.824
'0:04.449',2281.896
'0:04.453',2397.432
'0:04.457',2501.181
'0:04.461',2590.890
'0:04.465',2664.751
'0:04.469',2722.143
'0:04.473',2763.687
'0:04.477',2791.368
'0:04.480',2807.924
'0:04.484',2816.003
'0:04.488',2818.210
'0:04.492',2816.709
'0:04.496',2813.133
'0:04.500',2808.718
'0:04.504',2804.259
'0:04.508',2800.286
'0:04.512',2796.975
'0:04.516',2794.414
'0:04.520',2792.604
'0:04.523',2791.368
'0:04.527',2790.662
'0:04.531',2790.264
'0:04.535',2790.132
'0:04.539',2790.176
'0:04.543',2790.264
'0:04.547',2790.441
'0:04.551',2790.750
'0:04.555',2791.147
'0:04.559',2791.810
'0:04.563',2792.737
'0:04.566',2794.061
'0:04.570',2795.783
'0:04.574',2797.946
'0:04.578',2800.463
'0:04.582',2803.244
'0:04.586',2805.849
'0:04.590',2807.791
'0:04.594',2808.321
'0:04.598',2806.246
'0:04.602',2800.286
'0:04.605',2788.808
'0:04.609',2770.133
'0:04.613',2742.628
'0:04.617',2705.146
'0:04.621',2657.245
'0:04.625',2599.102
'0:04.629',2531.820
'0:04.633',2456.768
'0:04.637',2375.888
'0:04.641',2291.079
'0:04.645',2204.416
'0:04.648',2117.841
'0:04.652',2033.076
'0:04.656',1951.357
'0:04.660',1873.612
'0:04.664',1800.282
'0:04.668',1731.587
'0:04.672',1667.483
'0:04.676',1607.883
'0:04.680',1552.698
'0:04.684',1501.706
'0:04.688',1454.909
'0:04.691',1412.173
'0:04.695',1373.323
'0:04.699',1338.004
'0:04.703',1305.908
'0:04.707',1276.506
'0:04.711',1249.443
'0:04.715',1224.101
'0:04.719',1200.261
'0:04.723',1177.657
'0:04.727',1156.290
'0:04.730',1135.981
'0:04.734',1116.733
'0:04.738',1098.323
'0:04.742',1080.796
'0:04.746',1064.152
'0:04.750',1048.523
'0:04.754',1034.087
'0:04.758',1021.151
'0:04.762',1010.203
'0:04.766',1001.682
'0:04.770',996.075
'0:04.773',993.647
'0:04.777',994.574
'0:04.781',998.768
'0:04.785',1005.832
'0:04.789',1015.236
'0:04.793',1026.317
'0:04.797',1038.678
'0:04.801',1051.835
'0:04.805',1065.476
'0:04.809',1079.339
'0:04.813',1093.157
'0:04.816',1106.711
'0:04.820',1119.646
'0:04.824',1131.655
'0:04.828',1142.074
'0:04.832',1150.330
'0:04.836',1155.804
'0:04.840',1157.923
'0:04.844',1156.025
'0:04.848',1149.535
'0:04.852',1137.791
'0:04.855',1120.397
'0:04.859',1097.087
'0:04.863',1067.507
'0:04.867',1031.438
'0:04.871',988.349
'0:04.875',937.579
'0:04.879',878.508
'0:04.883',810.608
'0:04.887',734.099
'0:04.891',649.687
'0:04.895',559.316
'0:04.898',465.986
'0:04.902',373.628
'0:04.906',286.964
'0:04.910',210.720
'0:04.914',149.442
'0:04.918',107.016
'0:04.922',86.487
'0:04.926',89.533
'0:04.930',116.463
'0:04.934',165.910
'0:04.938',234.958
'0:04.941',319.458
'0:04.945',414.288
'0:04.949',513.931
'0:04.953',613.044
'0:04.957',707.213
'0:04.961',793.214
'0:04.965',869.060
'0:04.969',933.958
'0:04.973',987.996
'0:04.977',1032.277
'0:04.980',1068.346
'0:04.984',1098.323
'0:04.988',1124.238
'0:04.992',1147.857
'0:04.996',1170.594
'0:05.000',1193.242
'0:05.004',1216.287
'0:05.008',1239.686
'0:05.012',1263.217
'0:05.016',1286.395
'0:05.020',1308.513
'0:05.023',1328.777
'0:05.027',1346.657
'0:05.031',1361.977
'0:05.035',1374.956
'0:05.039',1386.126
'0:05.043',1396.103
'0:05.047',1405.419
'0:05.051',1414.822
'0:05.055',1424.623
'0:05.059',1435.175
'0:05.063',1446.874
'0:05.066',1460.074
'0:05.070',1475.261
'0:05.074',1492.656
'0:05.078',1512.302
'0:05.082',1534.067
'0:05.086',1557.686
'0:05.090',1582.983
'0:05.094',1609.693
'0:05.098',1637.683
'0:05.102',1666.556
'0:05.105',1695.959
'0:05.109',1725.759
'0:05.113',1756.001
'0:05.117',1786.728
'0:05.121',1818.029
'0:05.125',1849.904
'0:05.129',1882.442
'0:05.133',1915.376
'0:05.137',1948.311
'0:05.141',1980.672
'0:05.145',2011.841
'0:05.148',2041.243
'0:05.152',2068.483
'0:05.156',2092.985
'0:05.160',2114.309
'0:05.164',2132.057
'0:05.168',2145.919
'0:05.172',2155.941
'0:05.176',2162.298
'0:05.180',2165.256
'0:05.184',2165.168
'0:05.188',2162.519
'0:05.191',2157.707
'0:05.195',2151.217
'0:05.199',2143.359
'0:05.203',2134.396
'0:05.207',2124.507
'0:05.211',2113.823
'0:05.215',2102.389
'0:05.219',2090.160
'0:05.223',2076.915
'0:05.227',2062.390
'0:05.230',2046.453
'0:05.234',2029.235
'0:05.238',2010.913
'0:05.242',1991.797
'0:05.246',1972.372
'0:05.250',1952.947
'0:05.254',1934.095
'0:05.258',1916.215
'0:05.262',1899.351
'0:05.266',1883.413
'0:05.270',1867.917
'0:05.273',1852.465
'0:05.277',1836.748
'0:05.281',1820.369
'0:05.285',1803.019
'0:05.289',1784.300
'0:05.293',1764.036
'0:05.297',1742.006
'0:05.301',1718.077
'0:05.305',1692.162
'0:05.309',1664.172
'0:05.313',1634.151
'0:05.316',1602.232
'0:05.320',1568.812
'0:05.324',1534.155
'0:05.328',1498.793
'0:05.332',1463.165
'0:05.336',1427.714
'0:05.340',1392.836
'0:05.344',1358.931
'0:05.348',1326.128
'0:05.352',1294.562
'0:05.355',1264.497
'0:05.359',1236.066
'0:05.363',1209.400
'0:05.367',1184.500
'0:05.371',1161.190
'0:05.375',1139.072
'0:05.379',1117.571
'0:05.383',1096.071
'0:05.387',1074.085
'0:05.391',1051.217
'0:05.395',1027.244
'0:05.398',1001.859
'0:05.402',974.398
'0:05.406',944.201
'0:05.410',910.604
'0:05.414',872.945
'0:05.418',830.828
'0:05.422',784.251
'0:05.426',733.834
'0:05.430',680.724
'0:05.434',626.509
'0:05.438',573.311
'0:05.441',523.290
'0:05.445',478.833
'0:05.449',442.057
'0:05.453',414.906
'0:05.457',398.704
'0:05.461',394.245
'0:05.465',401.882
'0:05.469',421.396
'0:05.473',451.991
'0:05.477',492.519
'0:05.480',541.568
'0:05.484',597.416
'0:05.488',658.120
'0:05.492',721.561
'0:05.496',785.841
'0:05.500',849.238
'0:05.504',910.207
'0:05.508',967.511
'0:05.512',1019.871
'0:05.516',1066.448
'0:05.520',1106.755
'0:05.523',1140.882
'0:05.527',1169.225
'0:05.531',1192.359
'0:05.535',1210.945
'0:05.539',1225.603
'0:05.543',1236.772
'0:05.547',1245.116
'0:05.551',1251.164
'0:05.555',1255.668
'0:05.559',1259.199
'0:05.563',1262.422
'0:05.566',1265.954
'0:05.570',1270.369
'0:05.574',1276.285
'0:05.578',1284.276
'0:05.582',1295.224
'0:05.586',1310.235
'0:05.590',1330.411
'0:05.594',1356.547
'0:05.598',1389.128
'0:05.602',1428.111
'0:05.605',1473.098
'0:05.609',1523.383
'0:05.613',1577.730
'0:05.617',1634.725
'0:05.621',1692.692
'0:05.625',1750.129
'0:05.629',1805.359
'0:05.633',1856.968
'0:05.637',1903.633
'0:05.641',1944.294
'0:05.645',1978.023
'0:05.648',2004.203
'0:05.652',2022.392
'0:05.656',2032.414
'0:05.660',2034.268
'0:05.664',2028.131
'0:05.668',2014.048
'0:05.672',1992.239
'0:05.676',1962.924
'0:05.680',1926.458
'0:05.684',1883.236
'0:05.688',1833.570
'0:05.691',1777.678
'0:05.695',1715.561
'0:05.699',1647.396
'0:05.703',1573.271
'0:05.707',1493.451
'0:05.711',1408.200
'0:05.715',1317.740
'0:05.719',1222.380
'0:05.723',1122.295
'0:05.727',1017.929
'0:05.730',909.942
'0:05.734',799.571
'0:05.738',688.714
'0:05.742',579.756
'0:05.746',475.434
'0:05.750',378.528
'0:05.754',291.600
'0:05.758',216.989
'0:05.762',156.373
'0:05.766',111.077
'0:05.770',81.674
'0:05.773',67.988
'0:05.777',69.269
'0:05.781',84.235
'0:05.785',111.121
'0:05.789',147.897
'0:05.793',192.443
'0:05.797',242.507
'0:05.801',295.926
'0:05.805',350.935
'0:05.809',406.077
'0:05.813',460.423
'0:05.816',513.313
'0:05.820',564.393
'0:05.824',613.662
'0:05.828',661.033
'0:05.832',706.594
'0:05.836',750.478
'0:05.840',792.595
'0:05.844',832.947
'0:05.848',871.533
'0:05.852',908.573
'0:05.855',944.245
'0:05.859',978.857
'0:05.863',1012.587
'0:05.867',1045.654
'0:05.871',1077.970
'0:05.875',1109.316
'0:05.879',1139.425
'0:05.883',1167.945
'0:05.887',1194.831
'0:05.891',1220.172
'0:05.895',1244.321
'0:05.898',1267.632
'0:05.902',1290.545
'0:05.906',1313.237
'0:05.910',1335.929
'0:05.914',1358.710
'0:05.918',1381.755
'0:05.922',1404.933
'0:05.926',1427.934
'0:05.930',1450.450
'0:05.934',1472.171
'0:05.938',1493.053
'0:05.941',1512.920
'0:05.945',1531.771
'0:05.949',1549.607
'0:05.953',1566.693
'0:05.957',1583.116
'0:05.961',1598.921
'0:05.965',1614.240
'0:05.969',1629.118
'0:05.973',1643.467
'0:05.977',1657.241
'0:05.980',1670.353
'0:05.984',1682.582
'0:05.988',1693.708
'0:05.992',1703.553
'0:05.996',1711.897
'0:06.000',1718.740
'0:06.004',1724.126
'0:06.008',1728.276
'0:06.012',1731.234
'0:06.016',1733.000
'0:06.020',1733.485
'0:06.023',1732.514
'0:06.027',1729.953
'0:06.031',1725.627
'0:06.035',1719.446
'0:06.039',1711.455
'0:06.043',1701.743
'0:06.047',1690.352
'0:06.051',1677.328
'0:06.055',1662.760
'0:06.059',1646.822
'0:06.063',1629.737
'0:06.066',1611.768
'0:06.070',1593.314
'0:06.074',1574.772
'0:06.078',1556.583
'0:06.082',1538.879
'0:06.086',1521.838
'0:06.090',1505.415
'0:06.094',1489.433
'0:06.098',1473.893
'0:06.102',1458.750
'0:06.105',1444.269
'0:06.109',1430.716
'0:06.113',1418.133
'0:06.117',1406.611
'0:06.121',1396.059
'0:06.125',1386.612
'0:06.129',1378.312
'0:06.133',1371.204
'0:06.137',1365.288
'0:06.141',1360.520
'0:06.145',1356.988
'0:06.148',1354.913
'0:06.152',1354.427
'0:06.156',1355.840
'0:06.160',1359.284
'0:06.164',1364.979
'0:06.168',1372.970
'0:06.172',1383.345
'0:06.176',1395.750
'0:06.180',1409.701
'0:06.184',1424.712
'0:06.188',1440.296
'0:06.191',1456.101
'0:06.195',1471.950
'0:06.199',1487.535
'0:06.203',1502.722
'0:06.207',1517.202
'0:06.211',1530.756
'0:06.215',1543.029
'0:06.219',1553.801
'0:06.223',1562.984
'0:06.227',1570.445
'0:06.230',1575.920
'0:06.234',1579.187
'0:06.238',1580.246
'0:06.242',1579.275
'0:06.246',1576.670
'0:06.250',1572.829
'0:06.254',1568.150
'0:06.258',1562.940
'0:06.262',1557.510
'0:06.266',1551.991
'0:06.270',1546.694
'0:06.273',1541.837
'0:06.277',1537.776
'0:06.281',1534.553
'0:06.285',1532.080
'0:06.289',1530.403
'0:06.293',1529.476
'0:06.297',1529.343
'0:06.301',1530.005
'0:06.305',1531.462
'0:06.309',1533.626
'0:06.313',1536.539
'0:06.316',1540.160
'0:06.320',1544.619
'0:06.324',1550.181
'0:06.328',1556.980
'0:06.332',1565.103
'0:06.336',1574.419
'0:06.340',1584.794
'0:06.344',1595.963
'0:06.348',1607.618
'0:06.352',1619.450
'0:06.355',1631.061
'0:06.359',1642.142
'0:06.363',1652.429
'0:06.367',1661.700
'0:06.371',1669.912
'0:06.375',1676.843
'0:06.379',1682.273
'0:06.383',1686.158
'0:06.387',1688.630
'0:06.391',1689.911
'0:06.395',1690.308
'0:06.398',1690.220
'0:06.402',1690.132
'0:06.406',1690.617
'0:06.410',1692.162
'0:06.414',1695.253
'0:06.418',1700.241
'0:06.422',1707.394
'0:06.426',1716.797
'0:06.430',1728.541
'0:06.434',1742.580
'0:06.438',1758.871
'0:06.441',1777.236
'0:06.445',1797.456
'0:06.449',1819.177
'0:06.453',1842.090
'0:06.457',1865.842
'0:06.461',1890.035
'0:06.465',1914.184
'0:06.469',1937.892
'0:06.473',1960.805
'0:06.477',1982.791
'0:06.480',2003.894
'0:06.484',2024.246
'0:06.488',2043.892
'0:06.492',2063.053
'0:06.496',2081.948
'0:06.500',2100.623
'0:06.504',2119.033
'0:06.508',2136.825
'0:06.512',2153.513
'0:06.516',2168.523
'0:06.520',2181.282
'0:06.523',2191.348
'0:06.527',2198.412
'0:06.531',2202.429
'0:06.535',2203.444
'0:06.539',2201.502
'0:06.543',2196.646
'0:06.547',2188.875
'0:06.551',2177.883
'0:06.555',2163.314
'0:06.559',2144.462
'0:06.563',2120.622
'0:06.566',2090.690
'0:06.570',2053.517
'0:06.574',2008.132
'0:06.578',1953.741
'0:06.582',1890.256
'0:06.586',1818.338
'0:06.590',1739.269
'0:06.594',1655.122
'0:06.598',1568.724
'0:06.602',1483.296
'0:06.605',1402.373
'0:06.609',1329.351
'0:06.613',1267.455
'0:06.617',1219.378
'0:06.621',1187.061
'0:06.625',1171.609
'0:06.629',1173.154
'0:06.633',1191.255
'0:06.637',1224.499
'0:06.641',1271.164
'0:06.645',1329.219
'0:06.648',1396.589
'0:06.652',1471.023
'0:06.656',1550.270
'0:06.660',1632.076
'0:06.664',1714.325
'0:06.668',1795.293
'0:06.672',1873.215
'0:06.676',1946.413
'0:06.680',2013.474
'0:06.684',2073.251
'0:06.688',2124.993
'0:06.691',2168.214
'0:06.695',2202.915
'0:06.699',2229.183
'0:06.703',2247.416
'0:06.707',2257.924
'0:06.711',2261.279
'0:06.715',2258.056
'0:06.719',2248.917
'0:06.723',2234.392
'0:06.727',2214.835
'0:06.730',2190.332
'0:06.734',2161.150
'0:06.738',2127.377
'0:06.742',2089.321
'0:06.746',2047.380
'0:06.750',2001.951
'0:06.754',1953.653
'0:06.758',1903.191
'0:06.762',1851.052
'0:06.766',1797.765
'0:06.770',1743.860
'0:06.773',1689.734
'0:06.777',1635.697
'0:06.781',1582.012
'0:06.785',1528.681
'0:06.789',1475.968
'0:06.793',1424.049
'0:06.797',1373.367
'0:06.801',1324.274
'0:06.805',1276.991
'0:06.809',1231.607
'0:06.813',1188.165
'0:06.816',1146.930
'0:06.820',1108.124
'0:06.824',1071.966
'0:06.828',1038.458
'0:06.832',1007.819
'0:06.836',980.226
'0:06.840',955.900
'0:06.844',935.150
'0:06.848',918.153
'0:06.852',905.174
'0:06.855',896.300
'0:06.859',891.532
'0:06.863',890.384
'0:06.867',892.327
'0:06.871',896.741
'0:06.875',903.099
'0:06.879',910.825
'0:06.883',919.345
'0:06.887',928.263
'0:06.891',937.270
'0:06.895',946.099
'0:06.898',954.929
'0:06.902',963.759
'0:06.906',972.897
'0:06.910',982.478
'0:06.914',992.676
'0:06.918',1003.448
'0:06.922',1014.662
'0:06.926',1026.096
'0:06.930',1037.531
'0:06.934',1048.877
'0:06.938',1060.223
'0:06.941',1071.745
'0:06.945',1083.357
'0:06.949',1095.012
'0:06.953',1106.711
'0:06.957',1118.543
'0:06.961',1130.816
'0:06.965',1143.663
'0:06.969',1157.084
'0:06.973',1171.168
'0:06.977',1185.913
'0:06.980',1201.233
'0:06.984',1217.214
'0:06.988',1233.682
'0:06.992',1250.635
'0:06.996',1268.029
'0:07.000',1285.909
'0:07.004',1304.275
'0:07.008',1323.170
'0:07.012',1342.463
'0:07.016',1362.109
'0:07.020',1382.064
'0:07.023',1402.196
'0:07.027',1422.460
'0:07.031',1442.945
'0:07.035',1463.606
'0:07.039',1484.577
'0:07.043',1505.856
'0:07.047',1527.710
'0:07.051',1550.181
'0:07.055',1573.271
'0:07.059',1596.714
'0:07.063',1620.112
'0:07.066',1642.981
'0:07.070',1664.790
'0:07.074',1685.099
'0:07.078',1703.641
'0:07.082',1720.152
'0:07.086',1734.589
'0:07.090',1746.906
'0:07.094',1757.060
'0:07.098',1765.007
'0:07.102',1770.879
'0:07.105',1774.896
'0:07.109',1777.325
'0:07.113',1778.517
'0:07.117',1778.826
'0:07.121',1778.296
'0:07.125',1776.971
'0:07.129',1774.941
'0:07.133',1772.424
'0:07.137',1769.863
'0:07.141',1767.744
'0:07.145',1766.376
'0:07.148',1765.934
'0:07.152',1766.552
'0:07.156',1768.142
'0:07.160',1770.614
'0:07.164',1773.837
'0:07.168',1777.810
'0:07.172',1782.534
'0:07.176',1788.008
'0:07.180',1794.366
'0:07.184',1801.650
'0:07.188',1809.906
'0:07.191',1819.045
'0:07.195',1828.890
'0:07.199',1839.176
'0:07.203',1849.375
'0:07.207',1859.131
'0:07.211',1868.005
'0:07.215',1875.687
'0:07.219',1882.044
'0:07.223',1886.857
'0:07.227',1890.079
'0:07.230',1891.669
'0:07.234',1891.580
'0:07.238',1890.079
'0:07.242',1887.386
'0:07.246',1883.722
'0:07.250',1879.175
'0:07.254',1873.700
'0:07.258',1867.255
'0:07.262',1859.882
'0:07.266',1851.715
'0:07.270',1842.973
'0:07.273',1833.967
'0:07.277',1824.696
'0:07.281',1815.204
'0:07.285',1805.579
'0:07.289',1795.955
'0:07.293',1786.552
'0:07.297',1777.545
'0:07.301',1769.157
'0:07.305',1761.828
'0:07.309',1755.736
'0:07.313',1750.968
'0:07.316',1747.480
'0:07.320',1745.185
'0:07.324',1744.037
'0:07.328',1743.948
'0:07.332',1744.743
'0:07.336',1746.288
'0:07.340',1748.319
'0:07.344',1750.703
'0:07.348',1753.131
'0:07.352',1755.250
'0:07.355',1756.972
'0:07.359',1758.341
'0:07.363',1759.577
'0:07.367',1760.901
'0:07.371',1762.491
'0:07.375',1764.433
'0:07.379',1766.641
'0:07.383',1769.025
'0:07.387',1771.188
'0:07.391',1772.866
'0:07.395',1773.881
'0:07.398',1774.234
'0:07.402',1773.837
'0:07.406',1772.689
'0:07.410',1770.570
'0:07.414',1767.082
'0:07.418',1761.873
'0:07.422',1754.456
'0:07.426',1744.611
'0:07.430',1732.117
'0:07.434',1716.974
'0:07.438',1699.447
'0:07.441',1679.977
'0:07.445',1659.360
'0:07.449',1638.301
'0:07.453',1617.684
'0:07.457',1598.126
'0:07.461',1580.114
'0:07.465',1563.779
'0:07.469',1549.078
'0:07.473',1536.054
'0:07.477',1524.663
'0:07.480',1514.818
'0:07.484',1506.519
'0:07.488',1499.631
'0:07.492',1493.936
'0:07.496',1489.345
'0:07.500',1485.813
'0:07.504',1483.561
'0:07.508',1482.899
'0:07.512',1484.224
'0:07.516',1487.800
'0:07.520',1493.583
'0:07.523',1501.441
'0:07.527',1510.933
'0:07.531',1521.617
'0:07.535',1533.096
'0:07.539',1545.060
'0:07.543',1557.201
'0:07.547',1569.077
'0:07.551',1580.202
'0:07.555',1590.135
'0:07.559',1598.347
'0:07.563',1604.395
'0:07.566',1607.971
'0:07.570',1609.163
'0:07.574',1608.148
'0:07.578',1605.102
'0:07.582',1600.245
'0:07.586',1593.579
'0:07.590',1585.014
'0:07.594',1574.463
'0:07.598',1561.748
'0:07.602',1546.782
'0:07.605',1529.652
'0:07.609',1510.359
'0:07.613',1489.080
'0:07.617',1465.946
'0:07.621',1441.223
'0:07.625',1415.440
'0:07.629',1388.996
'0:07.633',1362.198
'0:07.637',1335.267
'0:07.641',1308.381
'0:07.645',1281.759
'0:07.648',1255.668
'0:07.652',1230.326
'0:07.656',1206.045
'0:07.660',1182.911
'0:07.664',1161.058
'0:07.668',1140.529
'0:07.672',1121.501
'0:07.676',1104.062
'0:07.680',1088.345
'0:07.684',1074.262
'0:07.688',1061.768
'0:07.691',1050.996
'0:07.695',1042.166
'0:07.699',1035.279
'0:07.703',1030.334
'0:07.707',1027.156
'0:07.711',1025.522
'0:07.715',1025.213
'0:07.719',1026.008
'0:07.723',1027.641
'0:07.727',1029.849
'0:07.730',1032.409
'0:07.734',1035.147
'0:07.738',1037.928
'0:07.742',1040.533
'0:07.746',1042.784
'0:07.750',1044.550
'0:07.754',1045.654
'0:07.758',1045.875
'0:07.762',1045.168
'0:07.766',1043.446
'0:07.770',1040.930
'0:07.773',1037.795
'0:07.777',1034.175
'0:07.781',1030.202
'0:07.785',1026.052
'0:07.789',1021.770
'0:07.793',1017.443
'0:07.797',1013.205
'0:07.801',1009.320
'0:07.805',1006.318
'0:07.809',1004.508
'0:07.813',1004.199
'0:07.816',1005.611
'0:07.820',1008.746
'0:07.824',1013.602
'0:07.828',1020.136
'0:07.832',1028.215
'0:07.836',1037.840
'0:07.840',1049.053
'0:07.844',1061.768
'0:07.848',1075.940
'0:07.852',1091.656
'0:07.855',1109.051
'0:07.859',1128.344
'0:07.863',1149.491
'0:07.867',1172.271
'0:07.871',1196.376
'0:07.875',1221.717
'0:07.879',1248.162
'0:07.883',1275.755
'0:07.887',1304.363
'0:07.891',1333.898
'0:07.895',1364.449
'0:07.898',1396.015
'0:07.902',1428.641
'0:07.906',1462.017
'0:07.910',1495.967
'0:07.914',1529.961
'0:07.918',1563.558
'0:07.922',1596.051
'0:07.926',1627.044
'0:07.930',1656.181
'0:07.934',1683.200
'0:07.938',1707.967
'0:07.941',1730.351
'0:07.945',1750.438
'0:07.949',1768.230
'0:07.953',1784.079
'0:07.957',1798.163
'0:07.961',1810.833
'0:07.965',1822.223
'0:07.969',1832.554
'0:07.973',1841.781
'0:07.977',1849.904
'0:07.980',1856.703
'0:07.984',1862.045
'0:07.988',1865.621
'0:07.992',1867.343
'0:07.996',1867.122
'0:08.000',1865.224
'0:08.004',1861.913
'0:08.008',1857.542
'0:08.012',1852.553
'0:08.016',1847.211
'0:08.020',1841.825
'0:08.023',1836.660
'0:08.027',1831.759
'0:08.031',1827.080
'0:08.035',1822.312
'0:08.039',1817.190
'0:08.043',1811.584
'0:08.047',1805.447
'0:08.051',1799.001
'0:08.055',1792.423
'0:08.059',1785.889
'0:08.063',1779.532
'0:08.066',1773.263
'0:08.070',1767.038
'0:08.074',1760.813
'0:08.078',1754.456
'0:08.082',1747.833
'0:08.086',1740.902
'0:08.090',1733.485
'0:08.094',1725.538
'0:08.098',1717.018
'0:08.102',1707.879
'0:08.105',1697.946
'0:08.109',1687.174
'0:08.113',1675.430
'0:08.117',1662.715
'0:08.121',1649.029
'0:08.125',1634.460
'0:08.129',1619.141
'0:08.133',1603.203
'0:08.137',1586.780
'0:08.141',1570.048
'0:08.145',1553.272
'0:08.148',1536.804
'0:08.152',1520.823
'0:08.156',1505.591
'0:08.160',1491.331
'0:08.164',1478.131
'0:08.168',1466.211
'0:08.172',1455.527
'0:08.176',1446.035
'0:08.180',1437.780
'0:08.184',1430.760
'0:08.188',1425.021
'0:08.191',1420.518
'0:08.195',1417.162
'0:08.199',1414.911
'0:08.203',1413.542
'0:08.207',1412.880
'0:08.211',1412.615
'0:08.215',1412.394
'0:08.219',1411.909
'0:08.223',1410.937
'0:08.227',1409.216
'0:08.230',1406.522
'0:08.234',1402.770
'0:08.238',1397.914
'0:08.242',1391.954
'0:08.246',1384.801
'0:08.250',1376.369
'0:08.254',1366.612
'0:08.258',1355.796
'0:08.262',1344.141
'0:08.266',1331.868
'0:08.270',1319.109
'0:08.273',1305.908
'0:08.277',1292.222
'0:08.281',1277.874
'0:08.285',1262.775
'0:08.289',1246.838
'0:08.293',1230.061
'0:08.297',1212.490
'0:08.301',1194.478
'0:08.305',1176.377
'0:08.309',1158.409
'0:08.313',1140.882
'0:08.316',1124.017
'0:08.320',1108.035
'0:08.324',1093.246
'0:08.328',1079.869
'0:08.332',1068.125
'0:08.336',1058.236
'0:08.340',1050.245
'0:08.344',1044.153
'0:08.348',1039.694
'0:08.352',1036.692
'0:08.355',1035.014
'0:08.359',1034.573
'0:08.363',1035.411
'0:08.367',1037.575
'0:08.371',1041.107
'0:08.375',1045.963
'0:08.379',1052.099
'0:08.383',1059.561
'0:08.387',1068.214
'0:08.391',1077.706
'0:08.395',1087.639
'0:08.398',1097.528
'0:08.402',1107.064
'0:08.406',1115.894
'0:08.410',1123.752
'0:08.414',1130.595
'0:08.418',1136.467
'0:08.422',1141.279
'0:08.426',1144.988
'0:08.430',1147.504
'0:08.434',1148.784
'0:08.438',1148.961
'0:08.441',1147.990
'0:08.445',1146.135
'0:08.449',1143.840
'0:08.453',1141.456
'0:08.457',1139.116
'0:08.461',1136.732
'0:08.465',1134.348
'0:08.469',1131.831
'0:08.473',1129.183
'0:08.477',1126.225
'0:08.480',1122.869
'0:08.484',1119.205
'0:08.488',1115.452
'0:08.492',1111.744
'0:08.496',1108.168
'0:08.500',1104.945
'0:08.504',1102.208
'0:08.508',1100.045
'0:08.512',1098.455
'0:08.516',1097.572
'0:08.520',1097.396
'0:08.523',1098.102
'0:08.527',1099.780
'0:08.531',1102.605
'0:08.535',1106.579
'0:08.539',1111.788
'0:08.543',1118.278
'0:08.547',1126.048
'0:08.551',1135.275
'0:08.555',1146.047
'0:08.559',1158.585
'0:08.563',1173.066
'0:08.566',1189.666
'0:08.570',1208.385
'0:08.574',1229.134
'0:08.578',1251.562
'0:08.582',1275.358
'0:08.586',1300.125
'0:08.590',1325.731
'0:08.594',1351.911
'0:08.598',1378.356
'0:08.602',1404.668
'0:08.605',1430.495
'0:08.609',1455.439
'0:08.613',1479.279
'0:08.617',1501.839
'0:08.621',1523.207
'0:08.625',1543.559
'0:08.629',1563.028
'0:08.633',1581.659
'0:08.637',1599.318
'0:08.641',1615.742
'0:08.645',1630.620
'0:08.648',1643.643
'0:08.652',1654.725
'0:08.656',1663.996
'0:08.660',1671.457
'0:08.664',1677.152
'0:08.668',1681.214
'0:08.672',1683.774
'0:08.676',1684.966
'0:08.680',1684.569
'0:08.684',1682.715
'0:08.688',1679.403
'0:08.691',1674.856
'0:08.695',1669.161
'0:08.699',1662.406
'0:08.703',1654.857
'0:08.707',1646.778
'0:08.711',1638.390
'0:08.715',1630.046
'0:08.719',1621.922
'0:08.723',1614.373
'0:08.727',1607.662
'0:08.730',1602.100
'0:08.734',1597.950
'0:08.738',1595.566
'0:08.742',1594.948
'0:08.746',1596.140
'0:08.750',1598.833
'0:08.754',1602.850
'0:08.758',1608.060
'0:08.762',1614.152
'0:08.766',1621.039
'0:08.770',1628.545
'0:08.773',1636.580
'0:08.777',1645.144
'0:08.781',1654.062
'0:08.785',1663.157
'0:08.789',1672.075
'0:08.793',1680.507
'0:08.797',1688.057
'0:08.801',1694.414
'0:08.805',1699.491
'0:08.809',1703.332
'0:08.813',1706.113
'0:08.816',1707.967
'0:08.820',1708.895
'0:08.824',1708.939
'0:08.828',1708.056
'0:08.832',1706.422
'0:08.836',1704.127
'0:08.840',1701.345
'0:08.844',1698.167
'0:08.848',1694.723
'0:08.852',1690.926
'0:08.855',1686.688
'0:08.859',1681.920
'0:08.863',1676.490
'0:08.867',1670.353
'0:08.871',1663.598
'0:08.875',1656.314
'0:08.879',1648.500
'0:08.883',1640.200
'0:08.887',1631.458
'0:08.891',1622.275
'0:08.895',1612.872
'0:08.898',1603.557
'0:08.902',1594.594
'0:08.906',1586.118
'0:08.910',1577.995
'0:08.914',1570.136
'0:08.918',1562.278
'0:08.922',1554.375
'0:08.926',1546.120
'0:08.930',1537.290
'0:08.934',1527.710
'0:08.938',1517.114
'0:08.941',1505.326
'0:08.945',1492.259
'0:08.949',1478.175
'0:08.953',1463.562
'0:08.957',1448.905
'0:08.961',1434.513
'0:08.965',1420.562
'0:08.969',1407.052
'0:08.973',1393.896
'0:08.977',1380.916
'0:08.980',1368.025
'0:08.984',1354.957
'0:08.988',1341.624
'0:08.992',1328.071
'0:08.996',1314.297
'0:09.000',1300.346
'0:09.004',1286.395
'0:09.008',1272.841
'0:09.012',1259.906
'0:09.016',1247.721
'0:09.020',1236.331
'0:09.023',1225.603
'0:09.027',1215.404
'0:09.031',1205.427
'0:09.035',1195.449
'0:09.039',1185.383
'0:09.043',1175.406
'0:09.047',1165.693
'0:09.051',1156.422
'0:09.055',1147.548
'0:09.059',1139.116
'0:09.063',1130.904
'0:09.066',1122.869
'0:09.070',1115.099
'0:09.074',1107.638
'0:09.078',1100.619
'0:09.082',1093.952
'0:09.086',1087.683
'0:09.090',1081.900
'0:09.094',1076.514
'0:09.098',1071.304
'0:09.102',1066.050
'0:09.105',1060.664
'0:09.109',1055.146
'0:09.113',1049.539
'0:09.117',1043.976
'0:09.121',1038.458
'0:09.125',1033.204
'0:09.129',1028.480
'0:09.133',1024.551
'0:09.137',1021.725
'0:09.141',1019.959
'0:09.145',1019.253
'0:09.148',1019.474
'0:09.152',1020.489
'0:09.156',1022.167
'0:09.160',1024.330
'0:09.164',1026.935
'0:09.168',1029.893
'0:09.172',1033.160
'0:09.176',1036.736
'0:09.180',1040.577
'0:09.184',1044.550
'0:09.188',1048.523
'0:09.191',1052.276
'0:09.195',1055.587
'0:09.199',1058.413
'0:09.203',1060.708
'0:09.207',1062.651
'0:09.211',1064.240
'0:09.215',1065.609
'0:09.219',1066.668
'0:09.223',1067.331
'0:09.227',1067.463
'0:09.230',1067.066
'0:09.234',1066.139
'0:09.238',1064.814
'0:09.242',1063.225
'0:09.246',1061.680
'0:09.250',1060.444
'0:09.254',1059.649
'0:09.258',1059.428
'0:09.262',1059.870
'0:09.266',1061.017
'0:09.270',1062.960
'0:09.273',1065.830
'0:09.277',1069.715
'0:09.281',1074.748
'0:09.285',1081.061
'0:09.289',1088.875
'0:09.293',1098.367
'0:09.297',1109.581
'0:09.301',1122.428
'0:09.305',1136.820
'0:09.309',1152.581
'0:09.313',1169.446
'0:09.316',1187.061
'0:09.320',1205.074
'0:09.324',1223.086
'0:09.328',1240.745
'0:09.332',1258.007
'0:09.336',1274.784
'0:09.340',1291.207
'0:09.344',1307.454
'0:09.348',1323.788
'0:09.352',1340.344
'0:09.355',1357.076
'0:09.359',1373.985
'0:09.363',1390.894
'0:09.367',1407.847
'0:09.371',1424.844
'0:09.375',1441.974
'0:09.379',1459.015
'0:09.383',1475.659
'0:09.387',1491.729
'0:09.391',1506.872
'0:09.395',1520.911
'0:09.398',1533.581
'0:09.402',1544.751
'0:09.406',1554.199
'0:09.410',1561.748
'0:09.414',1567.355
'0:09.418',1571.196
'0:09.422',1573.492
'0:09.426',1574.463
'0:09.430',1574.242
'0:09.434',1572.918
'0:09.438',1570.578
'0:09.441',1567.311
'0:09.445',1563.249
'0:09.449',1558.569
'0:09.453',1553.581
'0:09.457',1548.415
'0:09.461',1543.250
'0:09.465',1538.129
'0:09.469',1532.963
'0:09.473',1527.842
'0:09.477',1522.809
'0:09.480',1517.953
'0:09.484',1513.406
'0:09.488',1509.256
'0:09.492',1505.591
'0:09.496',1502.501
'0:09.500',1500.117
'0:09.504',1498.528
'0:09.508',1497.556
'0:09.512',1497.203
'0:09.516',1497.424
'0:09.520',1498.219
'0:09.523',1499.676
'0:09.527',1501.883
'0:09.531',1504.973
'0:09.535',1508.903
'0:09.539',1513.759
'0:09.543',1519.851
'0:09.547',1527.357
'0:09.551',1536.098
'0:09.555',1545.899
'0:09.559',1556.494
'0:09.563',1567.752
'0:09.566',1579.716
'0:09.570',1592.343
'0:09.574',1605.587
'0:09.578',1619.406
'0:09.582',1633.489
'0:09.586',1647.573
'0:09.590',1661.303
'0:09.594',1674.282
'0:09.598',1686.335
'0:09.602',1697.593
'0:09.605',1708.056
'0:09.609',1717.857
'0:09.613',1726.951
'0:09.617',1735.428
'0:09.621',1743.286
'0:09.625',1750.703
'0:09.629',1757.679
'0:09.633',1764.124
'0:09.637',1769.996
'0:09.641',1775.029
'0:09.645',1779.090
'0:09.648',1782.137
'0:09.652',1784.212
'0:09.656',1785.404
'0:09.660',1785.624
'0:09.664',1784.830
'0:09.668',1783.020
'0:09.672',1780.327
'0:09.676',1776.883
'0:09.680',1772.821
'0:09.684',1768.230
'0:09.688',1763.241
'0:09.691',1757.988
'0:09.695',1752.601
'0:09.699',1747.039
'0:09.703',1741.211
'0:09.707',1735.075
'0:09.711',1728.673
'0:09.715',1722.139
'0:09.719',1715.517
'0:09.723',1708.939
'0:09.727',1702.493
'0:09.730',1696.312
'0:09.734',1690.441
'0:09.738',1685.099
'0:09.742',1680.286
'0:09.746',1676.048
'0:09.750',1672.251
'0:09.754',1668.720
'0:09.758',1665.320
'0:09.762',1661.788
'0:09.766',1658.036
'0:09.770',1654.062
'0:09.773',1649.824
'0:09.777',1645.365
'0:09.781',1640.641
'0:09.785',1635.520
'0:09.789',1629.825
'0:09.793',1623.556
'0:09.797',1616.625
'0:09.801',1609.208
'0:09.805',1601.305
'0:09.809',1593.138
'0:09.813',1584.705
'0:09.816',1576.273
'0:09.820',1567.885
'0:09.824',1559.629
'0:09.828',1551.638
'0:09.832',1544.000
'0:09.836',1536.848
'0:09.840',1530.447
'0:09.844',1524.973
'0:09.848',1520.381
'0:09.852',1516.584
'0:09.855',1513.317
'0:09.859',1510.448
'0:09.863',1507.975
'0:09.867',1506.033
'0:09.871',1504.664
'0:09.875',1503.870
'0:09.879',1503.649
'0:09.883',1504.090
'0:09.887',1505.150
'0:09.891',1506.783
'0:09.895',1508.814
'0:09.898',1510.977
'0:09.902',1512.876
'0:09.906',1514.509
'0:09.910',1515.746
'0:09.914',1516.673
'0:09.918',1517.335
'0:09.922',1517.732
'0:09.926',1517.776
'0:09.930',1517.379
'0:09.934',1516.673
'0:09.938',1515.834
'0:09.941',1515.083
'0:09.945',1514.642
'0:09.949',1514.730
'0:09.953',1515.525
'0:09.957',1516.938
'0:09.961',1518.659
'0:09.965',1520.337
'0:09.969',1521.661
'0:09.973',1522.324
'0:09.977',1522.279
'0:09.980',1521.397
'0:09.984',1519.631
'0:09.988',1516.938
'0:09.992',1513.361
'0:09.996',1509.256
'0:10.000',1504.885
'0:10.004',1500.470
'0:10.008',1496.055
'0:10.012',1491.596
'0:10.016',1487.049
'0:10.020',1482.325
'0:10.023',1477.425
'0:10.027',1472.304
'0:10.031',1466.873
'0:10.035',1461.222
'0:10.039',1455.306
'0:10.043',1449.081
'0:10.047',1442.636
'0:10.051',1436.014
'0:10.055',1429.303
'0:10.059',1422.637
'0:10.063',1416.147
'0:10.066',1409.878
'0:10.070',1403.918
'0:10.074',1398.267
'0:10.078',1392.836
'0:10.082',1387.539
'0:10.086',1382.417
'0:10.090',1377.605
'0:10.094',1373.190
'0:10.098',1369.305
'0:10.102',1366.038
'0:10.105',1363.610
'0:10.109',1362.021
'0:10.113',1361.050
'0:10.117',1360.387
'0:10.121',1359.814
'0:10.125',1359.240
'0:10.129',1358.842
'0:10.133',1358.798
'0:10.137',1359.151
'0:10.141',1359.814
'0:10.145',1360.696
'0:10.148',1361.933
'0:10.152',1363.434
'0:10.156',1365.155
'0:10.160',1367.054
'0:10.164',1369.129
'0:10.168',1371.336
'0:10.172',1373.720
'0:10.176',1376.457
'0:10.180',1379.724
'0:10.184',1383.521
'0:10.188',1387.715
'0:10.191',1392.086
'0:10.195',1396.103
'0:10.199',1399.459
'0:10.203',1401.975
'0:10.207',1403.565
'0:10.211',1404.359
'0:10.215',1404.315
'0:10.219',1403.520
'0:10.223',1401.887
'0:10.227',1399.370
'0:10.230',1396.192
'0:10.234',1392.527
'0:10.238',1388.466
'0:10.242',1384.007
'0:10.246',1378.886
'0:10.250',1372.970
'0:10.254',1366.127
'0:10.258',1358.489
'0:10.262',1350.145
'0:10.266',1341.271
'0:10.270',1331.868
'0:10.273',1321.934
'0:10.277',1311.471
'0:10.281',1300.522
'0:10.285',1289.264
'0:10.289',1277.918
'0:10.293',1266.351
'0:10.297',1254.476
'0:10.301',1242.335
'0:10.305',1230.238
'0:10.309',1218.450
'0:10.313',1207.281
'0:10.316',1197.039
'0:10.320',1188.076
'0:10.324',1180.836
'0:10.328',1175.627
'0:10.332',1172.669
'0:10.336',1172.139
'0:10.340',1174.126
'0:10.344',1178.540
'0:10.348',1185.251
'0:10.352',1194.081
'0:10.355',1204.676
'0:10.359',1216.640
'0:10.363',1229.488
'0:10.367',1242.688
'0:10.371',1256.109
'0:10.375',1269.618
'0:10.379',1283.084
'0:10.383',1296.505
'0:10.387',1309.705
'0:10.391',1322.376
'0:10.395',1334.207
'0:10.398',1344.891
'0:10.402',1354.339
'0:10.406',1362.639
'0:10.410',1369.879
'0:10.414',1375.884
'0:10.418',1380.519
'0:10.422',1383.742
'0:10.426',1385.464
'0:10.430',1385.596
'0:10.434',1384.051
'0:10.438',1380.740
'0:10.441',1375.442
'0:10.445',1368.069
'0:10.449',1358.357
'0:10.453',1346.304
'0:10.457',1331.956
'0:10.461',1315.400
'0:10.465',1296.946
'0:10.469',1276.903
'0:10.473',1255.844
'0:10.477',1234.256
'0:10.480',1212.711
'0:10.484',1191.608
'0:10.488',1171.212
'0:10.492',1151.831
'0:10.496',1133.509
'0:10.500',1116.070
'0:10.504',1099.294
'0:10.508',1082.871
'0:10.512',1066.801
'0:10.516',1051.084
'0:10.520',1035.985
'0:10.523',1021.902
'0:10.527',1009.143
'0:10.531',997.841
'0:10.535',988.173
'0:10.539',980.226
'0:10.543',974.443
'0:10.547',970.955
'0:10.551',969.895
'0:10.555',971.131
'0:10.559',974.707
'0:10.563',980.712
'0:10.566',989.144
'0:10.570',999.872
'0:10.574',1012.454
'0:10.578',1026.361
'0:10.582',1041.151
'0:10.586',1056.603
'0:10.590',1072.761
'0:10.594',1089.846
'0:10.598',1108.035
'0:10.602',1127.417
'0:10.605',1147.813
'0:10.609',1169.048
'0:10.613',1190.814
'0:10.617',1212.844
'0:10.621',1234.741
'0:10.625',1256.065
'0:10.629',1276.285
'0:10.633',1295.269
'0:10.637',1313.016
'0:10.641',1329.793
'0:10.645',1345.863
'0:10.648',1361.359
'0:10.652',1376.237
'0:10.656',1390.320
'0:10.660',1403.388
'0:10.664',1415.220
'0:10.668',1425.506
'0:10.672',1434.027
'0:10.676',1440.649
'0:10.680',1445.373
'0:10.684',1448.375
'0:10.688',1449.876
'0:10.691',1450.053
'0:10.695',1448.993
'0:10.699',1446.874
'0:10.703',1443.916
'0:10.707',1440.296
'0:10.711',1436.234
'0:10.715',1431.908
'0:10.719',1427.537
'0:10.723',1423.343
'0:10.727',1419.635
'0:10.730',1416.544
'0:10.734',1414.248
'0:10.738',1412.703
'0:10.742',1411.909
'0:10.746',1411.688
'0:10.750',1411.953
'0:10.754',1412.571
'0:10.758',1413.542
'0:10.762',1414.778
'0:10.766',1416.279
'0:10.770',1418.133
'0:10.773',1420.341
'0:10.777',1422.857
'0:10.781',1425.727
'0:10.785',1428.906
'0:10.789',1432.305
'0:10.793',1436.014
'0:10.797',1440.075
'0:10.801',1444.534
'0:10.805',1449.346
'0:10.809',1454.423
'0:10.813',1459.721
'0:10.816',1465.328
'0:10.820',1471.244
'0:10.824',1477.248
'0:10.828',1483.032
'0:10.832',1488.374
'0:10.836',1493.009
'0:10.840',1496.850
'0:10.844',1499.499
'0:10.848',1500.691
'0:10.852',1500.249
'0:10.855',1498.086
'0:10.859',1494.201
'0:10.863',1488.771
'0:10.867',1481.928
'0:10.871',1473.716
'0:10.875',1464.224
'0:10.879',1453.408
'0:10.883',1441.311
'0:10.887',1428.023
'0:10.891',1413.586
'0:10.895',1398.090
'0:10.898',1381.579
'0:10.902',1364.273
'0:10.906',1346.348
'0:10.910',1328.071
'0:10.914',1309.617
'0:10.918',1291.339
'0:10.922',1273.768
'0:10.926',1257.433
'0:10.930',1242.600
'0:10.934',1229.443
'0:10.938',1217.965
'0:10.941',1208.076
'0:10.945',1199.555
'0:10.949',1192.226
'0:10.953',1185.913
'0:10.957',1180.704
'0:10.961',1176.642
'0:10.965',1173.861
'0:10.969',1172.536
'0:10.973',1172.624
'0:10.977',1173.993
'0:10.980',1176.510
'0:10.984',1179.997
'0:10.988',1184.677
'0:10.992',1190.637
'0:10.996',1197.877
'0:11.000',1206.221
'0:11.004',1215.404
'0:11.008',1225.205
'0:11.012',1235.536
'0:11.016',1246.308
'0:11.020',1257.522
'0:11.023',1269.177
'0:11.027',1281.185
'0:11.031',1293.503
'0:11.035',1306.217
'0:11.039',1319.329
'0:11.043',1332.839
'0:11.047',1346.790
'0:11.051',1361.138
'0:11.055',1375.972
'0:11.059',1391.291
'0:11.063',1407.052
'0:11.066',1423.078
'0:11.070',1439.148
'0:11.074',1454.953
'0:11.078',1470.140
'0:11.082',1484.400
'0:11.086',1497.556
'0:11.090',1509.388
'0:11.094',1519.675
'0:11.098',1528.019
'0:11.102',1533.890
'0:11.105',1536.893
'0:11.109',1536.937
'0:11.113',1533.935
'0:11.117',1527.886
'0:11.121',1518.836
'0:11.125',1506.872
'0:11.129',1492.347
'0:11.133',1475.571
'0:11.137',1456.807
'0:11.141',1436.411
'0:11.145',1414.646
'0:11.148',1391.865
'0:11.152',1368.687
'0:11.156',1345.774
'0:11.160',1323.833
'0:11.164',1303.304
'0:11.168',1284.541
'0:11.172',1267.632
'0:11.176',1252.665
'0:11.180',1239.553
'0:11.184',1228.560
'0:11.188',1219.819
'0:11.191',1213.638
'0:11.195',1210.018
'0:11.199',1208.959
'0:11.203',1210.239
'0:11.207',1213.550
'0:11.211',1218.583
'0:11.215',1224.984
'0:11.219',1232.490
'0:11.223',1241.010
'0:11.227',1250.370
'0:11.230',1260.745
'0:11.234',1272.223
'0:11.238',1284.938
'0:11.242',1298.977
'0:11.246',1314.120
'0:11.250',1330.013
'0:11.254',1346.304
'0:11.258',1362.639
'0:11.262',1378.797
'0:11.266',1394.602
'0:11.270',1409.966
'0:11.273',1424.844
'0:11.277',1439.281
'0:11.281',1453.276
'0:11.285',1466.962
'0:11.289',1480.471
'0:11.293',1493.892
'0:11.297',1507.401
'0:11.301',1520.999
'0:11.305',1534.553
'0:11.309',1547.886
'0:11.313',1560.909
'0:11.316',1573.271
'0:11.320',1584.749
'0:11.324',1595.168
'0:11.328',1604.660
'0:11.332',1613.490
'0:11.336',1621.922
'0:11.340',1630.001
'0:11.344',1637.772
'0:11.348',1645.233
'0:11.352',1652.561
'0:11.355',1659.846
'0:11.359',1667.219
'0:11.363',1674.856
'0:11.367',1682.891
'0:11.371',1691.412
'0:11.375',1700.639
'0:11.379',1710.572
'0:11.383',1721.212
'0:11.387',1732.337
'0:11.391',1743.993
'0:11.395',1756.177
'0:11.398',1769.157
'0:11.402',1783.240
'0:11.406',1798.604
'0:11.410',1815.292
'0:11.414',1833.216
'0:11.418',1852.112
'0:11.422',1871.581
'0:11.426',1891.095
'0:11.430',1910.079
'0:11.434',1928.135
'0:11.438',1944.912
'0:11.441',1960.055
'0:11.445',1973.387
'0:11.449',1984.866
'0:11.453',1994.314
'0:11.457',2001.598
'0:11.461',2006.587
'0:11.465',2009.148
'0:11.469',2009.236
'0:11.473',2006.719
'0:11.477',2001.598
'0:11.480',1993.828
'0:11.484',1983.453
'0:11.488',1970.429
'0:11.492',1954.889
'0:11.496',1937.009
'0:11.500',1916.966
'0:11.504',1895.024
'0:11.508',1871.537
'0:11.512',1846.858
'0:11.516',1821.208
'0:11.520',1794.851
'0:11.523',1768.098
'0:11.527',1740.946
'0:11.531',1713.486
'0:11.535',1685.452
'0:11.539',1656.755
'0:11.543',1627.441
'0:11.547',1597.597
'0:11.551',1567.355
'0:11.555',1536.981
'0:11.559',1506.916
'0:11.563',1477.469
'0:11.566',1448.817
'0:11.570',1421.091
'0:11.574',1394.161
'0:11.578',1367.849
'0:11.582',1341.933
'0:11.586',1316.416
'0:11.590',1291.428
'0:11.594',1267.146
'0:11.598',1243.792
'0:11.602',1221.673
'0:11.605',1200.924
'0:11.609',1181.896
'0:11.613',1164.854
'0:11.617',1149.932
'0:11.621',1137.262
'0:11.625',1126.754
'0:11.629',1118.145
'0:11.633',1111.391
'0:11.637',1106.490
'0:11.641',1103.223
'0:11.645',1101.413
'0:11.648',1100.795
'0:11.652',1101.148
'0:11.656',1102.340
'0:11.660',1104.327
'0:11.664',1107.108
'0:11.668',1110.552
'0:11.672',1114.746
'0:11.676',1119.735
'0:11.680',1125.695
'0:11.684',1132.626
'0:11.688',1140.484
'0:11.691',1148.961
'0:11.695',1157.746
'0:11.699',1166.532
'0:11.703',1174.964
'0:11.707',1182.955
'0:11.711',1190.107
'0:11.715',1195.935
'0:11.719',1199.952
'0:11.723',1202.116
'0:11.727',1202.557
'0:11.730',1201.674
'0:11.734',1200.041
'0:11.738',1198.054
'0:11.742',1195.935
'0:11.746',1193.772
'0:11.750',1191.343
'0:11.754',1188.385
'0:11.758',1184.500
'0:11.762',1179.379
'0:11.766',1172.978
'0:11.770',1165.472
'0:11.773',1157.084
'0:11.777',1148.343
'0:11.781',1139.557
'0:11.785',1131.081
'0:11.789',1123.090
'0:11.793',1115.717
'0:11.797',1109.095
'0:11.801',1103.267
'0:11.805',1098.235
'0:11.809',1093.952
'0:11.813',1090.420
'0:11.816',1087.639
'0:11.820',1085.652
'0:11.824',1084.284
'0:11.828',1083.533
'0:11.832',1083.312
'0:11.836',1083.754
'0:11.840',1084.858
'0:11.844',1086.756
'0:11.848',1089.493
'0:11.852',1093.069
'0:11.855',1097.396
'0:11.859',1102.384
'0:11.863',1107.859
'0:11.867',1113.731
'0:11.871',1119.735
'0:11.875',1125.651
'0:11.879',1131.213
'0:11.883',1136.467
'0:11.887',1141.323
'0:11.891',1145.782
'0:11.895',1149.756
'0:11.898',1153.288
'0:11.902',1156.378
'0:11.906',1159.292
'0:11.910',1162.294
'0:11.914',1165.649
'0:11.918',1169.402
'0:11.922',1173.684
'0:11.926',1178.673
'0:11.930',1184.589
'0:11.934',1191.652
'0:11.938',1200.041
'0:11.941',1209.665
'0:11.945',1220.305
'0:11.949',1231.607
'0:11.953',1243.306
'0:11.957',1255.359
'0:11.961',1267.852
'0:11.965',1280.920
'0:11.969',1294.739
'0:11.973',1309.352
'0:11.977',1324.936
'0:11.980',1341.669
'0:11.984',1359.460
'0:11.988',1378.135
'0:11.992',1397.295
'0:11.996',1416.544
'0:12.000',1435.528
'0:12.004',1454.114
'0:12.008',1471.906
'0:12.012',1488.638
'0:12.016',1504.134
'0:12.020',1518.439
'0:12.023',1531.860
'0:12.027',1544.839
'0:12.031',1557.775
'0:12.035',1571.063
'0:12.039',1584.794
'0:12.043',1599.142
'0:12.047',1614.020
'0:12.051',1629.383
'0:12.055',1645.056
'0:12.059',1660.905
'0:12.063',1676.534
'0:12.066',1691.544
'0:12.070',1705.319
'0:12.074',1717.239
'0:12.078',1726.686
'0:12.082',1733.088
'0:12.086',1736.090
'0:12.090',1735.207
'0:12.094',1730.130
'0:12.098',1720.638
'0:12.102',1706.908
'0:12.105',1689.028
'0:12.109',1667.263
'0:12.113',1641.745
'0:12.117',1612.828
'0:12.121',1580.864
'0:12.125',1546.384
'0:12.129',1509.918
'0:12.133',1472.039
'0:12.137',1433.365
'0:12.141',1394.293
'0:12.145',1355.134
'0:12.148',1316.107
'0:12.152',1277.124
'0:12.156',1238.008
'0:12.160',1198.716
'0:12.164',1159.248
'0:12.168',1119.867
'0:12.172',1080.708
'0:12.176',1041.901
'0:12.180',1003.625
'0:12.184',966.054
'0:12.188',929.544
'0:12.191',894.490
'0:12.195',861.202
'0:12.199',829.901
'0:12.203',801.072
'0:12.207',774.892
'0:12.211',751.537
'0:12.215',731.097
'0:12.219',713.526
'0:12.223',698.824
'0:12.227',686.816
'0:12.230',677.457
'0:12.234',670.746
'0:12.238',666.773
'0:12.242',665.492
'0:12.246',666.728
'0:12.250',670.349
'0:12.254',676.265
'0:12.258',684.476
'0:12.262',695.072
'0:12.266',708.228
'0:12.270',724.077
'0:12.273',742.796
'0:12.277',764.429
'0:12.281',789.064
'0:12.285',816.347
'0:12.289',845.838
'0:12.293',876.875
'0:12.297',908.617
'0:12.301',940.492
'0:12.305',971.882
'0:12.309',1002.565
'0:12.313',1032.233
'0:12.316',1060.885
'0:12.320',1088.478
'0:12.324',1115.408
'0:12.328',1142.074
'0:12.332',1168.960
'0:12.336',1196.376
'0:12.340',1224.411
'0:12.344',1252.930
'0:12.348',1281.892
'0:12.352',1311.030
'0:12.355',1340.079
'0:12.359',1368.864
'0:12.363',1397.075
'0:12.367',1424.403
'0:12.371',1450.318
'0:12.375',1474.423
'0:12.379',1496.364
'0:12.383',1515.834
'0:12.387',1532.698
'0:12.391',1546.561
'0:12.395',1557.289
'0:12.398',1564.706
'0:12.402',1568.679
'0:12.406',1569.297
'0:12.410',1566.693
'0:12.414',1561.086
'0:12.418',1552.786
'0:12.422',1542.146
'0:12.426',1529.564
'0:12.430',1515.525
'0:12.434',1500.382
'0:12.438',1484.488
'0:12.441',1468.507
'0:12.445',1452.922
'0:12.449',1438.177
'0:12.453',1424.579
'0:12.457',1412.306
'0:12.461',1401.578
'0:12.465',1392.704
'0:12.469',1385.949
'0:12.473',1381.402
'0:12.477',1379.195
'0:12.480',1379.283
'0:12.484',1381.579
'0:12.488',1385.861
'0:12.492',1391.821
'0:12.496',1399.326
'0:12.500',1408.200
'0:12.504',1418.487
'0:12.508',1430.407
'0:12.512',1444.049
'0:12.516',1459.677
'0:12.520',1477.204
'0:12.523',1496.541
'0:12.527',1517.423
'0:12.531',1539.630
'0:12.535',1562.896
'0:12.539',1586.824
'0:12.543',1610.797
'0:12.547',1634.196
'0:12.551',1656.535
'0:12.555',1677.638
'0:12.559',1697.548
'0:12.563',1716.356
'0:12.566',1734.147
'0:12.570',1750.968
'0:12.574',1767.038
'0:12.578',1782.446
'0:12.582',1797.412
'0:12.586',1812.069
'0:12.590',1826.506
'0:12.594',1840.766
'0:12.598',1854.672
'0:12.602',1868.049
'0:12.605',1880.808
'0:12.609',1892.861
'0:12.613',1904.163
'0:12.617',1914.714
'0:12.621',1924.294
'0:12.625',1932.683
'0:12.629',1939.614
'0:12.633',1944.779
'0:12.637',1947.914
'0:12.641',1948.797
'0:12.645',1947.252
'0:12.648',1943.366
'0:12.652',1937.142
'0:12.656',1928.709
'0:12.660',1918.025
'0:12.664',1905.178
'0:12.668',1890.079
'0:12.672',1872.729
'0:12.676',1853.171
'0:12.680',1831.583
'0:12.684',1808.096
'0:12.688',1783.064
'0:12.691',1756.796
'0:12.695',1729.688
'0:12.699',1702.316
'0:12.703',1675.077
'0:12.707',1648.235
'0:12.711',1621.878
'0:12.715',1595.919
'0:12.719',1570.401
'0:12.723',1545.325
'0:12.727',1520.778
'0:12.730',1496.982
'0:12.734',1473.893
'0:12.738',1451.554
'0:12.742',1429.965
'0:12.746',1409.127
'0:12.750',1389.437
'0:12.754',1371.248
'0:12.758',1355.001
'0:12.762',1340.786
'0:12.766',1328.777
'0:12.770',1318.888
'0:12.773',1311.118
'0:12.777',1305.290
'0:12.781',1301.361
'0:12.785',1299.065
'0:12.789',1298.447
'0:12.793',1299.330
'0:12.797',1301.714
'0:12.801',1305.423
'0:12.805',1310.279
'0:12.809',1316.107
'0:12.813',1322.641
'0:12.816',1329.748
'0:12.820',1337.298
'0:12.824',1345.289
'0:12.828',1353.589
'0:12.832',1362.242
'0:12.836',1371.292
'0:12.840',1380.961
'0:12.844',1391.247
'0:12.848',1402.063
'0:12.852',1413.056
'0:12.855',1423.475
'0:12.859',1432.570
'0:12.863',1439.810
'0:12.867',1444.932
'0:12.871',1447.934
'0:12.875',1449.081
'0:12.879',1448.728
'0:12.883',1447.051
'0:12.887',1444.269
'0:12.891',1440.517
'0:12.895',1436.014
'0:12.898',1430.937
'0:12.902',1425.418
'0:12.906',1419.546
'0:12.910',1413.321
'0:12.914',1406.787
'0:12.918',1399.989
'0:12.922',1392.925
'0:12.926',1385.596
'0:12.930',1377.914
'0:12.934',1369.747
'0:12.938',1361.094
'0:12.941',1351.955
'0:12.945',1342.419
'0:12.949',1332.751
'0:12.953',1323.082
'0:12.957',1313.546
'0:12.961',1304.319
'0:12.965',1295.489
'0:12.969',1287.322
'0:12.973',1279.817
'0:12.977',1273.062
'0:12.980',1267.058
'0:12.984',1261.848
'0:12.988',1257.389
'0:12.992',1253.681
'0:12.996',1250.900
'0:13.000',1249.134
'0:13.004',1248.383
'0:13.008',1248.471
'0:13.012',1249.354
'0:13.016',1251.032
'0:13.020',1253.857
'0:13.023',1258.052
'0:13.027',1263.747
'0:13.031',1270.855
'0:13.035',1279.110
'0:13.039',1288.161
'0:13.043',1297.653
'0:13.047',1307.409
'0:13.051',1317.564
'0:13.055',1328.071
'0:13.059',1338.975
'0:13.063',1350.189
'0:13.066',1361.844
'0:13.070',1374.073
'0:13.074',1387.141
'0:13.078',1401.092
'0:13.082',1416.103
'0:13.086',1432.349
'0:13.090',1449.788
'0:13.094',1468.463
'0:13.098',1488.197
'0:13.102',1508.903
'0:13.105',1530.359
'0:13.109',1552.433
'0:13.113',1574.684
'0:13.117',1596.802
'0:13.121',1618.390
'0:13.125',1639.052
'0:13.129',1658.433
'0:13.133',1676.181
'0:13.137',1692.030
'0:13.141',1705.848
'0:13.145',1717.415
'0:13.148',1726.510
'0:13.152',1732.955
'0:13.156',1736.664
'0:13.160',1737.547
'0:13.164',1735.428
'0:13.168',1729.953
'0:13.172',1720.594
'0:13.176',1706.996
'0:13.180',1688.807
'0:13.184',1665.717
'0:13.188',1637.595
'0:13.191',1604.572
'0:13.195',1567.046
'0:13.199',1525.546
'0:13.203',1480.648
'0:13.207',1432.879
'0:13.211',1382.727
'0:13.215',1331.029
'0:13.219',1278.581
'0:13.223',1226.353
'0:13.227',1174.964
'0:13.230',1125.253
'0:13.234',1077.970
'0:13.238',1033.955
'0:13.242',993.868
'0:13.246',958.108
'0:13.250',926.983
'0:13.254',900.980
'0:13.258',880.407
'0:13.262',865.617
'0:13.266',856.787
'0:13.270',853.829
'0:13.273',856.390
'0:13.277',863.895
'0:13.281',875.859
'0:13.285',891.929
'0:13.289',911.928
'0:13.293',935.769
'0:13.297',963.317
'0:13.301',994.574
'0:13.305',1029.363
'0:13.309',1067.551
'0:13.313',1108.918
'0:13.316',1153.243
'0:13.320',1200.306
'0:13.324',1249.708
'0:13.328',1301.008
'0:13.332',1353.500
'0:13.336',1406.567
'0:13.340',1459.368
'0:13.344',1511.066
'0:13.348',1560.777
'0:13.352',1607.618
'0:13.355',1650.707
'0:13.359',1689.558
'0:13.363',1723.773
'0:13.367',1753.087
'0:13.371',1777.369
'0:13.375',1796.706
'0:13.379',1811.186
'0:13.383',1820.943
'0:13.387',1825.932
'0:13.391',1826.285
'0:13.395',1822.091
'0:13.398',1813.659
'0:13.402',1801.209
'0:13.406',1785.050
'0:13.410',1765.581
'0:13.414',1743.154
'0:13.418',1718.166
'0:13.422',1690.926
'0:13.426',1661.788
'0:13.430',1631.193
'0:13.434',1599.495
'0:13.438',1567.178
'0:13.441',1534.641
'0:13.445',1502.369
'0:13.449',1470.802
'0:13.453',1440.296
'0:13.457',1410.981
'0:13.461',1382.947
'0:13.465',1356.282
'0:13.469',1331.073
'0:13.473',1307.321
'0:13.477',1284.982
'0:13.480',1264.056
'0:13.484',1244.542
'0:13.488',1226.397
'0:13.492',1209.533
'0:13.496',1194.081
'0:13.500',1180.130
'0:13.504',1167.768
'0:13.508',1157.173
'0:13.512',1148.255
'0:13.516',1141.014
'0:13.520',1135.540
'0:13.523',1131.699
'0:13.527',1129.359
'0:13.531',1128.211
'0:13.535',1127.902
'0:13.539',1128.344
'0:13.543',1129.580
'0:13.547',1131.831
'0:13.551',1135.275
'0:13.555',1139.911
'0:13.559',1145.694
'0:13.563',1152.360
'0:13.566',1159.821
'0:13.570',1168.121
'0:13.574',1177.260
'0:13.578',1187.105
'0:13.582',1197.568
'0:13.586',1208.429
'0:13.590',1219.598
'0:13.594',1230.856
'0:13.598',1241.937
'0:13.602',1252.798
'0:13.605',1263.217
'0:13.609',1273.062
'0:13.613',1282.245
'0:13.617',1290.677
'0:13.621',1298.403
'0:13.625',1305.290
'0:13.629',1311.294
'0:13.633',1316.372
'0:13.637',1320.698
'0:13.641',1324.407
'0:13.645',1327.585
'0:13.648',1330.322
'0:13.652',1332.706
'0:13.656',1334.737
'0:13.660',1336.415
'0:13.664',1337.607
'0:13.668',1338.181
'0:13.672',1338.181
'0:13.676',1337.739
'0:13.680',1337.254
'0:13.684',1336.856
'0:13.688',1336.680
'0:13.691',1336.591
'0:13.695',1336.636
'0:13.699',1336.768
'0:13.703',1336.856
'0:13.707',1336.680
'0:13.711',1335.973
'0:13.715',1334.561
'0:13.719',1332.662
'0:13.723',1330.587
'0:13.727',1328.733
'0:13.730',1327.409
'0:13.734',1326.835
'0:13.738',1327.320
'0:13.742',1328.821
'0:13.746',1331.250
'0:13.750',1334.340
'0:13.754',1337.960
'0:13.758',1342.198
'0:13.762',1346.878
'0:13.766',1351.955
'0:13.770',1357.430
'0:13.773',1363.301
'0:13.777',1369.614
'0:13.781',1376.546
'0:13.785',1384.051
'0:13.789',1392.130
'0:13.793',1400.827
'0:13.797',1410.143
'0:13.801',1420.076
'0:13.805',1430.451
'0:13.809',1441.002
'0:13.813',1451.466
'0:13.816',1461.620
'0:13.820',1471.244
'0:13.824',1480.383
'0:13.828',1489.036
'0:13.832',1497.247
'0:13.836',1505.194
'0:13.840',1512.832
'0:13.844',1520.160
'0:13.848',1527.047
'0:13.852',1533.449
'0:13.855',1539.232
'0:13.859',1544.045
'0:13.863',1547.797
'0:13.867',1550.314
'0:13.871',1551.682
'0:13.875',1552.124
'0:13.879',1551.859
'0:13.883',1551.329
'0:13.887',1550.711
'0:13.891',1550.049
'0:13.895',1549.519
'0:13.898',1549.210
'0:13.902',1549.166
'0:13.906',1549.298
'0:13.910',1549.519
'0:13.914',1549.960
'0:13.918',1550.888
'0:13.922',1552.609
'0:13.926',1555.258
'0:13.930',1559.011
'0:13.934',1563.956
'0:13.938',1570.225
'0:13.941',1577.818
'0:13.945',1586.780
'0:13.949',1596.890
'0:13.953',1608.104
'0:13.957',1620.112
'0:13.961',1632.739
'0:13.965',1645.586
'0:13.969',1658.477
'0:13.973',1671.236
'0:13.977',1683.642
'0:13.980',1695.385
'0:13.984',1706.202
'0:13.988',1715.870
'0:13.992',1724.346
'0:13.996',1731.499
'0:14.000',1737.105
'0:14.004',1741.035
'0:14.008',1743.154
'0:14.012',1743.419
'0:14.016',1741.873
'0:14.020',1738.474
'0:14.023',1733.176
'0:14.027',1725.848
'0:14.031',1716.444
'0:14.035',1705.098
'0:14.039',1691.897
'0:14.043',1677.064
'0:14.047',1660.729
'0:14.051',1643.467
'0:14.055',1625.675
'0:14.059',1607.795
'0:14.063',1590.091
'0:14.066',1572.741
'0:14.070',1555.611
'0:14.074',1538.526
'0:14.078',1521.220
'0:14.082',1503.384
'0:14.086',1484.798
'0:14.090',1465.328
'0:14.094',1445.020
'0:14.098',1424.094
'0:14.102',1402.902
'0:14.105',1381.976
'0:14.109',1361.756
'0:14.113',1342.419
'0:14.117',1324.009
'0:14.121',1306.394
'0:14.125',1289.750
'0:14.129',1274.386
'0:14.133',1260.568
'0:14.137',1248.427
'0:14.141',1237.832
'0:14.145',1228.737
'0:14.148',1220.879
'0:14.152',1214.080
'0:14.156',1208.164
'0:14.160',1203.087
'0:14.164',1198.804
'0:14.168',1195.361
'0:14.172',1192.668
'0:14.176',1190.814
'0:14.180',1189.798
'0:14.184',1189.401
'0:14.188',1189.622
'0:14.191',1190.372
'0:14.195',1191.564
'0:14.199',1193.109
'0:14.203',1195.052
'0:14.207',1197.259
'0:14.211',1199.643
'0:14.215',1202.204
'0:14.219',1204.809
'0:14.223',1207.237
'0:14.227',1209.268
'0:14.230',1210.504
'0:14.234',1210.636
'0:14.238',1209.444
'0:14.242',1206.928
'0:14.246',1203.087
'0:14.250',1198.010
'0:14.254',1191.697
'0:14.258',1184.191
'0:14.262',1175.406
'0:14.266',1165.428
'0:14.270',1154.170
'0:14.273',1141.809
'0:14.277',1128.520
'0:14.281',1114.614
'0:14.285',1100.486
'0:14.289',1086.535
'0:14.293',1072.893
'0:14.297',1059.605
'0:14.301',1046.404
'0:14.305',1033.072
'0:14.309',1019.474
'0:14.313',1005.788
'0:14.316',992.367
'0:14.320',979.696
'0:14.324',968.173
'0:14.328',957.931
'0:14.332',949.013
'0:14.336',941.420
'0:14.340',935.106
'0:14.344',930.029
'0:14.348',926.012
'0:14.352',922.877
'0:14.355',920.626
'0:14.359',919.257
'0:14.363',918.551
'0:14.367',918.639
'0:14.371',919.610
'0:14.375',921.774
'0:14.379',925.350
'0:14.383',930.647
'0:14.387',938.020
'0:14.391',947.556
'0:14.395',959.123
'0:14.398',972.412
'0:14.402',987.069
'0:14.406',1002.918
'0:14.410',1019.827
'0:14.414',1037.884
'0:14.418',1057.132
'0:14.422',1077.485
'0:14.426',1099.029
'0:14.430',1121.766
'0:14.434',1145.694
'0:14.438',1170.594
'0:14.441',1196.200
'0:14.445',1222.247
'0:14.449',1248.516
'0:14.453',1274.916
'0:14.457',1301.361
'0:14.461',1327.674
'0:14.465',1353.589
'0:14.469',1378.753
'0:14.473',1402.682
'0:14.477',1424.888
'0:14.480',1445.196
'0:14.484',1463.562
'0:14.488',1480.250
'0:14.492',1495.305
'0:14.496',1508.638
'0:14.500',1519.851
'0:14.504',1528.460
'0:14.508',1534.111
'0:14.512',1536.760
'0:14.516',1536.584
'0:14.520',1533.935
'0:14.523',1529.167
'0:14.527',1522.412
'0:14.531',1513.847
'0:14.535',1503.605
'0:14.539',1492.170
'0:14.543',1479.941
'0:14.547',1467.359
'0:14.551',1454.777
'0:14.555',1442.415
'0:14.559',1430.583
'0:14.563',1419.546
'0:14.566',1409.613
'0:14.570',1400.960
'0:14.574',1393.808
'0:14.578',1388.201
'0:14.582',1384.360
'0:14.586',1382.506
'0:14.590',1382.947
'0:14.594',1386.126
'0:14.598',1392.351
'0:14.602',1402.108
'0:14.605',1415.617
'0:14.609',1433.011
'0:14.613',1454.114
'0:14.617',1478.793
'0:14.621',1506.563
'0:14.625',1536.804
'0:14.629',1568.944
'0:14.633',1602.365
'0:14.637',1636.535
'0:14.641',1670.883
'0:14.645',1704.789
'0:14.648',1737.547
'0:14.652',1768.627
'0:14.656',1797.589
'0:14.660',1823.901
'0:14.664',1847.035
'0:14.668',1866.637
'0:14.672',1882.486
'0:14.676',1894.627
'0:14.680',1903.103
'0:14.684',1908.224
'0:14.688',1910.211
'0:14.691',1909.461
'0:14.695',1906.370
'0:14.699',1901.293
'0:14.703',1894.450
'0:14.707',1885.885
'0:14.711',1875.643
'0:14.715',1863.855
'0:14.719',1850.611
'0:14.723',1836.086
'0:14.727',1820.457
'0:14.730',1803.769
'0:14.734',1786.154
'0:14.738',1767.700
'0:14.742',1748.540
'0:14.746',1728.805
'0:14.750',1708.586
'0:14.754',1687.924
'0:14.758',1666.954
'0:14.762',1645.807
'0:14.766',1624.660
'0:14.770',1603.645
'0:14.773',1583.028
'0:14.777',1562.940
'0:14.781',1543.647
'0:14.785',1525.458
'0:14.789',1508.461
'0:14.793',1492.568
'0:14.797',1477.601
'0:14.801',1463.474
'0:14.805',1450.185
'0:14.809',1437.912
'0:14.813',1426.742
'0:14.816',1417.074
'0:14.820',1409.171
'0:14.824',1403.211
'0:14.828',1399.150
'0:14.832',1396.898
'0:14.836',1396.368
'0:14.840',1397.340
'0:14.844',1399.591
'0:14.848',1402.902
'0:14.852',1406.920
'0:14.855',1411.202
'0:14.859',1415.529
'0:14.863',1419.546
'0:14.867',1422.946
'0:14.871',1425.462
'0:14.875',1426.831
'0:14.879',1427.007
'0:14.883',1426.345
'0:14.887',1425.109
'0:14.891',1423.387
'0:14.895',1421.445
'0:14.898',1419.326
'0:14.902',1417.206
'0:14.906',1414.999
'0:14.910',1412.659
'0:14.914',1410.098
'0:14.918',1407.494
'0:14.922',1405.154
'0:14.926',1403.432
'0:14.930',1402.593
'0:14.934',1402.549
'0:14.938',1402.946
'0:14.941',1403.476
'0:14.945',1403.918
'0:14.949',1404.094
'0:14.953',1404.006
'0:14.957',1403.653
'0:14.961',1403.167
'0:14.965',1402.549
'0:14.969',1401.754
'0:14.973',1400.871
'0:14.977',1399.944
'0:14.980',1399.106
'0:14.984',1398.311
'0:14.988',1397.516
'0:14.992',1396.633
'0:14.996',1395.794
'0:15.000',1395.132
'0:15.004',1394.911
'0:15.008',1395.353
'0:15.012',1396.677
'0:15.016',1398.929
'0:15.020',1402.152
'0:15.023',1406.125
'0:15.027',1410.319
'0:15.031',1414.425
'0:15.035',1418.089
'0:15.039',1421.445
'0:15.043',1424.535
'0:15.047',1427.625
'0:15.051',1430.760
'0:15.055',1433.894
'0:15.059',1436.941
'0:15.063',1439.810
'0:15.066',1442.415
'0:15.070',1444.755
'0:15.074',1446.697
'0:15.078',1448.110
'0:15.082',1448.949
'0:15.086',1449.302
'0:15.090',1449.081
'0:15.094',1448.419
'0:15.098',1447.360
'0:15.102',1445.947
'0:15.105',1444.181
'0:15.109',1442.106
'0:15.113',1439.810
'0:15.117',1437.294
'0:15.121',1434.513
'0:15.125',1431.510
'0:15.129',1428.243
'0:15.133',1424.932
'0:15.137',1421.665
'0:15.141',1418.487
'0:15.145',1415.529
'0:15.148',1412.792
'0:15.152',1410.540
'0:15.156',1409.039
'0:15.160',1408.244
'0:15.164',1408.288
'0:15.168',1409.304
'0:15.172',1411.600
'0:15.176',1415.220
'0:15.180',1420.253
'0:15.184',1426.566
'0:15.188',1434.248
'0:15.191',1443.166
'0:15.195',1453.099
'0:15.199',1463.650
'0:15.203',1474.334
'0:15.207',1484.798
'0:15.211',1494.643
'0:15.215',1503.605
'0:15.219',1511.640
'0:15.223',1518.792
'0:15.227',1525.149
'0:15.230',1530.800
'0:15.234',1535.921
'0:15.238',1540.822
'0:15.242',1545.634
'0:15.246',1550.579
'0:15.250',1555.744
'0:15.254',1561.130
'0:15.258',1566.340
'0:15.262',1571.063
'0:15.266',1575.081
'0:15.270',1578.304
'0:15.273',1580.732
'0:15.277',1582.410
'0:15.281',1583.425
'0:15.285',1583.513
'0:15.289',1582.586
'0:15.293',1580.688
'0:15.297',1577.774
'0:15.301',1573.977
'0:15.305',1569.209
'0:15.309',1563.382
'0:15.313',1556.494
'0:15.316',1548.548
'0:15.320',1539.674
'0:15.324',1529.917
'0:15.328',1519.410
'0:15.332',1508.196
'0:15.336',1496.320
'0:15.340',1483.782
'0:15.344',1470.582
'0:15.348',1456.675
'0:15.352',1442.062
'0:15.355',1426.698
'0:15.359',1410.584
'0:15.363',1393.808
'0:15.367',1376.634
'0:15.371',1359.504
'0:15.375',1342.861
'0:15.379',1327.100
'0:15.383',1312.442
'0:15.387',1299.330
'0:15.391',1287.984
'0:15.395',1278.669
'0:15.398',1271.517
'0:15.402',1266.616
'0:15.406',1264.012
'0:15.410',1263.526
'0:15.414',1265.027
'0:15.418',1268.117
'0:15.422',1272.400
'0:15.426',1277.433
'0:15.430',1282.598
'0:15.434',1287.543
'0:15.438',1292.002
'0:15.441',1296.107
'0:15.445',1299.992
'0:15.449',1303.745
'0:15.453',1307.454
'0:15.457',1311.074
'0:15.461',1314.341
'0:15.465',1316.901
'0:15.469',1318.314
'0:15.473',1318.226
'0:15.477',1316.416
'0:15.480',1312.840
'0:15.484',1307.498
'0:15.488',1300.478
'0:15.492',1291.825
'0:15.496',1281.715
'0:15.500',1270.237
'0:15.504',1257.654
'0:15.508',1244.321
'0:15.512',1230.724
'0:15.516',1217.303
'0:15.520',1204.235
'0:15.523',1191.741
'0:15.527',1179.821
'0:15.531',1168.651
'0:15.535',1158.320
'0:15.539',1148.873
'0:15.543',1140.352
'0:15.547',1132.935
'0:15.551',1126.843
'0:15.555',1122.030
'0:15.559',1118.587
'0:15.563',1116.335
'0:15.566',1115.011
'0:15.570',1114.393
'0:15.574',1114.216
'0:15.578',1114.305
'0:15.582',1114.569
'0:15.586',1115.099
'0:15.590',1116.115
'0:15.594',1117.836
'0:15.598',1120.353
'0:15.602',1123.664
'0:15.605',1127.681
'0:15.609',1132.361
'0:15.613',1137.527
'0:15.617',1143.045
'0:15.621',1148.784
'0:15.625',1154.612
'0:15.629',1160.528
'0:15.633',1166.664
'0:15.637',1173.331
'0:15.641',1180.704
'0:15.645',1189.004
'0:15.648',1198.275
'0:15.652',1208.605
'0:15.656',1220.040
'0:15.660',1232.534
'0:15.664',1245.690
'0:15.668',1259.067
'0:15.672',1272.179
'0:15.676',1284.629
'0:15.680',1296.372
'0:15.684',1307.409
'0:15.688',1317.784
'0:15.691',1327.541
'0:15.695',1336.636
'0:15.699',1345.068
'0:15.703',1352.838
'0:15.707',1359.902
'0:15.711',1366.303
'0:15.715',1371.998
'0:15.719',1376.987
'0:15.723',1381.270
'0:15.727',1384.890
'0:15.730',1387.936
'0:15.734',1390.541
'0:15.738',1392.660
'0:15.742',1394.338
'0:15.746',1395.574
'0:15.750',1396.457
'0:15.754',1397.119
'0:15.758',1397.649
'0:15.762',1398.046
'0:15.766',1398.399
'0:15.770',1398.841
'0:15.773',1399.415
'0:15.777',1400.165
'0:15.781',1401.136
'0:15.785',1402.284
'0:15.789',1403.609
'0:15.793',1405.066
'0:15.797',1406.611
'0:15.801',1408.156
'0:15.805',1409.569
'0:15.809',1410.805
'0:15.813',1411.776
'0:15.816',1412.659
'0:15.820',1413.630
'0:15.824',1415.131
'0:15.828',1417.383
'0:15.832',1420.562
'0:15.836',1424.888
'0:15.840',1430.451
'0:15.844',1437.250
'0:15.848',1445.152
'0:15.852',1453.982
'0:15.855',1463.518
'0:15.859',1473.540
'0:15.863',1484.135
'0:15.867',1495.526
'0:15.871',1507.799
'0:15.875',1520.867
'0:15.879',1534.332
'0:15.883',1547.753
'0:15.887',1560.512
'0:15.891',1571.991
'0:15.895',1581.747
'0:15.898',1589.473
'0:15.902',1595.036
'0:15.906',1598.435
'0:15.910',1599.848
'0:15.914',1599.495
'0:15.918',1597.552
'0:15.922',1594.241
'0:15.926',1589.694
'0:15.930',1583.911
'0:15.934',1576.891
'0:15.938',1568.812
'0:15.941',1559.761
'0:15.945',1549.784
'0:15.949',1538.791
'0:15.953',1526.783
'0:15.957',1513.582
'0:15.961',1499.102
'0:15.965',1483.296
'0:15.969',1466.299
'0:15.973',1448.419
'0:15.977',1430.009
'0:15.980',1411.379
'0:15.984',1392.792
'0:15.988',1374.427
'0:15.992',1356.193
'0:15.996',1338.048
'0:16.000',1320.080
'0:16.004',1302.377
'0:16.008',1285.203
'0:16.012',1268.735
'0:16.016',1253.107
'0:16.020',1238.450
'0:16.023',1224.720
'0:16.027',1211.872
'0:16.031',1199.908
'0:16.035',1188.871
'0:16.039',1178.849
'0:16.043',1170.020
'0:16.047',1162.603
'0:16.051',1156.864
'0:16.055',1152.890
'0:16.059',1150.815
'0:16.063',1150.639
'0:16.066',1152.184
'0:16.070',1155.451
'0:16.074',1160.307
'0:16.078',1166.709
'0:16.082',1174.435
'0:16.086',1183.441
'0:16.090',1193.418
'0:16.094',1204.146
'0:16.098',1215.184
'0:16.102',1226.353
'0:16.105',1237.390
'0:16.109',1248.339
'0:16.113',1259.067
'0:16.117',1269.398
'0:16.121',1279.110
'0:16.125',1287.940
'0:16.129',1295.710
'0:16.133',1302.244
'0:16.137',1307.454
'0:16.141',1311.162
'0:16.145',1313.414
'0:16.148',1314.120
'0:16.152',1313.281
'0:16.156',1311.074
'0:16.160',1307.763
'0:16.164',1303.613
'0:16.168',1298.845
'0:16.172',1293.768
'0:16.176',1288.646
'0:16.180',1283.702
'0:16.184',1279.066
'0:16.188',1274.828
'0:16.191',1270.722
'0:16.195',1266.616
'0:16.199',1262.378
'0:16.203',1257.787
'0:16.207',1252.930
'0:16.211',1248.030
'0:16.215',1243.527
'0:16.219',1239.818
'0:16.223',1237.214
'0:16.227',1235.801
'0:16.230',1235.536
'0:16.234',1236.375
'0:16.238',1238.229
'0:16.242',1241.054
'0:16.246',1244.630
'0:16.250',1248.692
'0:16.254',1252.886
'0:16.258',1256.992
'0:16.262',1260.745
'0:16.266',1263.923
'0:16.270',1266.351
'0:16.273',1268.206
'0:16.277',1269.751
'0:16.281',1271.429
'0:16.285',1273.680
'0:16.289',1276.726
'0:16.293',1280.744
'0:16.297',1285.733
'0:16.301',1291.339
'0:16.305',1297.123
'0:16.309',1302.597
'0:16.313',1307.542
'0:16.316',1311.868
'0:16.320',1315.621
'0:16.324',1318.711
'0:16.328',1321.272
'0:16.332',1323.524
'0:16.336',1325.687
'0:16.340',1327.850
'0:16.344',1330.190
'0:16.348',1332.751
'0:16.352',1335.664
'0:16.355',1339.108
'0:16.359',1343.081
'0:16.363',1347.584
'0:16.367',1352.397
'0:16.371',1357.297
'0:16.375',1362.065
'0:16.379',1366.436
'0:16.383',1370.321
'0:16.387',1373.632
'0:16.391',1376.457
'0:16.395',1379.018
'0:16.398',1381.667
'0:16.402',1384.581
'0:16.406',1387.892
'0:16.410',1391.821
'0:16.414',1396.368
'0:16.418',1401.534
'0:16.422',1407.141
'0:16.426',1413.277
'0:16.430',1419.988
'0:16.434',1427.228
'0:16.438',1434.910
'0:16.441',1442.857
'0:16.445',1451.112
'0:16.449',1459.633
'0:16.453',1468.463
'0:16.457',1477.778
'0:16.461',1487.755
'0:16.465',1498.528
'0:16.469',1510.095
'0:16.473',1522.456
'0:16.477',1535.480
'0:16.480',1548.989
'0:16.484',1562.631
'0:16.488',1576.140
'0:16.492',1589.208
'0:16.496',1601.747
'0:16.500',1613.667
'0:16.504',1625.101
'0:16.508',1636.050
'0:16.512',1646.292
'0:16.516',1655.652
'0:16.520',1663.907
'0:16.523',1671.015
'0:16.527',1676.755
'0:16.531',1680.905
'0:16.535',1683.333
'0:16.539',1683.995
'0:16.543',1682.803
'0:16.547',1679.757
'0:16.551',1674.944
'0:16.555',1668.455
'0:16.559',1660.464
'0:16.563',1651.237
'0:16.566',1640.818
'0:16.570',1629.560
'0:16.574',1617.596
'0:16.578',1605.323
'0:16.582',1593.049
'0:16.586',1581.041
'0:16.590',1569.695
'0:16.594',1559.276
'0:16.598',1549.916
'0:16.602',1541.572
'0:16.605',1534.023
'0:16.609',1526.959
'0:16.613',1520.381
'0:16.617',1514.509
'0:16.621',1509.565
'0:16.625',1505.724
'0:16.629',1503.119
'0:16.633',1501.618
'0:16.637',1501.132
'0:16.641',1501.221
'0:16.645',1501.221
'0:16.648',1500.426
'0:16.652',1498.351
'0:16.656',1494.554
'0:16.660',1489.036
'0:16.664',1481.972
'0:16.668',1473.584
'0:16.672',1464.048
'0:16.676',1453.408
'0:16.680',1441.841
'0:16.684',1429.568
'0:16.688',1416.853
'0:16.691',1403.741
'0:16.695',1390.188
'0:16.699',1376.148
'0:16.703',1361.447
'0:16.707',1345.907
'0:16.711',1329.351
'0:16.715',1311.559
'0:16.719',1292.576
'0:16.723',1272.311
'0:16.727',1251.120
'0:16.730',1229.267
'0:16.734',1206.839
'0:16.738',1183.971
'0:16.742',1160.881
'0:16.746',1138.012
'0:16.750',1115.806
'0:16.754',1094.747
'0:16.758',1075.366
'0:16.762',1058.148
'0:16.766',1043.535
'0:16.770',1031.659
'0:16.773',1022.520
'0:16.777',1015.854
'0:16.781',1011.571
'0:16.785',1009.717
'0:16.789',1010.203
'0:16.793',1012.896
'0:16.797',1017.575
'0:16.801',1024.065
'0:16.805',1031.924
'0:16.809',1040.886
'0:16.813',1050.731
'0:16.816',1061.238
'0:16.820',1072.275
'0:16.824',1083.754
'0:16.828',1095.630
'0:16.832',1107.771
'0:16.836',1120.088
'0:16.840',1132.714
'0:16.844',1145.871
'0:16.848',1159.821
'0:16.852',1174.435
'0:16.855',1189.533
'0:16.859',1204.764
'0:16.863',1219.731
'0:16.867',1234.344
'0:16.871',1248.692
'0:16.875',1262.864
'0:16.879',1276.859
'0:16.883',1290.589
'0:16.887',1303.878
'0:16.891',1316.460
'0:16.895',1328.159
'0:16.898',1338.931
'0:16.902',1348.776
'0:16.906',1357.694
'0:16.910',1365.597
'0:16.914',1372.308
'0:16.918',1377.517
'0:16.922',1381.270
'0:16.926',1383.654
'0:16.930',1384.757
'0:16.934',1384.757
'0:16.938',1383.830
'0:16.941',1382.373
'0:16.945',1380.652
'0:16.949',1378.753
'0:16.953',1376.766
'0:16.957',1374.603
'0:16.961',1372.219
'0:16.965',1369.659
'0:16.969',1366.877
'0:16.973',1364.052
'0:16.977',1361.270
'0:16.980',1358.931
'0:16.984',1357.297
'0:16.988',1356.591
'0:16.992',1356.944
'0:16.996',1358.489
'0:17.000',1361.315
'0:17.004',1365.420
'0:17.008',1370.895
'0:17.012',1377.826
'0:17.016',1386.214
'0:17.020',1395.927
'0:17.023',1406.522
'0:17.027',1417.515
'0:17.031',1428.376
'0:17.035',1438.839
'0:17.039',1448.596
'0:17.043',1457.470
'0:17.047',1465.372
'0:17.051',1472.215
'0:17.055',1478.087
'0:17.059',1483.032
'0:17.063',1487.137
'0:17.066',1490.404
'0:17.070',1492.965
'0:17.074',1494.863
'0:17.078',1496.276
'0:17.082',1497.336
'0:17.086',1498.219
'0:17.090',1499.322
'0:17.094',1500.823
'0:17.098',1502.854
'0:17.102',1505.459
'0:17.105',1508.461
'0:17.109',1511.728
'0:17.113',1515.172
'0:17.117',1518.703
'0:17.121',1522.279
'0:17.125',1525.900
'0:17.129',1529.476
'0:17.133',1532.875
'0:17.137',1536.010
'0:17.141',1538.879
'0:17.145',1541.440
'0:17.148',1543.647
'0:17.152',1545.413
'0:17.156',1546.649
'0:17.160',1547.223
'0:17.164',1546.914
'0:17.168',1545.678
'0:17.172',1543.559
'0:17.176',1540.645
'0:17.180',1537.025
'0:17.184',1532.743
'0:17.188',1527.842
'0:17.191',1522.279
'0:17.195',1516.187
'0:17.199',1509.565
'0:17.203',1502.369
'0:17.207',1494.554
'0:17.211',1486.166
'0:17.215',1477.204
'0:17.219',1467.889
'0:17.223',1458.220
'0:17.227',1448.375
'0:17.230',1438.530
'0:17.234',1429.171
'0:17.238',1420.606
'0:17.242',1413.101
'0:17.246',1406.655
'0:17.250',1401.269
'0:17.254',1396.633
'0:17.258',1392.307
'0:17.262',1387.804
'0:17.266',1382.727
'0:17.270',1376.899
'0:17.273',1370.365
'0:17.277',1363.169
'0:17.281',1355.708
'0:17.285',1348.335
'0:17.289',1341.183
'0:17.293',1334.340
'0:17.297',1327.850
'0:17.301',1321.890
'0:17.305',1316.504
'0:17.309',1311.868
'0:17.313',1308.072
'0:17.316',1305.334
'0:17.320',1303.922
'0:17.324',1303.701
'0:17.328',1304.628
'0:17.332',1306.482
'0:17.336',1309.175
'0:17.340',1312.531
'0:17.344',1316.460
'0:17.348',1320.521
'0:17.352',1324.274
'0:17.355',1327.453
'0:17.359',1330.013
'0:17.363',1332.265
'0:17.367',1334.781
'0:17.371',1337.960
'0:17.375',1342.242
'0:17.379',1347.893
'0:17.383',1355.001
'0:17.387',1363.434
'0:17.391',1372.970
'0:17.395',1383.168
'0:17.398',1393.455
'0:17.402',1403.211
'0:17.406',1411.776
'0:17.410',1418.707
'0:17.414',1423.829
'0:17.418',1427.272
'0:17.422',1429.259
'0:17.426',1430.142
'0:17.430',1430.142
'0:17.434',1429.568
'0:17.438',1428.420
'0:17.441',1426.610
'0:17.445',1423.873
'0:17.449',1420.076
'0:17.453',1415.131
'0:17.457',1408.951
'0:17.461',1401.534
'0:17.465',1393.101
'0:17.469',1383.786
'0:17.473',1373.809
'0:17.477',1363.345
'0:17.480',1352.661
'0:17.484',1342.154
'0:17.488',1332.221
'0:17.492',1322.950
'0:17.496',1314.429
'0:17.500',1306.615
'0:17.504',1299.551
'0:17.508',1293.238
'0:17.512',1287.675
'0:17.516',1282.863
'0:17.520',1278.890
'0:17.523',1275.887
'0:17.527',1274.033
'0:17.531',1273.459
'0:17.535',1274.298
'0:17.539',1276.682
'0:17.543',1280.479
'0:17.547',1285.600
'0:17.551',1291.737
'0:17.555',1298.756
'0:17.559',1306.394
'0:17.563',1314.429
'0:17.566',1322.685
'0:17.570',1330.852
'0:17.574',1338.799
'0:17.578',1346.481
'0:17.582',1354.030
'0:17.586',1361.491
'0:17.590',1368.908
'0:17.594',1376.325
'0:17.598',1383.874
'0:17.602',1391.556
'0:17.605',1399.282
'0:17.609',1406.699
'0:17.613',1413.630
'0:17.617',1420.076
'0:17.621',1425.992
'0:17.625',1431.466
'0:17.629',1436.632
'0:17.633',1441.620
'0:17.637',1446.653
'0:17.641',1451.995
'0:17.645',1457.602
'0:17.648',1463.386
'0:17.652',1469.301
'0:17.656',1475.306
'0:17.660',1481.310
'0:17.664',1487.093
'0:17.668',1492.391
'0:17.672',1496.982
'0:17.676',1500.912
'0:17.680',1504.355
'0:17.684',1507.401
'0:17.688',1510.006
'0:17.691',1512.081
'0:17.695',1513.450
'0:17.699',1513.891
'0:17.703',1513.406
'0:17.707',1512.214
'0:17.711',1510.448
'0:17.715',1508.240
'0:17.719',1505.680
'0:17.723',1502.810
'0:17.727',1499.852
'0:17.730',1496.762
'0:17.734',1493.715
'0:17.738',1490.890
'0:17.742',1488.285
'0:17.746',1486.122
'0:17.750',1484.400
'0:17.754',1483.164
'0:17.758',1482.458
'0:17.762',1482.193
'0:17.766',1482.414
'0:17.770',1483.208
'0:17.773',1484.488
'0:17.777',1486.122
'0:17.781',1488.020
'0:17.785',1489.830
'0:17.789',1491.331
'0:17.793',1492.523
'0:17.797',1493.406
'0:17.801',1494.289
'0:17.805',1495.305
'0:17.809',1496.806
'0:17.813',1498.969
'0:17.816',1501.883
'0:17.820',1505.547
'0:17.824',1510.139
'0:17.828',1515.701
'0:17.832',1522.412
'0:17.836',1530.226
'0:17.840',1539.056
'0:17.844',1548.768
'0:17.848',1559.143
'0:17.852',1569.871
'0:17.855',1580.688
'0:17.859',1591.195
'0:17.863',1601.040
'0:17.867',1610.091
'0:17.871',1617.993
'0:17.875',1624.527
'0:17.879',1629.383
'0:17.883',1632.518
'0:17.887',1633.975
'0:17.891',1633.975
'0:17.895',1632.695
'0:17.898',1630.134
'0:17.902',1626.161
'0:17.906',1620.598
'0:17.910',1613.181
'0:17.914',1603.866
'0:17.918',1592.784
'0:17.922',1579.893
'0:17.926',1565.192
'0:17.930',1548.636
'0:17.934',1530.314
'0:17.938',1510.183
'0:17.941',1488.153
'0:17.945',1464.357
'0:17.949',1439.104
'0:17.953',1412.968
'0:17.957',1386.523
'0:17.961',1360.255
'0:17.965',1334.340
'0:17.969',1308.866
'0:17.973',1283.834
'0:17.977',1259.199
'0:17.980',1234.918
'0:17.984',1210.813
'0:17.988',1186.973
'0:17.992',1163.662
'0:17.996',1141.279
'0:18.000',1120.441
'0:18.004',1101.634
'0:18.008',1085.476
'0:18.012',1072.319
'0:18.016',1062.518
'0:18.020',1056.161
'0:18.023',1053.291
'0:18.027',1053.689
'0:18.031',1057.177
'0:18.035',1063.490
'0:18.039',1072.319
'0:18.043',1083.312
'0:18.047',1096.204
'0:18.051',1110.508
'0:18.055',1125.783
'0:18.059',1141.412
'0:18.063',1157.040
'0:18.066',1172.448
'0:18.070',1187.723
'0:18.074',1202.999
'0:18.078',1218.318
'0:18.082',1233.593
'0:18.086',1248.780
'0:18.090',1263.703
'0:18.094',1278.360
'0:18.098',1292.576
'0:18.102',1306.306
'0:18.105',1319.506
'0:18.109',1332.309
'0:18.113',1345.024
'0:18.117',1357.915
'0:18.121',1371.248
'0:18.125',1385.111
'0:18.129',1399.326
'0:18.133',1413.498
'0:18.137',1427.272
'0:18.141',1440.075
'0:18.145',1451.775
'0:18.148',1462.326
'0:18.152',1472.039
'0:18.156',1481.310
'0:18.160',1490.493
'0:18.164',1499.896
'0:18.168',1509.521
'0:18.172',1519.189
'0:18.176',1528.637
'0:18.180',1537.731
'0:18.184',1546.340
'0:18.188',1554.287
'0:18.191',1561.439
'0:18.195',1567.620
'0:18.199',1572.697
'0:18.203',1576.494
'0:18.207',1579.010
'0:18.211',1580.114
'0:18.215',1579.805
'0:18.219',1577.995
'0:18.223',1574.639
'0:18.227',1569.960
'0:18.230',1564.044
'0:18.234',1556.936
'0:18.238',1548.857
'0:18.242',1540.027
'0:18.246',1530.579
'0:18.250',1520.469
'0:18.254',1509.785
'0:18.258',1498.572
'0:18.262',1487.137
'0:18.266',1475.703
'0:18.270',1464.533
'0:18.273',1453.761
'0:18.277',1443.563
'0:18.281',1433.983
'0:18.285',1424.888
'0:18.289',1416.191
'0:18.293',1407.803
'0:18.297',1399.724
'0:18.301',1391.998
'0:18.305',1384.757
'0:18.309',1378.356
'0:18.313',1373.102
'0:18.316',1369.217
'0:18.320',1366.568
'0:18.324',1365.067
'0:18.328',1364.714
'0:18.332',1365.509
'0:18.336',1367.495
'0:18.340',1370.497
'0:18.344',1374.471
'0:18.348',1379.283
'0:18.352',1384.978
'0:18.355',1391.424
'0:18.359',1398.532
'0:18.363',1406.125
'0:18.367',1414.204
'0:18.371',1422.725
'0:18.375',1431.731
'0:18.379',1441.179
'0:18.383',1451.112
'0:18.387',1461.752
'0:18.391',1473.319
'0:18.395',1485.901
'0:18.398',1499.543
'0:18.402',1514.112
'0:18.406',1529.432
'0:18.410',1545.060
'0:18.414',1560.600
'0:18.418',1575.699
'0:18.422',1590.091
'0:18.426',1603.424
'0:18.430',1615.300
'0:18.434',1625.322
'0:18.438',1633.092
'0:18.441',1638.390
'0:18.445',1641.083
'0:18.449',1641.127
'0:18.453',1638.655
'0:18.457',1633.931
'0:18.461',1627.132
'0:18.465',1618.479
'0:18.469',1608.104
'0:18.473',1596.140
'0:18.477',1582.719
'0:18.480',1568.061
'0:18.484',1552.433
'0:18.488',1536.230
'0:18.492',1519.719
'0:18.496',1503.031
'0:18.500',1486.387
'0:18.504',1469.875
'0:18.508',1453.540
'0:18.512',1437.338
'0:18.516',1421.312
'0:18.520',1405.463
'0:18.523',1389.923
'0:18.527',1374.736
'0:18.531',1360.034
'0:18.535',1345.863
'0:18.539',1332.265
'0:18.543',1319.241
'0:18.547',1306.880
'0:18.551',1295.136
'0:18.555',1284.055
'0:18.559',1273.592
'0:18.563',1263.747
'0:18.566',1254.431
'0:18.570',1245.734
'0:18.574',1237.920
'0:18.578',1231.033
'0:18.582',1225.073
'0:18.586',1219.687
'0:18.590',1214.610
'0:18.594',1209.797
'0:18.598',1205.515
'0:18.602',1201.983
'0:18.605',1199.378
'0:18.609',1197.568
'0:18.613',1196.244
'0:18.617',1195.184
'0:18.621',1194.390
'0:18.625',1193.904
'0:18.629',1193.816
'0:18.633',1194.213
'0:18.637',1195.228
'0:18.641',1196.862
'0:18.645',1199.246
'0:18.648',1202.469
'0:18.652',1206.619
'0:18.656',1211.696
'0:18.660',1217.656
'0:18.664',1224.455
'0:18.668',1232.225
'0:18.672',1240.834
'0:18.676',1250.237
'0:18.680',1260.391
'0:18.684',1271.252
'0:18.688',1282.730
'0:18.691',1294.739
'0:18.695',1307.056
'0:18.699',1319.374
'0:18.703',1331.382
'0:18.707',1342.949
'0:18.711',1354.074
'0:18.715',1365.023
'0:18.719',1376.060
'0:18.723',1387.185
'0:18.727',1398.223
'0:18.730',1409.039
'0:18.734',1419.414
'0:18.738',1429.259
'0:18.742',1438.442
'0:18.746',1446.742
'0:18.750',1453.938
'0:18.754',1459.942
'0:18.758',1464.842
'0:18.762',1468.992
'0:18.766',1472.701
'0:18.770',1476.144
'0:18.773',1479.235
'0:18.777',1481.531
'0:18.781',1482.590
'0:18.785',1482.104
'0:18.789',1480.250
'0:18.793',1477.292
'0:18.797',1473.540
'0:18.801',1469.169
'0:18.805',1464.313
'0:18.809',1458.882
'0:18.813',1452.746
'0:18.816',1445.770
'0:18.820',1437.780
'0:18.824',1428.994
'0:18.828',1419.635
'0:18.832',1410.098
'0:18.836',1400.739
'0:18.840',1391.777
'0:18.844',1383.345
'0:18.848',1375.530
'0:18.852',1368.290
'0:18.855',1361.403
'0:18.859',1354.913
'0:18.863',1348.688
'0:18.867',1342.816
'0:18.871',1337.298
'0:18.875',1332.309
'0:18.879',1327.894
'0:18.883',1324.186
'0:18.887',1321.316
'0:18.891',1319.550
'0:18.895',1319.020
'0:18.898',1319.859
'0:18.902',1322.111
'0:18.906',1325.863
'0:18.910',1331.250
'0:18.914',1338.093
'0:18.918',1346.128
'0:18.922',1355.266
'0:18.926',1365.376
'0:18.930',1376.369
'0:18.934',1388.113
'0:18.938',1400.562
'0:18.941',1413.675
'0:18.945',1427.449
'0:18.949',1441.709
'0:18.953',1456.145
'0:18.957',1470.405
'0:18.961',1484.047
'0:18.965',1496.894
'0:18.969',1509.079
'0:18.973',1520.602
'0:18.977',1531.639
'0:18.980',1542.014
'0:18.984',1551.771
'0:18.988',1560.821
'0:18.992',1569.121
'0:18.996',1576.405
'0:19.000',1582.586
'0:19.004',1587.266
'0:19.008',1590.224
'0:19.012',1591.416
'0:19.016',1590.665
'0:19.020',1587.972
'0:19.023',1583.381
'0:19.027',1576.847
'0:19.031',1568.547
'0:19.035',1558.481
'0:19.039',1546.694
'0:19.043',1533.272
'0:19.047',1518.174
'0:19.051',1501.574
'0:19.055',1483.650
'0:19.059',1464.666
'0:19.063',1444.623
'0:19.066',1423.387
'0:19.070',1401.004
'0:19.074',1377.561
'0:19.078',1353.412
'0:19.082',1328.954
'0:19.086',1304.584
'0:19.090',1280.832
'0:19.094',1258.272
'0:19.098',1237.478
'0:19.102',1218.936
'0:19.105',1202.999
'0:19.109',1189.798
'0:19.113',1179.070
'0:19.117',1170.417
'0:19.121',1163.486
'0:19.125',1157.923
'0:19.129',1153.729
'0:19.133',1151.257
'0:19.137',1150.815
'0:19.141',1152.714
'0:19.145',1157.128
'0:19.148',1163.927
'0:19.152',1173.022
'0:19.156',1184.147
'0:19.160',1196.906
'0:19.164',1210.901
'0:19.168',1225.603
'0:19.172',1240.613
'0:19.176',1255.491
'0:19.180',1269.751
'0:19.184',1282.995
'0:19.188',1294.960
'0:19.191',1305.511
'0:19.195',1314.606
'0:19.199',1322.287
'0:19.203',1328.601
'0:19.207',1333.369
'0:19.211',1336.503
'0:19.215',1337.828
'0:19.219',1337.519
'0:19.223',1335.753
'0:19.227',1332.795
'0:19.230',1328.954
'0:19.234',1324.362
'0:19.238',1319.285
'0:19.242',1313.723
'0:19.246',1307.674
'0:19.250',1301.052
'0:19.254',1293.900
'0:19.258',1286.086
'0:19.262',1277.477
'0:19.266',1268.162
'0:19.270',1258.316
'0:19.273',1248.295
'0:19.277',1238.538
'0:19.281',1229.090
'0:19.285',1219.952
'0:19.289',1210.989
'0:19.293',1202.248
'0:19.297',1193.948
'0:19.301',1186.266
'0:19.305',1179.379
'0:19.309',1173.331
'0:19.313',1168.121
'0:19.316',1163.574
'0:19.320',1159.689
'0:19.324',1156.290
'0:19.328',1153.420
'0:19.332',1150.948
'0:19.336',1148.784
'0:19.340',1146.709
'0:19.344',1144.634
'0:19.348',1142.383
'0:19.352',1139.999
'0:19.355',1137.659
'0:19.359',1135.540
'0:19.363',1133.774
'0:19.367',1132.538
'0:19.371',1131.876
'0:19.375',1131.876
'0:19.379',1132.714
'0:19.383',1134.480
'0:19.387',1137.350
'0:19.391',1141.323
'0:19.395',1146.400
'0:19.398',1152.537
'0:19.402',1159.645
'0:19.406',1167.592
'0:19.410',1176.201
'0:19.414',1185.339
'0:19.418',1195.096
'0:19.422',1205.603
'0:19.426',1216.861
'0:19.430',1229.002
'0:19.434',1241.982
'0:19.438',1255.447
'0:19.441',1269.177
'0:19.445',1282.907
'0:19.449',1296.593
'0:19.453',1310.191
'0:19.457',1323.524
'0:19.461',1336.415
'0:19.465',1348.732
'0:19.469',1360.564
'0:19.473',1371.822
'0:19.477',1382.417
'0:19.480',1392.174
'0:19.484',1400.783
'0:19.488',1408.112
'0:19.492',1414.028
'0:19.496',1418.531
'0:19.500',1421.445
'0:19.504',1422.813
'0:19.508',1422.504
'0:19.512',1420.562
'0:19.516',1417.030
'0:19.520',1412.041
'0:19.523',1405.860
'0:19.527',1398.620
'0:19.531',1390.497
'0:19.535',1381.490
'0:19.539',1371.778
'0:19.543',1361.624
'0:19.547',1351.205
'0:19.551',1340.741
'0:19.555',1330.411
'0:19.559',1320.477
'0:19.563',1311.074
'0:19.566',1302.200
'0:19.570',1293.812
'0:19.574',1285.733
'0:19.578',1277.962
'0:19.582',1270.546
'0:19.586',1263.438
'0:19.590',1256.639
'0:19.594',1250.061
'0:19.598',1243.747
'0:19.602',1237.655
'0:19.605',1231.827
'0:19.609',1226.397
'0:19.613',1221.497
'0:19.617',1217.479
'0:19.621',1214.742
'0:19.625',1213.682
'0:19.629',1214.389
'0:19.633',1216.861
'0:19.637',1220.790
'0:19.641',1226.221
'0:19.645',1233.108
'0:19.648',1241.540
'0:19.652',1251.341
'0:19.656',1262.290
'0:19.660',1274.033
'0:19.664',1286.351
'0:19.668',1298.977
'0:19.672',1311.824
'0:19.676',1324.848
'0:19.680',1338.137
'0:19.684',1351.734
'0:19.688',1365.509
'0:19.691',1379.371
'0:19.695',1393.101
'0:19.699',1406.346
'0:19.703',1418.840
'0:19.707',1430.230
'0:19.711',1440.075
'0:19.715',1447.978
'0:19.719',1453.496
'0:19.723',1456.498
'0:19.727',1457.028
'0:19.730',1455.306
'0:19.734',1451.466
'0:19.738',1445.682
'0:19.742',1437.956
'0:19.746',1428.464
'0:19.750',1417.295
'0:19.754',1404.536
'0:19.758',1390.364
'0:19.762',1375.177
'0:19.766',1359.372
'0:19.770',1343.170
'0:19.773',1326.614
'0:19.777',1309.749
'0:19.781',1292.664
'0:19.785',1275.490
'0:19.789',1258.405
'0:19.793',1241.673
'0:19.797',1225.558
'0:19.801',1210.151
'0:19.805',1195.582
'0:19.809',1181.851
'0:19.813',1168.651
'0:19.816',1155.848
'0:19.820',1143.398
'0:19.824',1131.434
'0:19.828',1120.176
'0:19.832',1109.846
'0:19.836',1100.442
'0:19.840',1092.010
'0:19.844',1084.372
'0:19.848',1077.308
'0:19.852',1070.509
'0:19.855',1063.534
'0:19.859',1056.029
'0:19.863',1047.729
'0:19.867',1038.413
'0:19.871',1027.862
'0:19.875',1015.810
'0:19.879',1001.991
'0:19.883',986.407
'0:19.887',969.189
'0:19.891',950.779
'0:19.895',931.751
'0:19.898',912.811
'0:19.902',894.622
'0:19.906',878.111
'0:19.910',863.895
'0:19.914',852.593
'0:19.918',844.558
'0:19.922',839.834
'0:19.926',838.333
'0:19.930',839.746
'0:19.934',843.763
'0:19.938',849.856
'0:19.941',857.494
'0:19.945',866.058
'0:19.949',875.109
'0:19.953',884.247
'0:19.957',893.254
'0:19.961',901.863
'0:19.965',910.207
'0:19.969',918.462
'0:19.973',926.895
'0:19.977',935.813
'0:19.980',945.437
'0:19.984',955.944
'0:19.988',967.555
'0:19.992',980.447
'0:19.996',994.618
'0:20.000',1009.982
'0:20.004',1026.538
'0:20.008',1044.153
'0:20.012',1062.651
'0:20.016',1081.900
'0:20.020',1101.899
'0:20.023',1122.958
'0:20.027',1145.297
'0:20.031',1169.225
'0:20.035',1194.610
'0:20.039',1221.276
'0:20.043',1248.648
'0:20.047',1276.108
'0:20.051',1303.215
'0:20.055',1329.351
'0:20.059',1353.809
'0:20.063',1375.884
'0:20.066',1394.779
'0:20.070',1409.878
'0:20.074',1420.694
'0:20.078',1427.007
'0:20.082',1428.641
'0:20.086',1425.683
'0:20.090',1418.222
'0:20.094',1406.522
'0:20.098',1390.982
'0:20.102',1371.998
'0:20.105',1350.145
'0:20.109',1325.819
'0:20.113',1299.463
'0:20.117',1271.473
'0:20.121',1242.202
'0:20.125',1212.226
'0:20.129',1182.381
'0:20.133',1153.773
'0:20.137',1127.593
'0:20.141',1104.945
'0:20.145',1086.888
'0:20.148',1074.218
'0:20.152',1067.640
'0:20.156',1067.640
'0:20.160',1074.174
'0:20.164',1087.065
'0:20.168',1105.740
'0:20.172',1129.403
'0:20.176',1157.040
'0:20.180',1187.547
'0:20.184',1219.996
'0:20.188',1253.548
'0:20.191',1287.587
'0:20.195',1321.316
'0:20.199',1354.251
'0:20.203',1385.729
'0:20.207',1415.264
'0:20.211',1442.371
'0:20.215',1466.520
'0:20.219',1487.137
'0:20.223',1504.090
'0:20.227',1517.467
'0:20.230',1527.577
'0:20.234',1534.818
'0:20.238',1539.453
'0:20.242',1541.793
'0:20.246',1541.925
'0:20.250',1540.027
'0:20.254',1536.142
'0:20.258',1530.579
'0:20.262',1523.692
'0:20.266',1515.878
'0:20.270',1507.622
'0:20.273',1499.411
'0:20.277',1491.641
'0:20.281',1484.488
'0:20.285',1478.175
'0:20.289',1473.054
'0:20.293',1469.390
'0:20.297',1467.403
'0:20.301',1467.050
'0:20.305',1468.154
'0:20.309',1470.317
'0:20.313',1473.098
'0:20.316',1476.056
'0:20.320',1479.014
'0:20.324',1481.840
'0:20.328',1484.400
'0:20.332',1486.740
'0:20.336',1488.859
'0:20.340',1490.934
'0:20.344',1493.097
'0:20.348',1495.570
'0:20.352',1498.395
'0:20.355',1501.486
'0:20.359',1504.753
'0:20.363',1508.196
'0:20.367',1511.640
'0:20.371',1514.863
'0:20.375',1517.600
'0:20.379',1519.586
'0:20.383',1520.558
'0:20.387',1520.249
'0:20.391',1518.615
'0:20.395',1515.525
'0:20.398',1511.110
'0:20.402',1505.503
'0:20.406',1498.925
'0:20.410',1491.508
'0:20.414',1483.517
'0:20.418',1475.261
'0:20.422',1467.138
'0:20.426',1459.456
'0:20.430',1452.569
'0:20.434',1446.742
'0:20.438',1442.062
'0:20.441',1438.574
'0:20.445',1436.146
'0:20.449',1434.645
'0:20.453',1433.894
'0:20.457',1433.541
'0:20.461',1433.232
'0:20.465',1432.747
'0:20.469',1431.908
'0:20.473',1430.760
'0:20.477',1429.126
'0:20.480',1427.007
'0:20.484',1424.403
'0:20.488',1421.356
'0:20.492',1417.736
'0:20.496',1413.586
'0:20.500',1408.774
'0:20.504',1403.344
'0:20.508',1397.207
'0:20.512',1390.585
'0:20.516',1383.874
'0:20.520',1377.605
'0:20.523',1372.175
'0:20.527',1367.849
'0:20.531',1364.626
'0:20.535',1362.330
'0:20.539',1360.873
'0:20.543',1360.211
'0:20.547',1360.432
'0:20.551',1361.491
'0:20.555',1363.125
'0:20.559',1365.067
'0:20.563',1367.230
'0:20.566',1369.438
'0:20.570',1371.469
'0:20.574',1373.190
'0:20.578',1374.603
'0:20.582',1376.016
'0:20.586',1377.605
'0:20.590',1379.592
'0:20.594',1382.153
'0:20.598',1385.155
'0:20.602',1388.466
'0:20.605',1391.865
'0:20.609',1395.088
'0:20.613',1398.046
'0:20.617',1400.695
'0:20.621',1403.211
'0:20.625',1405.949
'0:20.629',1409.260
'0:20.633',1413.277
'0:20.637',1418.045
'0:20.641',1423.520
'0:20.645',1429.524
'0:20.648',1435.969
'0:20.652',1442.812
'0:20.656',1449.832
'0:20.660',1456.896
'0:20.664',1463.959
'0:20.668',1470.979
'0:20.672',1477.910
'0:20.676',1484.798
'0:20.680',1491.641
'0:20.684',1498.484
'0:20.688',1505.282
'0:20.691',1511.993
'0:20.695',1518.527
'0:20.699',1524.840
'0:20.703',1530.800
'0:20.707',1536.274
'0:20.711',1541.307
'0:20.715',1545.943
'0:20.719',1550.181
'0:20.723',1554.110
'0:20.727',1557.863
'0:20.730',1561.616
'0:20.734',1565.633
'0:20.738',1570.136
'0:20.742',1575.390
'0:20.746',1581.571
'0:20.750',1588.723
'0:20.754',1596.978
'0:20.758',1606.338
'0:20.762',1616.713
'0:20.766',1628.147
'0:20.770',1640.597
'0:20.773',1654.062
'0:20.777',1668.455
'0:20.781',1683.509
'0:20.785',1698.873
'0:20.789',1714.369
'0:20.793',1729.777
'0:20.797',1744.964
'0:20.801',1759.842
'0:20.805',1774.278
'0:20.809',1788.097
'0:20.813',1801.297
'0:20.816',1813.835
'0:20.820',1825.711
'0:20.824',1836.660
'0:20.828',1846.417
'0:20.832',1854.717
'0:20.836',1861.471
'0:20.840',1866.592
'0:20.844',1870.301
'0:20.848',1872.641
'0:20.852',1873.612
'0:20.855',1873.347
'0:20.859',1872.023
'0:20.863',1869.859
'0:20.867',1867.034
'0:20.871',1863.590
'0:20.875',1859.617
'0:20.879',1855.114
'0:20.883',1850.037
'0:20.887',1844.342
'0:20.891',1837.940
'0:20.895',1830.656
'0:20.898',1822.577
'0:20.902',1813.659
'0:20.906',1804.034
'0:20.910',1793.659
'0:20.914',1782.534
'0:20.918',1770.526
'0:20.922',1757.502
'0:20.926',1743.419
'0:20.930',1728.232
'0:20.934',1712.029
'0:20.938',1694.855
'0:20.941',1677.064
'0:20.945',1659.095
'0:20.949',1641.348
'0:20.953',1624.262
'0:20.957',1608.104
'0:20.961',1592.961
'0:20.965',1578.834
'0:20.969',1565.545
'0:20.973',1553.007
'0:20.977',1541.043
'0:20.980',1529.785
'0:20.984',1519.189
'0:20.988',1509.300
'0:20.992',1499.985
'0:20.996',1491.155
'0:21.000',1482.678
'0:21.004',1474.467
'0:21.008',1466.564
'0:21.012',1459.103
'0:21.016',1452.260
'0:21.020',1446.212
'0:21.023',1440.958
'0:21.027',1436.234
'0:21.031',1431.864
'0:21.035',1427.846
'0:21.039',1424.094
'0:21.043',1420.473
'0:21.047',1416.941
'0:21.051',1413.586
'0:21.055',1410.672
'0:21.059',1408.377
'0:21.063',1407.052
'0:21.066',1406.832
'0:21.070',1407.847
'0:21.074',1410.098
'0:21.078',1413.365
'0:21.082',1417.339
'0:21.086',1421.577
'0:21.090',1425.815
'0:21.094',1429.921
'0:21.098',1433.850
'0:21.102',1437.515
'0:21.105',1440.605
'0:21.109',1442.945
'0:21.113',1444.446
'0:21.117',1445.196
'0:21.121',1445.417
'0:21.125',1445.064
'0:21.129',1444.049
'0:21.133',1442.238
'0:21.137',1439.722
'0:21.141',1436.852
'0:21.145',1433.806
'0:21.148',1430.716
'0:21.152',1427.714
'0:21.156',1424.888
'0:21.160',1422.239
'0:21.164',1419.723
'0:21.168',1417.383
'0:21.172',1415.264
'0:21.176',1413.498
'0:21.180',1412.173
'0:21.184',1411.114
'0:21.188',1410.187
'0:21.191',1409.216
'0:21.195',1407.979
'0:21.199',1406.478
'0:21.203',1404.845
'0:21.207',1403.344
'0:21.211',1402.063
'0:21.215',1401.048
'0:21.219',1400.298
'0:21.223',1399.812
'0:21.227',1399.547
'0:21.230',1399.503
'0:21.234',1399.679
'0:21.238',1399.900
'0:21.242',1400.209
'0:21.246',1400.607
'0:21.250',1401.269
'0:21.254',1402.505
'0:21.258',1404.536
'0:21.262',1407.450
'0:21.266',1411.291
'0:21.270',1415.970
'0:21.273',1421.400
'0:21.277',1427.581
'0:21.281',1434.468
'0:21.285',1441.974
'0:21.289',1450.097
'0:21.293',1458.662
'0:21.297',1467.712
'0:21.301',1477.248
'0:21.305',1487.137
'0:21.309',1497.247
'0:21.313',1507.578
'0:21.316',1518.130
'0:21.320',1528.858
'0:21.324',1539.762
'0:21.328',1550.888
'0:21.332',1562.234
'0:21.336',1573.889
'0:21.340',1585.897
'0:21.344',1598.038
'0:21.348',1610.091
'0:21.352',1621.746
'0:21.355',1632.606
'0:21.359',1642.363
'0:21.363',1650.884
'0:21.367',1658.124
'0:21.371',1664.172
'0:21.375',1669.117
'0:21.379',1673.090
'0:21.383',1675.872
'0:21.387',1677.417
'0:21.391',1677.461
'0:21.395',1675.872
'0:21.398',1672.472
'0:21.402',1667.307
'0:21.406',1660.464
'0:21.410',1652.429
'0:21.414',1643.511
'0:21.418',1633.975
'0:21.422',1624.041
'0:21.426',1613.799
'0:21.430',1603.380
'0:21.434',1592.917
'0:21.438',1582.630
'0:21.441',1572.653
'0:21.445',1563.028
'0:21.449',1553.757
'0:21.453',1544.839
'0:21.457',1536.407
'0:21.461',1528.504
'0:21.465',1521.043
'0:21.469',1513.759
'0:21.473',1506.254
'0:21.477',1498.263
'0:21.480',1489.654
'0:21.484',1480.339
'0:21.488',1470.317
'0:21.492',1459.677
'0:21.496',1448.684
'0:21.500',1437.603
'0:21.504',1426.654
'0:21.508',1416.147
'0:21.512',1406.081
'0:21.516',1396.324
'0:21.520',1386.832
'0:21.523',1377.429
'0:21.527',1368.246
'0:21.531',1359.284
'0:21.535',1350.587
'0:21.539',1342.375
'0:21.543',1334.737
'0:21.547',1327.894
'0:21.551',1322.067
'0:21.555',1317.299
'0:21.559',1313.634
'0:21.563',1311.074
'0:21.566',1309.705
'0:21.570',1309.529
'0:21.574',1310.632
'0:21.578',1313.149
'0:21.582',1317.122
'0:21.586',1322.508
'0:21.590',1329.307
'0:21.594',1337.342
'0:21.598',1346.172
'0:21.602',1355.443
'0:21.605',1364.714
'0:21.609',1373.853
'0:21.613',1382.947
'0:21.617',1392.263
'0:21.621',1402.196
'0:21.625',1412.880
'0:21.629',1424.226
'0:21.633',1436.146
'0:21.637',1448.684
'0:21.641',1462.017
'0:21.645',1476.365
'0:21.648',1491.817
'0:21.652',1508.196
'0:21.656',1525.237
'0:21.660',1542.720
'0:21.664',1560.512
'0:21.668',1578.348
'0:21.672',1596.140
'0:21.676',1613.799
'0:21.680',1631.326
'0:21.684',1648.588
'0:21.688',1665.408
'0:21.691',1681.523
'0:21.695',1696.577
'0:21.699',1710.175
'0:21.703',1721.830
'0:21.707',1731.278
'0:21.711',1738.342
'0:21.715',1743.242
'0:21.719',1746.023
'0:21.723',1746.818
'0:21.727',1745.582
'0:21.730',1742.447
'0:21.734',1737.370
'0:21.738',1730.351
'0:21.742',1721.433
'0:21.746',1710.793
'0:21.750',1698.740
'0:21.754',1685.805
'0:21.758',1672.340
'0:21.762',1658.654
'0:21.766',1644.835
'0:21.770',1631.017
'0:21.773',1617.154
'0:21.777',1603.292
'0:21.781',1589.473
'0:21.785',1575.567
'0:21.789',1561.660
'0:21.793',1547.621
'0:21.797',1533.493
'0:21.801',1519.189
'0:21.805',1504.753
'0:21.809',1490.360
'0:21.813',1475.835
'0:21.816',1461.134
'0:21.820',1446.079
'0:21.824',1430.363
'0:21.828',1413.807
'0:21.832',1396.236
'0:21.836',1377.605
'0:21.840',1358.092
'0:21.844',1337.695
'0:21.848',1316.592
'0:21.852',1294.960
'0:21.855',1273.106
'0:21.859',1251.297
'0:21.863',1229.885
'0:21.867',1209.135
'0:21.871',1189.533
'0:21.875',1171.697
'0:21.879',1156.201
'0:21.883',1143.751
'0:21.887',1134.701
'0:21.891',1129.138
'0:21.895',1127.019
'0:21.898',1128.520
'0:21.902',1133.818
'0:21.906',1142.913
'0:21.910',1155.716
'0:21.914',1171.962
'0:21.918',1191.211
'0:21.922',1212.844
'0:21.926',1236.242
'0:21.930',1261.054
'0:21.934',1287.013
'0:21.938',1313.943
'0:21.941',1341.713
'0:21.945',1370.233
'0:21.949',1399.370
'0:21.953',1428.906
'0:21.957',1458.618
'0:21.961',1488.197
'0:21.965',1517.335
'0:21.969',1545.634
'0:21.973',1572.741
'0:21.977',1598.347
'0:21.980',1622.231
'0:21.984',1644.261
'0:21.988',1664.437
'0:21.992',1683.068
'0:21.996',1700.418
'0:22.000',1716.665
'0:22.004',1731.852
'0:22.008',1745.935
'0:22.012',1758.694
'0:22.016',1769.952
'0:22.020',1779.399
'0:22.023',1786.949
'0:22.027',1792.644
'0:22.031',1796.441
'0:22.035',1798.560
'0:22.039',1798.913
'0:22.043',1797.456
'0:22.047',1794.189
'0:22.051',1789.068
'0:22.055',1781.960
'0:22.059',1772.954
'0:22.063',1762.093
'0:22.066',1749.644
'0:22.070',1735.958
'0:22.074',1721.521
'0:22.078',1706.555
'0:22.082',1691.235
'0:22.086',1675.518
'0:22.090',1659.581
'0:22.094',1643.423
'0:22.098',1627.132
'0:22.102',1610.797
'0:22.105',1594.418
'0:22.109',1578.127
'0:22.113',1561.969
'0:22.117',1545.987
'0:22.121',1530.182
'0:22.125',1514.598
'0:22.129',1499.278
'0:22.133',1484.268
'0:22.137',1469.610
'0:22.141',1455.439
'0:22.145',1441.974
'0:22.148',1429.259
'0:22.152',1417.383
'0:22.156',1406.390
'0:22.160',1396.457
'0:22.164',1387.715
'0:22.168',1380.254
'0:22.172',1374.073
'0:22.176',1369.173
'0:22.180',1365.597
'0:22.184',1363.434
'0:22.188',1362.639
'0:22.191',1363.213
'0:22.195',1364.979
'0:22.199',1367.584
'0:22.203',1370.718
'0:22.207',1374.162
'0:22.211',1377.649
'0:22.215',1381.005
'0:22.219',1384.051
'0:22.223',1386.523
'0:22.227',1388.157
'0:22.230',1388.863
'0:22.234',1388.510
'0:22.238',1386.832
'0:22.242',1383.786
'0:22.246',1379.283
'0:22.250',1373.235
'0:22.254',1365.685
'0:22.258',1356.767
'0:22.262',1346.525
'0:22.266',1335.135
'0:22.270',1322.861
'0:22.273',1310.014
'0:22.277',1296.770
'0:22.281',1283.393
'0:22.285',1270.016
'0:22.289',1256.904
'0:22.293',1244.233
'0:22.297',1232.181
'0:22.301',1220.834
'0:22.305',1210.283
'0:22.309',1200.394
'0:22.313',1190.902
'0:22.316',1181.278
'0:22.320',1170.947
'0:22.324',1159.601
'0:22.328',1147.063
'0:22.332',1133.641
'0:22.336',1119.691
'0:22.340',1105.696
'0:22.344',1092.098
'0:22.348',1078.986
'0:22.352',1066.315
'0:22.355',1054.219
'0:22.359',1042.872
'0:22.363',1032.586
'0:22.367',1023.668
'0:22.371',1016.295
'0:22.375',1010.732
'0:22.379',1007.024
'0:22.383',1005.214
'0:22.387',1005.391
'0:22.391',1007.421
'0:22.395',1011.086
'0:22.398',1016.119
'0:22.402',1022.255
'0:22.406',1029.275
'0:22.410',1037.001
'0:22.414',1045.212
'0:22.418',1053.865
'0:22.422',1062.828
'0:22.426',1072.010
'0:22.430',1081.326
'0:22.434',1090.597
'0:22.438',1099.559
'0:22.441',1107.947
'0:22.445',1115.717
'0:22.449',1123.222
'0:22.453',1130.816
'0:22.457',1138.895
'0:22.461',1147.460
'0:22.465',1156.466
'0:22.469',1166.002
'0:22.473',1176.289
'0:22.477',1187.591
'0:22.480',1199.952
'0:22.484',1213.329
'0:22.488',1227.589
'0:22.492',1242.732
'0:22.496',1258.758
'0:22.500',1275.667
'0:22.504',1293.238
'0:22.508',1311.250
'0:22.512',1329.528
'0:22.516',1348.026
'0:22.520',1366.789
'0:22.523',1385.817
'0:22.527',1405.286
'0:22.531',1424.976
'0:22.535',1444.578
'0:22.539',1463.562
'0:22.543',1481.531
'0:22.547',1498.307
'0:22.551',1513.715
'0:22.555',1527.489
'0:22.559',1539.630
'0:22.563',1549.872
'0:22.566',1558.216
'0:22.570',1564.618
'0:22.574',1569.121
'0:22.578',1571.946
'0:22.582',1573.359
'0:22.586',1573.668
'0:22.590',1573.227
'0:22.594',1572.300
'0:22.598',1571.108
'0:22.602',1569.871
'0:22.605',1568.724
'0:22.609',1567.796
'0:22.613',1567.134
'0:22.617',1566.649
'0:22.621',1566.163
'0:22.625',1565.589
'0:22.629',1564.618
'0:22.633',1563.161
'0:22.637',1560.909
'0:22.641',1557.775
'0:22.645',1553.625
'0:22.648',1548.371
'0:22.652',1542.058
'0:22.656',1534.862
'0:22.660',1527.047
'0:22.664',1518.836
'0:22.668',1510.536
'0:22.672',1502.413
'0:22.676',1494.687
'0:22.680',1487.623
'0:22.684',1481.531
'0:22.688',1476.939
'0:22.691',1474.379
'0:22.695',1474.246
'0:22.699',1476.851
'0:22.703',1482.458
'0:22.707',1491.641
'0:22.711',1505.062
'0:22.715',1523.295
'0:22.719',1546.738
'0:22.723',1575.478
'0:22.727',1609.472
'0:22.730',1648.279
'0:22.734',1691.279
'0:22.738',1737.414
'0:22.742',1785.624
'0:22.746',1834.629
'0:22.750',1883.104
'0:22.754',1929.901
'0:22.758',1974.138
'0:22.762',2015.152
'0:22.766',2052.590
'0:22.770',2086.407
'0:22.773',2116.737
'0:22.777',2143.977
'0:22.781',2168.744
'0:22.785',2191.613
'0:22.789',2213.201
'0:22.793',2233.863
'0:22.797',2254.038
'0:22.801',2273.817
'0:22.805',2293.242
'0:22.809',2312.182
'0:22.813',2330.371
'0:22.816',2347.545
'0:22.820',2363.306
'0:22.824',2377.257
'0:22.828',2389.088
'0:22.832',2398.580
'0:22.836',2405.556
'0:22.840',2409.750
'0:22.844',2411.118
'0:22.848',2409.706
'0:22.852',2405.467
'0:22.855',2398.448
'0:22.859',2388.382
'0:22.863',2375.093
'0:22.867',2358.361
'0:22.871',2338.185
'0:22.875',2314.742
'0:22.879',2288.077
'0:22.883',2258.365
'0:22.887',2225.651
'0:22.891',2189.979
'0:22.895',2151.570
'0:22.898',2110.556
'0:22.902',2067.335
'0:22.906',2022.348
'0:22.910',1975.860
'0:22.914',1928.135
'0:22.918',1879.351
'0:22.922',1829.773
'0:22.926',1779.532
'0:22.930',1728.673
'0:22.934',1677.328
'0:22.938',1625.807
'0:22.941',1574.375
'0:22.945',1523.339
'0:22.949',1473.010
'0:22.953',1423.740
'0:22.957',1375.619
'0:22.961',1328.556
'0:22.965',1282.333
'0:22.969',1236.816
'0:22.973',1191.873
'0:22.977',1147.637
'0:22.980',1104.371
'0:22.984',1062.342
'0:22.988',1021.770
'0:22.992',982.831
'0:22.996',945.967
'0:23.000',911.664
'0:23.004',880.318
'0:23.008',852.240
'0:23.012',827.517
'0:23.016',806.149
'0:23.020',788.181
'0:23.023',773.258
'0:23.027',761.206
'0:23.031',752.023
'0:23.035',745.842
'0:23.039',742.973
'0:23.043',743.900
'0:23.047',748.800
'0:23.051',757.586
'0:23.055',770.080
'0:23.059',785.973
'0:23.063',805.001
'0:23.066',826.634
'0:23.070',850.297
'0:23.074',875.418
'0:23.078',901.598
'0:23.082',928.661
'0:23.086',956.430
'0:23.090',984.862
'0:23.094',1013.955
'0:23.098',1043.491
'0:23.102',1073.291
'0:23.105',1103.135
'0:23.109',1133.200
'0:23.113',1163.618
'0:23.117',1194.655
'0:23.121',1226.265
'0:23.125',1258.228
'0:23.129',1290.280
'0:23.133',1322.287
'0:23.137',1354.118
'0:23.141',1385.905
'0:23.145',1417.736
'0:23.148',1449.655
'0:23.152',1481.707
'0:23.156',1513.847
'0:23.160',1546.075
'0:23.164',1578.392
'0:23.168',1610.797
'0:23.172',1643.334
'0:23.176',1675.872
'0:23.180',1708.188
'0:23.184',1739.887
'0:23.188',1770.835
'0:23.191',1800.900
'0:23.195',1830.038
'0:23.199',1858.337
'0:23.203',1885.709
'0:23.207',1912.154
'0:23.211',1937.451
'0:23.215',1961.379
'0:23.219',1983.586
'0:23.223',2003.806
'0:23.227',2021.906
'0:23.230',2037.623
'0:23.234',2050.735
'0:23.238',2061.154
'0:23.242',2068.748
'0:23.246',2073.560
'0:23.250',2075.723
'0:23.254',2075.414
'0:23.258',2072.809
'0:23.262',2068.174
'0:23.266',2061.596
'0:23.270',2053.119
'0:23.273',2042.700
'0:23.277',2030.339
'0:23.281',2016.167
'0:23.285',2000.185
'0:23.289',1982.394
'0:23.293',1962.703
'0:23.297',1941.336
'0:23.301',1918.379
'0:23.305',1894.141
'0:23.309',1868.800
'0:23.313',1842.708
'0:23.316',1816.308
'0:23.320',1789.951
'0:23.324',1763.815
'0:23.328',1738.032
'0:23.332',1712.603
'0:23.336',1687.483
'0:23.340',1662.583
'0:23.344',1638.036
'0:23.348',1613.931
'0:23.352',1590.533
'0:23.355',1568.017
'0:23.359',1546.561
'0:23.363',1526.297
'0:23.367',1507.401
'0:23.371',1490.007
'0:23.375',1474.423
'0:23.379',1460.913
'0:23.383',1449.876
'0:23.387',1441.356
'0:23.391',1435.175
'0:23.395',1431.069
'0:23.398',1428.729
'0:23.402',1427.890
'0:23.406',1428.332
'0:23.410',1429.877
'0:23.414',1432.482
'0:23.418',1436.014
'0:23.422',1440.252
'0:23.426',1445.020
'0:23.430',1450.097
'0:23.434',1455.130
'0:23.438',1459.633
'0:23.441',1463.165
'0:23.445',1465.196
'0:23.449',1465.461
'0:23.453',1463.739
'0:23.457',1459.810
'0:23.461',1453.673
'0:23.465',1445.329
'0:23.469',1435.131
'0:23.473',1423.431
'0:23.477',1410.628
'0:23.480',1397.031
'0:23.484',1382.771
'0:23.488',1367.893
'0:23.492',1352.176
'0:23.496',1335.267
'0:23.500',1316.813
'0:23.504',1296.461
'0:23.508',1273.901
