'Elapsed time','wrist_ppg'
'hh:mm:ss.mmm','mV'
'0:00.000',1333.949
'0:00.004',1329.848
'0:00.008',1326.501
'0:00.012',1324.005
'0:00.016',1322.301
'0:00.020',1321.349
'0:00.023',1321.118
'0:00.027',1321.449
'0:00.031',1322.010
'0:00.035',1322.464
'0:00.039',1322.595
'0:00.043',1322.361
'0:00.047',1321.895
'0:00.051',1321.341
'0:00.055',1320.752
'0:00.059',1320.119
'0:00.063',1319.482
'0:00.066',1318.989
'0:00.070',1318.786
'0:00.074',1318.810
'0:00.078',1318.833
'0:00.082',1318.682
'0:00.086',1318.384
'0:00.090',1318.105
'0:00.094',1317.906
'0:00.098',1317.707
'0:00.102',1317.452
'0:00.105',1317.261
'0:00.109',1317.345
'0:00.113',1317.806
'0:00.117',1318.487
'0:00.121',1319.056
'0:00.125',1319.255
'0:00.129',1318.993
'0:00.133',1318.308
'0:00.137',1317.400
'0:00.141',1316.568
'0:00.145',1316.055
'0:00.148',1316.035
'0:00.152',1316.560
'0:00.156',1317.476
'0:00.160',1318.463
'0:00.164',1319.208
'0:00.168',1319.622
'0:00.172',1319.797
'0:00.176',1319.900
'0:00.180',1320.048
'0:00.184',1320.314
'0:00.188',1320.740
'0:00.191',1321.353
'0:00.195',1322.150
'0:00.199',1323.073
'0:00.203',1324.056
'0:00.207',1325.012
'0:00.211',1325.888
'0:00.215',1326.676
'0:00.219',1327.400
'0:00.223',1328.165
'0:00.227',1329.168
'0:00.230',1330.553
'0:00.234',1332.229
'0:00.238',1333.885
'0:00.242',1335.223
'0:00.246',1336.158
'0:00.250',1336.751
'0:00.254',1337.014
'0:00.258',1336.899
'0:00.262',1336.437
'0:00.266',1335.764
'0:00.270',1334.948
'0:00.273',1333.909
'0:00.277',1332.528
'0:00.281',1330.784
'0:00.285',1328.829
'0:00.289',1326.938
'0:00.293',1325.362
'0:00.297',1324.188
'0:00.301',1323.352
'0:00.305',1322.723
'0:00.309',1322.181
'0:00.313',1321.636
'0:00.316',1321.114
'0:00.320',1320.732
'0:00.324',1320.585
'0:00.328',1320.708
'0:00.332',1321.107
'0:00.336',1321.736
'0:00.340',1322.544
'0:00.344',1323.483
'0:00.348',1324.454
'0:00.352',1325.271
'0:00.355',1325.740
'0:00.359',1325.812
'0:00.363',1325.637
'0:00.367',1325.501
'0:00.371',1325.629
'0:00.375',1326.051
'0:00.379',1326.660
'0:00.383',1327.277
'0:00.387',1327.655
'0:00.391',1327.536
'0:00.395',1326.724
'0:00.398',1325.163
'0:00.402',1322.882
'0:00.406',1319.948
'0:00.410',1316.533
'0:00.414',1312.910
'0:00.418',1309.459
'0:00.422',1306.592
'0:00.426',1304.693
'0:00.430',1303.957
'0:00.434',1304.383
'0:00.438',1305.772
'0:00.441',1307.810
'0:00.445',1310.064
'0:00.449',1312.110
'0:00.453',1313.670
'0:00.457',1314.650
'0:00.461',1315.064
'0:00.465',1314.992
'0:00.469',1314.677
'0:00.473',1314.494
'0:00.477',1314.721
'0:00.480',1315.374
'0:00.484',1316.206
'0:00.488',1316.879
'0:00.492',1317.193
'0:00.496',1317.146
'0:00.500',1316.859
'0:00.504',1316.445
'0:00.508',1315.876
'0:00.512',1314.988
'0:00.516',1313.595
'0:00.520',1311.636
'0:00.523',1309.267
'0:00.527',1306.847
'0:00.531',1304.829
'0:00.535',1303.511
'0:00.539',1302.910
'0:00.543',1302.807
'0:00.547',1302.950
'0:00.551',1303.165
'0:00.555',1303.280
'0:00.559',1303.125
'0:00.563',1302.651
'0:00.566',1301.983
'0:00.570',1301.338
'0:00.574',1300.916
'0:00.578',1300.788
'0:00.582',1300.868
'0:00.586',1300.987
'0:00.590',1301.055
'0:00.594',1301.087
'0:00.598',1301.115
'0:00.602',1301.139
'0:00.605',1301.151
'0:00.609',1301.083
'0:00.613',1300.784
'0:00.617',1300.155
'0:00.621',1299.220
'0:00.625',1298.093
'0:00.629',1296.931
'0:00.633',1295.800
'0:00.637',1294.690
'0:00.641',1293.599
'0:00.645',1292.624
'0:00.648',1291.887
'0:00.652',1291.405
'0:00.656',1291.019
'0:00.660',1290.530
'0:00.664',1289.901
'0:00.668',1289.343
'0:00.672',1289.104
'0:00.676',1289.280
'0:00.680',1289.857
'0:00.684',1290.828
'0:00.688',1292.245
'0:00.691',1294.208
'0:00.695',1296.736
'0:00.699',1299.642
'0:00.703',1302.608
'0:00.707',1305.358
'0:00.711',1307.711
'0:00.715',1309.574
'0:00.719',1310.908
'0:00.723',1311.644
'0:00.727',1311.716
'0:00.730',1311.158
'0:00.734',1310.211
'0:00.738',1309.236
'0:00.742',1308.551
'0:00.746',1308.324
'0:00.750',1308.591
'0:00.754',1309.283
'0:00.758',1310.259
'0:00.762',1311.314
'0:00.766',1312.293
'0:00.770',1313.197
'0:00.773',1314.144
'0:00.777',1315.247
'0:00.781',1316.501
'0:00.785',1317.814
'0:00.789',1319.056
'0:00.793',1320.091
'0:00.797',1320.856
'0:00.801',1321.397
'0:00.805',1321.755
'0:00.809',1321.946
'0:00.813',1321.982
'0:00.816',1321.931
'0:00.820',1321.867
'0:00.824',1321.791
'0:00.828',1321.700
'0:00.832',1321.616
'0:00.836',1321.572
'0:00.840',1321.612
'0:00.844',1321.803
'0:00.848',1322.213
'0:00.852',1322.890
'0:00.855',1323.833
'0:00.859',1325.040
'0:00.863',1326.524
'0:00.867',1328.177
'0:00.871',1329.765
'0:00.875',1331.039
'0:00.879',1331.855
'0:00.883',1332.213
'0:00.887',1332.189
'0:00.891',1331.843
'0:00.895',1331.206
'0:00.898',1330.370
'0:00.902',1329.554
'0:00.906',1329.040
'0:00.910',1329.005
'0:00.914',1329.403
'0:00.918',1330.055
'0:00.922',1330.872
'0:00.926',1331.859
'0:00.930',1332.954
'0:00.934',1333.861
'0:00.938',1334.223
'0:00.941',1333.853
'0:00.945',1332.790
'0:00.949',1331.186
'0:00.953',1329.148
'0:00.957',1326.811
'0:00.961',1324.343
'0:00.965',1321.835
'0:00.969',1319.236
'0:00.973',1316.481
'0:00.977',1313.579
'0:00.980',1310.657
'0:00.984',1307.902
'0:00.988',1305.446
'0:00.992',1303.344
'0:00.996',1301.572
'0:01.000',1300.076
'0:01.004',1298.766
'0:01.008',1297.572
'0:01.012',1296.477
'0:01.016',1295.541
'0:01.020',1294.785
'0:01.023',1294.200
'0:01.027',1293.790
'0:01.031',1293.519
'0:01.035',1293.288
'0:01.039',1292.994
'0:01.043',1292.532
'0:01.047',1291.855
'0:01.051',1290.991
'0:01.055',1290.000
'0:01.059',1288.957
'0:01.063',1287.922
'0:01.066',1286.939
'0:01.070',1286.063
'0:01.074',1285.382
'0:01.078',1284.984
'0:01.082',1284.921
'0:01.086',1285.239
'0:01.090',1285.928
'0:01.094',1286.927
'0:01.098',1288.149
'0:01.102',1289.522
'0:01.105',1291.003
'0:01.109',1292.600
'0:01.113',1294.347
'0:01.117',1296.254
'0:01.121',1298.276
'0:01.125',1300.247
'0:01.129',1301.883
'0:01.133',1302.962
'0:01.137',1303.539
'0:01.141',1303.953
'0:01.145',1304.725
'0:01.148',1306.334
'0:01.152',1309.013
'0:01.156',1312.691
'0:01.160',1317.138
'0:01.164',1322.102
'0:01.168',1327.277
'0:01.172',1332.281
'0:01.176',1336.715
'0:01.180',1340.290
'0:01.184',1342.858
'0:01.188',1344.355
'0:01.191',1344.765
'0:01.195',1344.096
'0:01.199',1342.416
'0:01.203',1339.884
'0:01.207',1336.751
'0:01.211',1333.352
'0:01.215',1330.083
'0:01.219',1327.245
'0:01.223',1324.904
'0:01.227',1322.970
'0:01.230',1321.369
'0:01.234',1320.191
'0:01.238',1319.646
'0:01.242',1319.888
'0:01.246',1320.915
'0:01.250',1322.552
'0:01.254',1324.554
'0:01.258',1326.763
'0:01.262',1329.120
'0:01.266',1331.560
'0:01.270',1334.028
'0:01.273',1336.548
'0:01.277',1339.192
'0:01.281',1341.962
'0:01.285',1344.773
'0:01.289',1347.452
'0:01.293',1349.721
'0:01.297',1351.353
'0:01.301',1352.336
'0:01.305',1352.870
'0:01.309',1353.260
'0:01.313',1353.773
'0:01.316',1354.578
'0:01.320',1355.744
'0:01.324',1357.296
'0:01.328',1359.171
'0:01.332',1361.214
'0:01.336',1363.244
'0:01.340',1365.119
'0:01.344',1366.743
'0:01.348',1368.077
'0:01.352',1369.124
'0:01.355',1369.964
'0:01.359',1370.716
'0:01.363',1371.433
'0:01.367',1372.117
'0:01.371',1372.738
'0:01.375',1373.216
'0:01.379',1373.518
'0:01.383',1373.682
'0:01.387',1373.706
'0:01.391',1373.495
'0:01.395',1372.917
'0:01.398',1371.898
'0:01.402',1370.537
'0:01.406',1369.084
'0:01.410',1367.782
'0:01.414',1366.659
'0:01.418',1365.501
'0:01.422',1363.984
'0:01.426',1361.870
'0:01.430',1359.100
'0:01.434',1355.740
'0:01.438',1351.926
'0:01.441',1347.802
'0:01.445',1343.590
'0:01.449',1339.570
'0:01.453',1335.947
'0:01.457',1332.762
'0:01.461',1329.940
'0:01.465',1327.380
'0:01.469',1325.040
'0:01.473',1322.922
'0:01.477',1321.023
'0:01.480',1319.291
'0:01.484',1317.711
'0:01.488',1316.365
'0:01.492',1315.378
'0:01.496',1314.833
'0:01.500',1314.677
'0:01.504',1314.737
'0:01.508',1314.821
'0:01.512',1314.789
'0:01.516',1314.697
'0:01.520',1314.785
'0:01.523',1315.283
'0:01.527',1316.286
'0:01.531',1317.759
'0:01.535',1319.538
'0:01.539',1321.333
'0:01.543',1322.810
'0:01.547',1323.865
'0:01.551',1324.673
'0:01.555',1325.501
'0:01.559',1326.397
'0:01.563',1327.130
'0:01.566',1327.364
'0:01.570',1326.915
'0:01.574',1325.832
'0:01.578',1324.347
'0:01.582',1322.723
'0:01.586',1321.111
'0:01.590',1319.391
'0:01.594',1317.285
'0:01.598',1314.638
'0:01.602',1311.572
'0:01.605',1308.435
'0:01.609',1305.653
'0:01.613',1303.579
'0:01.617',1302.385
'0:01.621',1302.046
'0:01.625',1302.341
'0:01.629',1302.934
'0:01.633',1303.551
'0:01.637',1304.021
'0:01.641',1304.232
'0:01.645',1304.080
'0:01.648',1303.539
'0:01.652',1302.647
'0:01.656',1301.481
'0:01.660',1300.195
'0:01.664',1298.877
'0:01.668',1297.532
'0:01.672',1296.155
'0:01.676',1294.797
'0:01.680',1293.571
'0:01.684',1292.600
'0:01.688',1291.895
'0:01.691',1291.362
'0:01.695',1290.912
'0:01.699',1290.474
'0:01.703',1290.024
'0:01.707',1289.614
'0:01.711',1289.335
'0:01.715',1289.327
'0:01.719',1289.698
'0:01.723',1290.462
'0:01.727',1291.557
'0:01.730',1292.930
'0:01.734',1294.582
'0:01.738',1296.501
'0:01.742',1298.607
'0:01.746',1300.788
'0:01.750',1302.954
'0:01.754',1305.100
'0:01.758',1307.317
'0:01.762',1309.709
'0:01.766',1312.265
'0:01.770',1314.841
'0:01.773',1317.225
'0:01.777',1319.200
'0:01.781',1320.661
'0:01.785',1321.588
'0:01.789',1321.939
'0:01.793',1321.680
'0:01.797',1320.816
'0:01.801',1319.391
'0:01.805',1317.456
'0:01.809',1315.127
'0:01.813',1312.659
'0:01.816',1310.366
'0:01.820',1308.447
'0:01.824',1306.831
'0:01.828',1305.247
'0:01.832',1303.511
'0:01.836',1301.696
'0:01.840',1300.056
'0:01.844',1298.778
'0:01.848',1297.910
'0:01.852',1297.544
'0:01.855',1297.894
'0:01.859',1299.148
'0:01.863',1301.246
'0:01.867',1303.798
'0:01.871',1306.246
'0:01.875',1308.109
'0:01.879',1309.160
'0:01.883',1309.451
'0:01.887',1309.244
'0:01.891',1308.830
'0:01.895',1308.420
'0:01.898',1308.069
'0:01.902',1307.803
'0:01.906',1307.699
'0:01.910',1307.874
'0:01.914',1308.328
'0:01.918',1309.053
'0:01.922',1310.119
'0:01.926',1311.580
'0:01.930',1313.348
'0:01.934',1315.243
'0:01.938',1317.122
'0:01.941',1318.845
'0:01.945',1320.267
'0:01.949',1321.322
'0:01.953',1321.970
'0:01.957',1322.150
'0:01.961',1321.799
'0:01.965',1320.900
'0:01.969',1319.399
'0:01.973',1317.201
'0:01.977',1314.212
'0:01.980',1310.430
'0:01.984',1306.103
'0:01.988',1301.660
'0:01.992',1297.651
'0:01.996',1294.586
'0:02.000',1292.823
'0:02.004',1292.532
'0:02.008',1293.651
'0:02.012',1295.880
'0:02.016',1298.730
'0:02.020',1301.660
'0:02.023',1304.200
'0:02.027',1306.059
'0:02.031',1307.074
'0:02.035',1307.134
'0:02.039',1306.166
'0:02.043',1304.244
'0:02.047',1301.648
'0:02.051',1298.877
'0:02.055',1296.505
'0:02.059',1294.976
'0:02.063',1294.491
'0:02.066',1295.016
'0:02.070',1296.338
'0:02.074',1298.157
'0:02.078',1300.279
'0:02.082',1302.687
'0:02.086',1305.406
'0:02.090',1308.356
'0:02.094',1311.314
'0:02.098',1314.116
'0:02.102',1316.803
'0:02.105',1319.590
'0:02.109',1322.707
'0:02.113',1326.341
'0:02.117',1330.529
'0:02.121',1335.047
'0:02.125',1339.458
'0:02.129',1343.304
'0:02.133',1346.297
'0:02.137',1348.407
'0:02.141',1349.797
'0:02.145',1350.748
'0:02.148',1351.476
'0:02.152',1352.050
'0:02.156',1352.476
'0:02.160',1352.826
'0:02.164',1353.168
'0:02.168',1353.527
'0:02.172',1353.901
'0:02.176',1354.303
'0:02.180',1354.733
'0:02.184',1355.155
'0:02.188',1355.509
'0:02.191',1355.800
'0:02.195',1356.130
'0:02.199',1356.660
'0:02.203',1357.412
'0:02.207',1358.256
'0:02.211',1359.056
'0:02.215',1359.737
'0:02.219',1360.258
'0:02.223',1360.593
'0:02.227',1360.756
'0:02.230',1360.764
'0:02.234',1360.668
'0:02.238',1360.525
'0:02.242',1360.334
'0:02.246',1359.972
'0:02.250',1359.327
'0:02.254',1358.332
'0:02.258',1356.954
'0:02.262',1355.226
'0:02.266',1353.260
'0:02.270',1351.190
'0:02.273',1349.160
'0:02.277',1347.261
'0:02.281',1345.505
'0:02.285',1343.869
'0:02.289',1342.408
'0:02.293',1341.305
'0:02.297',1340.776
'0:02.301',1340.903
'0:02.305',1341.560
'0:02.309',1342.448
'0:02.313',1343.228
'0:02.316',1343.654
'0:02.320',1343.646
'0:02.324',1343.264
'0:02.328',1342.551
'0:02.332',1341.524
'0:02.336',1340.223
'0:02.340',1338.690
'0:02.344',1336.986
'0:02.348',1335.207
'0:02.352',1333.499
'0:02.355',1331.970
'0:02.359',1330.688
'0:02.363',1329.697
'0:02.367',1329.036
'0:02.371',1328.686
'0:02.375',1328.559
'0:02.379',1328.483
'0:02.383',1328.308
'0:02.387',1328.005
'0:02.391',1327.679
'0:02.395',1327.488
'0:02.398',1327.540
'0:02.402',1327.846
'0:02.406',1328.312
'0:02.410',1328.762
'0:02.414',1328.993
'0:02.418',1328.861
'0:02.422',1328.316
'0:02.426',1327.396
'0:02.430',1326.142
'0:02.434',1324.534
'0:02.438',1322.540
'0:02.441',1320.199
'0:02.445',1317.695
'0:02.449',1315.366
'0:02.453',1313.575
'0:02.457',1312.683
'0:02.461',1312.958
'0:02.465',1314.439
'0:02.469',1316.887
'0:02.473',1319.853
'0:02.477',1322.822
'0:02.480',1325.326
'0:02.484',1327.038
'0:02.488',1327.786
'0:02.492',1327.528
'0:02.496',1326.325
'0:02.500',1324.391
'0:02.504',1322.058
'0:02.508',1319.689
'0:02.512',1317.516
'0:02.516',1315.609
'0:02.520',1313.941
'0:02.523',1312.516
'0:02.527',1311.449
'0:02.531',1310.935
'0:02.535',1311.095
'0:02.539',1311.863
'0:02.543',1312.990
'0:02.547',1314.212
'0:02.551',1315.438
'0:02.555',1316.763
'0:02.559',1318.256
'0:02.563',1319.785
'0:02.566',1321.130
'0:02.570',1322.150
'0:02.574',1322.834
'0:02.578',1323.256
'0:02.582',1323.479
'0:02.586',1323.547
'0:02.590',1323.392
'0:02.594',1322.818
'0:02.598',1321.564
'0:02.602',1319.415
'0:02.605',1316.314
'0:02.609',1312.416
'0:02.613',1308.113
'0:02.617',1303.925
'0:02.621',1300.303
'0:02.625',1297.520
'0:02.629',1295.705
'0:02.633',1294.857
'0:02.637',1294.873
'0:02.641',1295.577
'0:02.645',1296.716
'0:02.648',1297.946
'0:02.652',1298.949
'0:02.656',1299.582
'0:02.660',1299.873
'0:02.664',1299.869
'0:02.668',1299.554
'0:02.672',1298.889
'0:02.676',1297.826
'0:02.680',1296.381
'0:02.684',1294.642
'0:02.688',1292.751
'0:02.691',1290.888
'0:02.695',1289.216
'0:02.699',1287.858
'0:02.703',1286.839
'0:02.707',1286.103
'0:02.711',1285.573
'0:02.715',1285.231
'0:02.719',1285.104
'0:02.723',1285.179
'0:02.727',1285.414
'0:02.730',1285.772
'0:02.734',1286.258
'0:02.738',1286.895
'0:02.742',1287.723
'0:02.746',1288.770
'0:02.750',1290.048
'0:02.754',1291.537
'0:02.758',1293.185
'0:02.762',1294.920
'0:02.766',1296.640
'0:02.770',1298.189
'0:02.773',1299.459
'0:02.777',1300.510
'0:02.781',1301.557
'0:02.785',1302.803
'0:02.789',1304.279
'0:02.793',1305.832
'0:02.797',1307.265
'0:02.801',1308.451
'0:02.805',1309.387
'0:02.809',1310.135
'0:02.813',1310.760
'0:02.816',1311.393
'0:02.820',1312.285
'0:02.824',1313.686
'0:02.828',1315.597
'0:02.832',1317.735
'0:02.836',1319.697
'0:02.840',1321.158
'0:02.844',1321.923
'0:02.848',1321.927
'0:02.852',1321.238
'0:02.855',1320.048
'0:02.859',1318.654
'0:02.863',1317.297
'0:02.867',1316.138
'0:02.871',1315.326
'0:02.875',1314.932
'0:02.879',1314.821
'0:02.883',1314.685
'0:02.887',1314.307
'0:02.891',1313.710
'0:02.895',1313.117
'0:02.898',1312.802
'0:02.902',1312.958
'0:02.906',1313.646
'0:02.910',1314.741
'0:02.914',1316.003
'0:02.918',1317.217
'0:02.922',1318.288
'0:02.926',1319.168
'0:02.930',1319.789
'0:02.934',1320.056
'0:02.938',1319.908
'0:02.941',1319.303
'0:02.945',1318.220
'0:02.949',1316.684
'0:02.953',1314.737
'0:02.957',1312.440
'0:02.961',1309.892
'0:02.965',1307.257
'0:02.969',1304.829
'0:02.973',1302.958
'0:02.977',1301.887
'0:02.980',1301.664
'0:02.984',1302.126
'0:02.988',1302.978
'0:02.992',1304.013
'0:02.996',1305.235
'0:03.000',1306.795
'0:03.004',1308.750
'0:03.008',1310.995
'0:03.012',1313.360
'0:03.016',1315.748
'0:03.020',1318.145
'0:03.023',1320.533
'0:03.027',1322.830
'0:03.031',1324.908
'0:03.035',1326.652
'0:03.039',1327.997
'0:03.043',1328.949
'0:03.047',1329.526
'0:03.051',1329.745
'0:03.055',1329.649
'0:03.059',1329.295
'0:03.063',1328.766
'0:03.066',1328.077
'0:03.070',1327.157
'0:03.074',1325.876
'0:03.078',1324.164
'0:03.082',1322.070
'0:03.086',1319.781
'0:03.090',1317.599
'0:03.094',1315.888
'0:03.098',1314.932
'0:03.102',1314.896
'0:03.105',1315.784
'0:03.109',1317.432
'0:03.113',1319.478
'0:03.117',1321.465
'0:03.121',1323.029
'0:03.125',1324.001
'0:03.129',1324.379
'0:03.133',1324.287
'0:03.137',1323.921
'0:03.141',1323.439
'0:03.145',1322.854
'0:03.148',1322.070
'0:03.152',1320.987
'0:03.156',1319.614
'0:03.160',1318.073
'0:03.164',1316.572
'0:03.168',1315.263
'0:03.172',1314.176
'0:03.176',1313.256
'0:03.180',1312.480
'0:03.184',1311.851
'0:03.188',1311.417
'0:03.191',1311.186
'0:03.195',1311.099
'0:03.199',1311.075
'0:03.203',1311.099
'0:03.207',1311.214
'0:03.211',1311.469
'0:03.215',1311.855
'0:03.219',1312.305
'0:03.223',1312.755
'0:03.227',1313.205
'0:03.230',1313.682
'0:03.234',1314.192
'0:03.238',1314.769
'0:03.242',1315.541
'0:03.246',1316.724
'0:03.250',1318.531
'0:03.254',1321.027
'0:03.258',1323.953
'0:03.262',1326.819
'0:03.266',1329.108
'0:03.270',1330.462
'0:03.273',1330.756
'0:03.277',1330.127
'0:03.281',1328.949
'0:03.285',1327.691
'0:03.289',1326.759
'0:03.293',1326.377
'0:03.297',1326.509
'0:03.301',1326.855
'0:03.305',1327.010
'0:03.309',1326.716
'0:03.313',1325.955
'0:03.316',1324.777
'0:03.320',1323.220
'0:03.324',1321.357
'0:03.328',1319.319
'0:03.332',1317.245
'0:03.336',1315.259
'0:03.340',1313.459
'0:03.344',1311.959
'0:03.348',1310.872
'0:03.352',1310.302
'0:03.355',1310.275
'0:03.359',1310.728
'0:03.363',1311.541
'0:03.367',1312.548
'0:03.371',1313.595
'0:03.375',1314.554
'0:03.379',1315.259
'0:03.383',1315.454
'0:03.387',1314.988
'0:03.391',1313.933
'0:03.395',1312.564
'0:03.398',1311.170
'0:03.402',1309.912
'0:03.406',1308.909
'0:03.410',1308.352
'0:03.414',1308.420
'0:03.418',1309.136
'0:03.422',1310.390
'0:03.426',1312.038
'0:03.430',1313.981
'0:03.434',1316.059
'0:03.438',1318.001
'0:03.441',1319.518
'0:03.445',1320.398
'0:03.449',1320.557
'0:03.453',1320.028
'0:03.457',1318.953
'0:03.461',1317.536
'0:03.465',1315.959
'0:03.469',1314.379
'0:03.473',1312.882
'0:03.477',1311.525
'0:03.480',1310.366
'0:03.484',1309.459
'0:03.488',1308.830
'0:03.492',1308.424
'0:03.496',1308.045
'0:03.500',1307.512
'0:03.504',1306.851
'0:03.508',1306.298
'0:03.512',1306.111
'0:03.516',1306.381
'0:03.520',1307.066
'0:03.523',1308.061
'0:03.527',1309.208
'0:03.531',1310.350
'0:03.535',1311.449
'0:03.539',1312.627
'0:03.543',1314.009
'0:03.547',1315.557
'0:03.551',1316.986
'0:03.555',1317.894
'0:03.559',1317.974
'0:03.563',1317.193
'0:03.566',1315.764
'0:03.570',1314.072
'0:03.574',1312.504
'0:03.578',1311.314
'0:03.582',1310.665
'0:03.586',1310.589
'0:03.590',1311.019
'0:03.594',1311.799
'0:03.598',1312.703
'0:03.602',1313.479
'0:03.605',1313.933
'0:03.609',1313.941
'0:03.613',1313.451
'0:03.617',1312.476
'0:03.621',1311.051
'0:03.625',1309.331
'0:03.629',1307.651
'0:03.633',1306.489
'0:03.637',1306.218
'0:03.641',1307.034
'0:03.645',1308.941
'0:03.648',1311.744
'0:03.652',1315.024
'0:03.656',1318.236
'0:03.660',1320.904
'0:03.664',1322.675
'0:03.668',1323.328
'0:03.672',1322.818
'0:03.676',1321.266
'0:03.680',1318.929
'0:03.684',1316.182
'0:03.688',1313.427
'0:03.691',1310.955
'0:03.695',1308.913
'0:03.699',1307.341
'0:03.703',1306.166
'0:03.707',1305.271
'0:03.711',1304.610
'0:03.715',1304.164
'0:03.719',1303.889
'0:03.723',1303.746
'0:03.727',1303.678
'0:03.730',1303.607
'0:03.734',1303.436
'0:03.738',1303.089
'0:03.742',1302.532
'0:03.746',1301.811
'0:03.750',1301.039
'0:03.754',1300.410
'0:03.758',1300.127
'0:03.762',1300.382
'0:03.766',1301.338
'0:03.770',1303.089
'0:03.773',1305.553
'0:03.777',1308.443
'0:03.781',1311.405
'0:03.785',1314.200
'0:03.789',1316.724
'0:03.793',1318.877
'0:03.797',1320.569
'0:03.801',1321.779
'0:03.805',1322.532
'0:03.809',1322.842
'0:03.813',1322.739
'0:03.816',1322.293
'0:03.820',1321.632
'0:03.824',1320.852
'0:03.828',1319.928
'0:03.832',1318.857
'0:03.836',1317.834
'0:03.840',1317.221
'0:03.844',1317.376
'0:03.848',1318.392
'0:03.852',1320.020
'0:03.855',1321.779
'0:03.859',1323.185
'0:03.863',1323.893
'0:03.867',1323.722
'0:03.871',1322.651
'0:03.875',1320.780
'0:03.879',1318.324
'0:03.883',1315.589
'0:03.887',1312.990
'0:03.891',1310.943
'0:03.895',1309.713
'0:03.898',1309.228
'0:03.902',1309.200
'0:03.906',1309.359
'0:03.910',1309.522
'0:03.914',1309.474
'0:03.918',1309.025
'0:03.922',1308.161
'0:03.926',1306.974
'0:03.930',1305.518
'0:03.934',1303.905
'0:03.938',1302.420
'0:03.941',1301.485
'0:03.945',1301.437
'0:03.949',1302.436
'0:03.953',1304.415
'0:03.957',1307.046
'0:03.961',1309.841
'0:03.965',1312.325
'0:03.969',1314.228
'0:03.973',1315.513
'0:03.977',1316.302
'0:03.980',1316.664
'0:03.984',1316.588
'0:03.988',1316.130
'0:03.992',1315.482
'0:03.996',1314.817
'0:04.000',1314.220
'0:04.004',1313.702
'0:04.008',1313.264
'0:04.012',1312.910
'0:04.016',1312.687
'0:04.020',1312.699
'0:04.023',1313.057
'0:04.027',1313.841
'0:04.031',1315.103
'0:04.035',1316.823
'0:04.039',1318.909
'0:04.043',1321.134
'0:04.047',1323.173
'0:04.051',1324.689
'0:04.055',1325.442
'0:04.059',1325.318
'0:04.063',1324.363
'0:04.066',1322.802
'0:04.070',1320.963
'0:04.074',1319.168
'0:04.078',1317.603
'0:04.082',1316.282
'0:04.086',1315.060
'0:04.090',1313.734
'0:04.094',1312.201
'0:04.098',1310.533
'0:04.102',1308.961
'0:04.105',1307.763
'0:04.109',1307.174
'0:04.113',1307.329
'0:04.117',1308.189
'0:04.121',1309.518
'0:04.125',1310.927
'0:04.129',1312.074
'0:04.133',1312.826
'0:04.137',1313.236
'0:04.141',1313.396
'0:04.145',1313.443
'0:04.148',1313.595
'0:04.152',1314.064
'0:04.156',1314.912
'0:04.160',1316.027
'0:04.164',1317.221
'0:04.168',1318.336
'0:04.172',1319.224
'0:04.176',1319.761
'0:04.180',1319.920
'0:04.184',1319.749
'0:04.188',1319.395
'0:04.191',1319.084
'0:04.195',1318.973
'0:04.199',1319.060
'0:04.203',1319.240
'0:04.207',1319.379
'0:04.211',1319.335
'0:04.215',1318.961
'0:04.219',1318.121
'0:04.223',1316.664
'0:04.227',1314.542
'0:04.230',1311.891
'0:04.234',1308.997
'0:04.238',1306.190
'0:04.242',1303.786
'0:04.246',1302.094
'0:04.250',1301.354
'0:04.254',1301.608
'0:04.258',1302.671
'0:04.262',1304.252
'0:04.266',1306.083
'0:04.270',1307.890
'0:04.273',1309.343
'0:04.277',1310.135
'0:04.281',1310.163
'0:04.285',1309.522
'0:04.289',1308.451
'0:04.293',1307.229
'0:04.297',1306.107
'0:04.301',1305.314
'0:04.305',1305.020
'0:04.309',1305.227
'0:04.313',1305.808
'0:04.316',1306.560
'0:04.320',1307.265
'0:04.324',1307.814
'0:04.328',1308.228
'0:04.332',1308.495
'0:04.336',1308.495
'0:04.340',1308.197
'0:04.344',1307.783
'0:04.348',1307.611
'0:04.352',1308.041
'0:04.355',1309.252
'0:04.359',1311.210
'0:04.363',1313.718
'0:04.367',1316.497
'0:04.371',1319.220
'0:04.375',1321.576
'0:04.379',1323.368
'0:04.383',1324.498
'0:04.387',1324.924
'0:04.391',1324.638
'0:04.395',1323.690
'0:04.398',1322.173
'0:04.402',1320.227
'0:04.406',1318.025
'0:04.410',1315.780
'0:04.414',1313.634
'0:04.418',1311.636
'0:04.422',1309.761
'0:04.426',1308.002
'0:04.430',1306.497
'0:04.434',1305.545
'0:04.438',1305.438
'0:04.441',1306.270
'0:04.445',1307.902
'0:04.449',1310.024
'0:04.453',1312.185
'0:04.457',1313.941
'0:04.461',1315.028
'0:04.465',1315.478
'0:04.469',1315.561
'0:04.473',1315.705
'0:04.477',1316.290
'0:04.480',1317.440
'0:04.484',1319.076
'0:04.488',1321.039
'0:04.492',1323.117
'0:04.496',1325.036
'0:04.500',1326.528
'0:04.504',1327.380
'0:04.508',1327.500
'0:04.512',1326.891
'0:04.516',1325.700
'0:04.520',1324.188
'0:04.523',1322.603
'0:04.527',1321.111
'0:04.531',1319.868
'0:04.535',1319.036
'0:04.539',1318.690
'0:04.543',1318.762
'0:04.547',1319.100
'0:04.551',1319.498
'0:04.555',1319.841
'0:04.559',1320.231
'0:04.563',1320.911
'0:04.566',1322.038
'0:04.570',1323.531
'0:04.574',1325.155
'0:04.578',1326.640
'0:04.582',1327.751
'0:04.586',1328.280
'0:04.590',1328.101
'0:04.594',1327.134
'0:04.598',1325.374
'0:04.602',1322.878
'0:04.605',1319.777
'0:04.609',1316.302
'0:04.613',1312.771
'0:04.617',1309.486
'0:04.621',1306.584
'0:04.625',1304.080
'0:04.629',1302.130
'0:04.633',1301.035
'0:04.637',1301.107
'0:04.641',1302.448
'0:04.645',1304.920
'0:04.648',1308.141
'0:04.652',1311.588
'0:04.656',1314.765
'0:04.660',1317.309
'0:04.664',1319.033
'0:04.668',1319.920
'0:04.672',1320.091
'0:04.676',1319.737
'0:04.680',1319.100
'0:04.684',1318.519
'0:04.688',1318.352
'0:04.691',1318.770
'0:04.695',1319.618
'0:04.699',1320.561
'0:04.703',1321.298
'0:04.707',1321.664
'0:04.711',1321.624
'0:04.715',1321.314
'0:04.719',1320.959
'0:04.723',1320.732
'0:04.727',1320.657
'0:04.730',1320.621
'0:04.734',1320.430
'0:04.738',1319.932
'0:04.742',1319.112
'0:04.746',1318.077
'0:04.750',1317.046
'0:04.754',1316.234
'0:04.758',1315.752
'0:04.762',1315.545
'0:04.766',1315.541
'0:04.770',1315.712
'0:04.773',1316.007
'0:04.777',1316.270
'0:04.781',1316.266
'0:04.785',1315.840
'0:04.789',1314.944
'0:04.793',1313.595
'0:04.797',1311.871
'0:04.801',1309.976
'0:04.805',1308.205
'0:04.809',1306.831
'0:04.813',1305.932
'0:04.816',1305.358
'0:04.820',1304.912
'0:04.824',1304.554
'0:04.828',1304.399
'0:04.832',1304.594
'0:04.836',1305.203
'0:04.840',1306.051
'0:04.844',1306.807
'0:04.848',1307.213
'0:04.852',1307.217
'0:04.855',1306.955
'0:04.859',1306.724
'0:04.863',1306.863
'0:04.867',1307.548
'0:04.871',1308.654
'0:04.875',1309.817
'0:04.879',1310.713
'0:04.883',1311.218
'0:04.887',1311.405
'0:04.891',1311.373
'0:04.895',1311.194
'0:04.898',1310.959
'0:04.902',1310.812
'0:04.906',1310.840
'0:04.910',1311.091
'0:04.914',1311.600
'0:04.918',1312.416
'0:04.922',1313.575
'0:04.926',1315.099
'0:04.930',1316.974
'0:04.934',1319.152
'0:04.938',1321.493
'0:04.941',1323.782
'0:04.945',1325.820
'0:04.949',1327.464
'0:04.953',1328.602
'0:04.957',1329.132
'0:04.961',1328.933
'0:04.965',1327.926
'0:04.969',1326.075
'0:04.973',1323.439
'0:04.977',1320.195
'0:04.980',1316.632
'0:04.984',1313.049
'0:04.988',1309.689
'0:04.992',1306.803
'0:04.996',1304.753
'0:05.000',1303.873
'0:05.004',1304.287
'0:05.008',1305.816
'0:05.012',1308.006
'0:05.016',1310.283
'0:05.020',1312.122
'0:05.023',1313.232
'0:05.027',1313.615
'0:05.031',1313.515
'0:05.035',1313.153
'0:05.039',1312.532
'0:05.043',1311.529
'0:05.047',1310.111
'0:05.051',1308.424
'0:05.055',1306.612
'0:05.059',1304.797
'0:05.063',1303.197
'0:05.066',1302.134
'0:05.070',1301.819
'0:05.074',1302.197
'0:05.078',1303.002
'0:05.082',1303.929
'0:05.086',1304.904
'0:05.090',1306.099
'0:05.094',1307.723
'0:05.098',1309.785
'0:05.102',1312.066
'0:05.105',1314.248
'0:05.109',1316.055
'0:05.113',1317.297
'0:05.117',1317.866
'0:05.121',1317.775
'0:05.125',1317.177
'0:05.129',1316.381
'0:05.133',1315.732
'0:05.137',1315.498
'0:05.141',1315.776
'0:05.145',1316.493
'0:05.148',1317.496
'0:05.152',1318.662
'0:05.156',1319.876
'0:05.160',1321.031
'0:05.164',1322.058
'0:05.168',1322.982
'0:05.172',1323.861
'0:05.176',1324.701
'0:05.180',1325.430
'0:05.184',1325.943
'0:05.188',1326.158
'0:05.191',1326.039
'0:05.195',1325.661
'0:05.199',1325.107
'0:05.203',1324.403
'0:05.207',1323.543
'0:05.211',1322.512
'0:05.215',1321.341
'0:05.219',1320.068
'0:05.223',1318.770
'0:05.227',1317.583
'0:05.230',1316.700
'0:05.234',1316.266
'0:05.238',1316.318
'0:05.242',1316.771
'0:05.246',1317.504
'0:05.250',1318.348
'0:05.254',1319.180
'0:05.258',1319.996
'0:05.262',1320.768
'0:05.266',1321.310
'0:05.270',1321.333
'0:05.273',1320.681
'0:05.277',1319.423
'0:05.281',1317.838
'0:05.285',1316.302
'0:05.289',1315.099
'0:05.293',1314.351
'0:05.297',1314.033
'0:05.301',1314.029
'0:05.305',1314.164
'0:05.309',1314.315
'0:05.313',1314.459
'0:05.316',1314.610
'0:05.320',1314.781
'0:05.324',1315.016
'0:05.328',1315.338
'0:05.332',1315.724
'0:05.336',1316.186
'0:05.340',1316.751
'0:05.344',1317.329
'0:05.348',1317.723
'0:05.352',1317.842
'0:05.355',1317.771
'0:05.359',1317.647
'0:05.363',1317.476
'0:05.367',1317.165
'0:05.371',1316.668
'0:05.375',1315.987
'0:05.379',1315.135
'0:05.383',1314.216
'0:05.387',1313.463
'0:05.391',1313.137
'0:05.395',1313.372
'0:05.398',1314.056
'0:05.402',1314.869
'0:05.406',1315.466
'0:05.410',1315.617
'0:05.414',1315.227
'0:05.418',1314.271
'0:05.422',1312.826
'0:05.426',1311.087
'0:05.430',1309.315
'0:05.434',1307.747
'0:05.438',1306.489
'0:05.441',1305.557
'0:05.445',1304.877
'0:05.449',1304.331
'0:05.453',1303.834
'0:05.457',1303.356
'0:05.461',1302.930
'0:05.465',1302.572
'0:05.469',1302.301
'0:05.473',1302.114
'0:05.477',1302.006
'0:05.480',1301.998
'0:05.484',1302.134
'0:05.488',1302.377
'0:05.492',1302.619
'0:05.496',1302.799
'0:05.500',1302.974
'0:05.504',1303.177
'0:05.508',1303.356
'0:05.512',1303.432
'0:05.516',1303.376
'0:05.520',1303.173
'0:05.523',1302.787
'0:05.527',1302.178
'0:05.531',1301.385
'0:05.535',1300.478
'0:05.539',1299.582
'0:05.543',1298.810
'0:05.547',1298.185
'0:05.551',1297.532
'0:05.555',1296.660
'0:05.559',1295.629
'0:05.563',1294.773
'0:05.566',1294.538
'0:05.570',1295.267
'0:05.574',1297.074
'0:05.578',1299.845
'0:05.582',1303.217
'0:05.586',1306.652
'0:05.590',1309.586
'0:05.594',1311.644
'0:05.598',1312.783
'0:05.602',1313.284
'0:05.605',1313.591
'0:05.609',1314.100
'0:05.613',1314.984
'0:05.617',1316.230
'0:05.621',1317.715
'0:05.625',1319.251
'0:05.629',1320.621
'0:05.633',1321.644
'0:05.637',1322.193
'0:05.641',1322.181
'0:05.645',1321.584
'0:05.648',1320.490
'0:05.652',1319.164
'0:05.656',1317.958
'0:05.660',1317.158
'0:05.664',1316.803
'0:05.668',1316.771
'0:05.672',1317.030
'0:05.676',1317.675
'0:05.680',1318.750
'0:05.684',1320.123
'0:05.688',1321.548
'0:05.691',1322.870
'0:05.695',1323.993
'0:05.699',1324.829
'0:05.703',1325.219
'0:05.707',1325.024
'0:05.711',1324.196
'0:05.715',1322.810
'0:05.719',1321.091
'0:05.723',1319.327
'0:05.727',1317.715
'0:05.730',1316.194
'0:05.734',1314.538
'0:05.738',1312.591
'0:05.742',1310.402
'0:05.746',1308.217
'0:05.750',1306.294
'0:05.754',1304.717
'0:05.758',1303.424
'0:05.762',1302.389
'0:05.766',1301.672
'0:05.770',1301.274
'0:05.773',1301.043
'0:05.777',1300.768
'0:05.781',1300.398
'0:05.785',1300.092
'0:05.789',1300.076
'0:05.793',1300.406
'0:05.797',1300.947
'0:05.801',1301.521
'0:05.805',1302.018
'0:05.809',1302.428
'0:05.813',1302.830
'0:05.816',1303.356
'0:05.820',1304.025
'0:05.824',1304.717
'0:05.828',1305.330
'0:05.832',1305.856
'0:05.836',1306.369
'0:05.840',1306.911
'0:05.844',1307.496
'0:05.848',1308.137
'0:05.852',1308.822
'0:05.855',1309.550
'0:05.859',1310.386
'0:05.863',1311.381
'0:05.867',1312.436
'0:05.871',1313.368
'0:05.875',1314.104
'0:05.879',1314.610
'0:05.883',1314.805
'0:05.887',1314.614
'0:05.891',1314.172
'0:05.895',1313.790
'0:05.898',1313.774
'0:05.902',1314.236
'0:05.906',1315.163
'0:05.910',1316.600
'0:05.914',1318.599
'0:05.918',1321.031
'0:05.922',1323.571
'0:05.926',1325.915
'0:05.930',1327.874
'0:05.934',1329.359
'0:05.938',1330.338
'0:05.941',1330.800
'0:05.945',1330.696
'0:05.949',1329.920
'0:05.953',1328.324
'0:05.957',1325.796
'0:05.961',1322.305
'0:05.965',1317.958
'0:05.969',1313.013
'0:05.973',1307.934
'0:05.977',1303.288
'0:05.980',1299.590
'0:05.984',1297.146
'0:05.988',1296.011
'0:05.992',1295.975
'0:05.996',1296.648
'0:06.000',1297.568
'0:06.004',1298.348
'0:06.008',1298.774
'0:06.012',1298.822
'0:06.016',1298.579
'0:06.020',1298.229
'0:06.023',1297.926
'0:06.027',1297.779
'0:06.031',1297.862
'0:06.035',1298.221
'0:06.039',1298.893
'0:06.043',1299.968
'0:06.047',1301.561
'0:06.051',1303.643
'0:06.055',1305.924
'0:06.059',1307.950
'0:06.063',1309.339
'0:06.066',1309.964
'0:06.070',1309.944
'0:06.074',1309.514
'0:06.078',1308.857
'0:06.082',1308.065
'0:06.086',1307.225
'0:06.090',1306.501
'0:06.094',1306.047
'0:06.098',1305.848
'0:06.102',1305.681
'0:06.105',1305.259
'0:06.109',1304.387
'0:06.113',1303.101
'0:06.117',1301.680
'0:06.121',1300.458
'0:06.125',1299.550
'0:06.129',1298.826
'0:06.133',1298.109
'0:06.137',1297.373
'0:06.141',1296.680
'0:06.145',1296.027
'0:06.148',1295.350
'0:06.152',1294.638
'0:06.156',1293.870
'0:06.160',1293.065
'0:06.164',1292.440
'0:06.168',1292.365
'0:06.172',1293.121
'0:06.176',1294.741
'0:06.180',1297.034
'0:06.184',1299.686
'0:06.188',1302.341
'0:06.191',1304.670
'0:06.195',1306.401
'0:06.199',1307.396
'0:06.203',1307.675
'0:06.207',1307.456
'0:06.211',1307.134
'0:06.215',1307.122
'0:06.219',1307.588
'0:06.223',1308.416
'0:06.227',1309.291
'0:06.230',1309.885
'0:06.234',1309.956
'0:06.238',1309.474
'0:06.242',1308.595
'0:06.246',1307.592
'0:06.250',1306.724
'0:06.254',1306.135
'0:06.258',1305.804
'0:06.262',1305.693
'0:06.266',1305.776
'0:06.270',1306.055
'0:06.273',1306.545
'0:06.277',1307.193
'0:06.281',1307.894
'0:06.285',1308.587
'0:06.289',1309.232
'0:06.293',1309.745
'0:06.297',1310.088
'0:06.301',1310.199
'0:06.305',1309.932
'0:06.309',1309.076
'0:06.313',1307.584
'0:06.316',1305.653
'0:06.320',1303.623
'0:06.324',1301.879
'0:06.328',1300.760
'0:06.332',1300.518
'0:06.336',1301.230
'0:06.340',1302.787
'0:06.344',1304.912
'0:06.348',1307.237
'0:06.352',1309.375
'0:06.355',1310.947
'0:06.359',1311.608
'0:06.363',1311.142
'0:06.367',1309.578
'0:06.371',1307.178
'0:06.375',1304.295
'0:06.379',1301.218
'0:06.383',1298.053
'0:06.387',1294.849
'0:06.391',1291.716
'0:06.395',1288.878
'0:06.398',1286.593
'0:06.402',1285.044
'0:06.406',1284.327
'0:06.410',1284.491
'0:06.414',1285.498
'0:06.418',1287.198
'0:06.422',1289.363
'0:06.426',1291.756
'0:06.430',1294.232
'0:06.434',1296.760
'0:06.438',1299.355
'0:06.441',1302.018
'0:06.445',1304.697
'0:06.449',1307.245
'0:06.453',1309.459
'0:06.457',1311.230
'0:06.461',1312.544
'0:06.465',1313.404
'0:06.469',1313.814
'0:06.473',1313.794
'0:06.477',1313.328
'0:06.480',1312.408
'0:06.484',1311.166
'0:06.488',1309.912
'0:06.492',1309.056
'0:06.496',1308.981
'0:06.500',1309.809
'0:06.504',1311.326
'0:06.508',1313.141
'0:06.512',1314.932
'0:06.516',1316.552
'0:06.520',1317.930
'0:06.523',1318.985
'0:06.527',1319.673
'0:06.531',1320.111
'0:06.535',1320.517
'0:06.539',1321.107
'0:06.543',1321.994
'0:06.547',1323.216
'0:06.551',1324.721
'0:06.555',1326.401
'0:06.559',1328.192
'0:06.563',1330.020
'0:06.566',1331.787
'0:06.570',1333.483
'0:06.574',1335.091
'0:06.578',1336.441
'0:06.582',1337.265
'0:06.586',1337.412
'0:06.590',1336.950
'0:06.594',1336.011
'0:06.598',1334.665
'0:06.602',1332.846
'0:06.605',1330.458
'0:06.609',1327.496
'0:06.613',1324.052
'0:06.617',1320.267
'0:06.621',1316.381
'0:06.625',1312.759
'0:06.629',1309.757
'0:06.633',1307.512
'0:06.637',1305.916
'0:06.641',1304.670
'0:06.645',1303.503
'0:06.648',1302.317
'0:06.652',1301.178
'0:06.656',1300.171
'0:06.660',1299.327
'0:06.664',1298.694
'0:06.668',1298.356
'0:06.672',1298.308
'0:06.676',1298.376
'0:06.680',1298.308
'0:06.684',1298.018
'0:06.688',1297.643
'0:06.691',1297.448
'0:06.695',1297.612
'0:06.699',1298.157
'0:06.703',1299.061
'0:06.707',1300.374
'0:06.711',1302.102
'0:06.715',1304.037
'0:06.719',1305.820
'0:06.723',1307.110
'0:06.727',1307.699
'0:06.730',1307.432
'0:06.734',1306.178
'0:06.738',1303.937
'0:06.742',1300.928
'0:06.746',1297.596
'0:06.750',1294.518
'0:06.754',1292.213
'0:06.758',1291.011
'0:06.762',1291.043
'0:06.766',1292.257
'0:06.770',1294.491
'0:06.773',1297.544
'0:06.777',1301.226
'0:06.781',1305.318
'0:06.785',1309.451
'0:06.789',1313.209
'0:06.793',1316.290
'0:06.797',1318.595
'0:06.801',1320.151
'0:06.805',1321.063
'0:06.809',1321.485
'0:06.813',1321.580
'0:06.816',1321.497
'0:06.820',1321.333
'0:06.824',1321.099
'0:06.828',1320.685
'0:06.832',1319.912
'0:06.836',1318.607
'0:06.840',1316.712
'0:06.844',1314.347
'0:06.848',1311.851
'0:06.852',1309.638
'0:06.855',1308.049
'0:06.859',1307.162
'0:06.863',1306.783
'0:06.867',1306.509
'0:06.871',1305.947
'0:06.875',1304.908
'0:06.879',1303.455
'0:06.883',1301.740
'0:06.887',1299.817
'0:06.891',1297.715
'0:06.895',1295.601
'0:06.898',1293.810
'0:06.902',1292.612
'0:06.906',1292.070
'0:06.910',1292.054
'0:06.914',1292.309
'0:06.918',1292.624
'0:06.922',1292.894
'0:06.926',1293.141
'0:06.930',1293.452
'0:06.934',1293.969
'0:06.938',1294.805
'0:06.941',1295.995
'0:06.945',1297.488
'0:06.949',1299.180
'0:06.953',1300.908
'0:06.957',1302.385
'0:06.961',1303.260
'0:06.965',1303.296
'0:06.969',1302.464
'0:06.973',1300.940
'0:06.977',1298.989
'0:06.980',1296.744
'0:06.984',1294.168
'0:06.988',1291.270
'0:06.992',1288.280
'0:06.996',1285.546
'0:07.000',1283.356
'0:07.004',1281.875
'0:07.008',1281.167
'0:07.012',1281.234
'0:07.016',1282.054
'0:07.020',1283.563
'0:07.023',1285.689
'0:07.027',1288.372
'0:07.031',1291.565
'0:07.035',1295.163
'0:07.039',1298.961
'0:07.043',1302.619
'0:07.047',1305.756
'0:07.051',1308.145
'0:07.055',1309.801
'0:07.059',1310.840
'0:07.063',1311.405
'0:07.066',1311.668
'0:07.070',1311.831
'0:07.074',1312.062
'0:07.078',1312.492
'0:07.082',1313.209
'0:07.086',1314.212
'0:07.090',1315.426
'0:07.094',1316.751
'0:07.098',1318.129
'0:07.102',1319.478
'0:07.105',1320.716
'0:07.109',1321.767
'0:07.113',1322.524
'0:07.117',1322.850
'0:07.121',1322.727
'0:07.125',1322.329
'0:07.129',1321.907
'0:07.133',1321.592
'0:07.137',1321.453
'0:07.141',1321.505
'0:07.145',1321.720
'0:07.148',1322.058
'0:07.152',1322.583
'0:07.156',1323.431
'0:07.160',1324.689
'0:07.164',1326.294
'0:07.168',1327.989
'0:07.172',1329.494
'0:07.176',1330.661
'0:07.180',1331.449
'0:07.184',1331.831
'0:07.188',1331.775
'0:07.191',1331.377
'0:07.195',1330.820
'0:07.199',1330.227
'0:07.203',1329.558
'0:07.207',1328.730
'0:07.211',1327.683
'0:07.215',1326.421
'0:07.219',1325.024
'0:07.223',1323.591
'0:07.227',1322.193
'0:07.230',1320.904
'0:07.234',1319.801
'0:07.238',1318.957
'0:07.242',1318.471
'0:07.246',1318.463
'0:07.250',1319.009
'0:07.254',1319.984
'0:07.258',1321.051
'0:07.262',1321.847
'0:07.266',1322.189
'0:07.270',1322.082
'0:07.273',1321.692
'0:07.277',1321.206
'0:07.281',1320.621
'0:07.285',1319.697
'0:07.289',1318.145
'0:07.293',1315.828
'0:07.297',1312.862
'0:07.301',1309.574
'0:07.305',1306.377
'0:07.309',1303.658
'0:07.313',1301.672
'0:07.316',1300.510
'0:07.320',1300.139
'0:07.324',1300.374
'0:07.328',1300.892
'0:07.332',1301.465
'0:07.336',1302.134
'0:07.340',1303.181
'0:07.344',1304.825
'0:07.348',1307.038
'0:07.352',1309.598
'0:07.355',1312.289
'0:07.359',1314.972
'0:07.363',1317.448
'0:07.367',1319.399
'0:07.371',1320.497
'0:07.375',1320.573
'0:07.379',1319.618
'0:07.383',1317.755
'0:07.387',1315.279
'0:07.391',1312.580
'0:07.395',1310.052
'0:07.398',1308.006
'0:07.402',1306.600
'0:07.406',1305.744
'0:07.410',1305.147
'0:07.414',1304.486
'0:07.418',1303.599
'0:07.422',1302.472
'0:07.426',1301.115
'0:07.430',1299.471
'0:07.434',1297.436
'0:07.438',1295.028
'0:07.441',1292.389
'0:07.445',1289.694
'0:07.449',1287.042
'0:07.453',1284.415
'0:07.457',1281.776
'0:07.461',1279.224
'0:07.465',1276.975
'0:07.469',1275.160
'0:07.473',1273.706
'0:07.477',1272.433
'0:07.480',1271.143
'0:07.484',1269.750
'0:07.488',1268.312
'0:07.492',1266.915
'0:07.496',1265.601
'0:07.500',1264.415
'0:07.504',1263.372
'0:07.508',1262.469
'0:07.512',1261.852
'0:07.516',1261.852
'0:07.520',1262.803
'0:07.523',1264.885
'0:07.527',1268.038
'0:07.531',1272.019
'0:07.535',1276.413
'0:07.539',1280.796
'0:07.543',1284.960
'0:07.547',1288.917
'0:07.551',1292.795
'0:07.555',1296.740
'0:07.559',1300.808
'0:07.563',1304.944
'0:07.566',1309.084
'0:07.570',1313.193
'0:07.574',1317.289
'0:07.578',1321.401
'0:07.582',1325.513
'0:07.586',1329.534
'0:07.590',1333.236
'0:07.594',1336.385
'0:07.598',1338.845
'0:07.602',1340.653
'0:07.605',1341.946
'0:07.609',1342.938
'0:07.613',1343.793
'0:07.617',1344.526
'0:07.621',1344.992
'0:07.625',1345.024
'0:07.629',1344.510
'0:07.633',1343.451
'0:07.637',1341.926
'0:07.641',1340.008
'0:07.645',1337.842
'0:07.648',1335.744
'0:07.652',1334.076
'0:07.656',1333.097
'0:07.660',1332.814
'0:07.664',1333.009
'0:07.668',1333.348
'0:07.672',1333.531
'0:07.676',1333.403
'0:07.680',1332.914
'0:07.684',1332.074
'0:07.688',1330.919
'0:07.691',1329.498
'0:07.695',1327.830
'0:07.699',1325.995
'0:07.703',1324.108
'0:07.707',1322.301
'0:07.711',1320.649
'0:07.715',1319.208
'0:07.719',1318.133
'0:07.723',1317.623
'0:07.727',1317.838
'0:07.730',1318.710
'0:07.734',1319.936
'0:07.738',1321.111
'0:07.742',1321.891
'0:07.746',1322.098
'0:07.750',1321.708
'0:07.754',1320.812
'0:07.758',1319.622
'0:07.762',1318.455
'0:07.766',1317.607
'0:07.770',1317.150
'0:07.773',1316.923
'0:07.777',1316.720
'0:07.781',1316.441
'0:07.785',1316.170
'0:07.789',1316.079
'0:07.793',1316.298
'0:07.797',1316.807
'0:07.801',1317.504
'0:07.805',1318.272
'0:07.809',1319.048
'0:07.813',1319.797
'0:07.816',1320.406
'0:07.820',1320.689
'0:07.824',1320.537
'0:07.828',1319.948
'0:07.832',1319.013
'0:07.836',1317.938
'0:07.840',1317.002
'0:07.844',1316.381
'0:07.848',1316.115
'0:07.852',1316.150
'0:07.855',1316.377
'0:07.859',1316.640
'0:07.863',1316.839
'0:07.867',1316.958
'0:07.871',1316.943
'0:07.875',1316.628
'0:07.879',1315.892
'0:07.883',1314.817
'0:07.887',1313.666
'0:07.891',1312.779
'0:07.895',1312.428
'0:07.898',1312.763
'0:07.902',1313.742
'0:07.906',1315.195
'0:07.910',1316.899
'0:07.914',1318.622
'0:07.918',1320.143
'0:07.922',1321.222
'0:07.926',1321.712
'0:07.930',1321.612
'0:07.934',1321.079
'0:07.938',1320.318
'0:07.941',1319.478
'0:07.945',1318.646
'0:07.949',1317.994
'0:07.953',1317.787
'0:07.957',1318.204
'0:07.961',1319.176
'0:07.965',1320.370
'0:07.969',1321.349
'0:07.973',1321.696
'0:07.977',1321.186
'0:07.980',1319.880
'0:07.984',1318.133
'0:07.988',1316.509
'0:07.992',1315.545
'0:07.996',1315.521
'0:08.000',1316.357
'0:08.004',1317.719
'0:08.008',1319.184
'0:08.012',1320.382
'0:08.016',1321.126
'0:08.020',1321.385
'0:08.023',1321.198
'0:08.027',1320.581
'0:08.031',1319.542
'0:08.035',1318.097
'0:08.039',1316.333
'0:08.043',1314.486
'0:08.047',1312.914
'0:08.051',1311.959
'0:08.055',1311.716
'0:08.059',1311.970
'0:08.063',1312.349
'0:08.066',1312.611
'0:08.070',1312.822
'0:08.074',1313.240
'0:08.078',1314.009
'0:08.082',1314.988
'0:08.086',1315.892
'0:08.090',1316.477
'0:08.094',1316.636
'0:08.098',1316.361
'0:08.102',1315.681
'0:08.105',1314.677
'0:08.109',1313.515
'0:08.113',1312.460
'0:08.117',1311.759
'0:08.121',1311.517
'0:08.125',1311.668
'0:08.129',1312.042
'0:08.133',1312.476
'0:08.137',1312.938
'0:08.141',1313.503
'0:08.145',1314.216
'0:08.148',1315.036
'0:08.152',1315.959
'0:08.156',1317.018
'0:08.160',1318.189
'0:08.164',1319.395
'0:08.168',1320.633
'0:08.172',1321.954
'0:08.176',1323.284
'0:08.180',1324.379
'0:08.184',1324.984
'0:08.188',1324.948
'0:08.191',1324.216
'0:08.195',1322.818
'0:08.199',1320.808
'0:08.203',1318.228
'0:08.207',1315.179
'0:08.211',1311.883
'0:08.215',1308.595
'0:08.219',1305.486
'0:08.223',1302.643
'0:08.227',1300.080
'0:08.230',1297.763
'0:08.234',1295.709
'0:08.238',1293.953
'0:08.242',1292.528
'0:08.246',1291.362
'0:08.250',1290.319
'0:08.254',1289.327
'0:08.258',1288.507
'0:08.262',1288.145
'0:08.266',1288.487
'0:08.270',1289.554
'0:08.273',1291.159
'0:08.277',1293.089
'0:08.281',1295.227
'0:08.285',1297.544
'0:08.289',1300.060
'0:08.293',1302.826
'0:08.297',1305.792
'0:08.301',1308.722
'0:08.305',1311.322
'0:08.309',1313.336
'0:08.313',1314.646
'0:08.316',1315.247
'0:08.320',1315.235
'0:08.324',1314.817
'0:08.328',1314.248
'0:08.332',1313.826
'0:08.336',1313.845
'0:08.340',1314.566
'0:08.344',1316.126
'0:08.348',1318.408
'0:08.352',1321.035
'0:08.355',1323.575
'0:08.359',1325.752
'0:08.363',1327.504
'0:08.367',1328.825
'0:08.371',1329.701
'0:08.375',1330.103
'0:08.379',1330.107
'0:08.383',1329.888
'0:08.387',1329.542
'0:08.391',1329.013
'0:08.395',1328.216
'0:08.398',1327.130
'0:08.402',1325.792
'0:08.406',1324.311
'0:08.410',1322.830
'0:08.414',1321.572
'0:08.418',1320.836
'0:08.422',1320.931
'0:08.426',1321.994
'0:08.430',1323.857
'0:08.434',1326.146
'0:08.438',1328.499
'0:08.441',1330.712
'0:08.445',1332.731
'0:08.449',1334.562
'0:08.453',1336.210
'0:08.457',1337.639
'0:08.461',1338.797
'0:08.465',1339.645
'0:08.469',1340.155
'0:08.473',1340.318
'0:08.477',1340.147
'0:08.480',1339.693
'0:08.484',1339.028
'0:08.488',1338.216
'0:08.492',1337.281
'0:08.496',1336.178
'0:08.500',1334.825
'0:08.504',1333.153
'0:08.508',1331.138
'0:08.512',1328.841
'0:08.516',1326.401
'0:08.520',1323.989
'0:08.523',1321.823
'0:08.527',1320.087
'0:08.531',1318.853
'0:08.535',1318.105
'0:08.539',1317.866
'0:08.543',1318.193
'0:08.547',1319.048
'0:08.551',1320.282
'0:08.555',1321.755
'0:08.559',1323.380
'0:08.563',1325.048
'0:08.566',1326.620
'0:08.570',1327.914
'0:08.574',1328.786
'0:08.578',1329.283
'0:08.582',1329.602
'0:08.586',1329.888
'0:08.590',1330.195
'0:08.594',1330.470
'0:08.598',1330.665
'0:08.602',1330.768
'0:08.605',1330.784
'0:08.609',1330.712
'0:08.613',1330.458
'0:08.617',1329.876
'0:08.621',1328.937
'0:08.625',1327.667
'0:08.629',1326.019
'0:08.633',1323.857
'0:08.637',1321.154
'0:08.641',1318.141
'0:08.645',1315.247
'0:08.648',1312.946
'0:08.652',1311.572
'0:08.656',1311.238
'0:08.660',1311.843
'0:08.664',1313.053
'0:08.668',1314.367
'0:08.672',1315.255
'0:08.676',1315.430
'0:08.680',1314.908
'0:08.684',1313.933
'0:08.688',1312.731
'0:08.691',1311.421
'0:08.695',1310.044
'0:08.699',1308.662
'0:08.703',1307.392
'0:08.707',1306.381
'0:08.711',1305.768
'0:08.715',1305.649
'0:08.719',1306.003
'0:08.723',1306.736
'0:08.727',1307.683
'0:08.730',1308.635
'0:08.734',1309.355
'0:08.738',1309.626
'0:08.742',1309.351
'0:08.746',1308.642
'0:08.750',1307.759
'0:08.754',1306.951
'0:08.758',1306.314
'0:08.762',1305.816
'0:08.766',1305.390
'0:08.770',1304.940
'0:08.773',1304.431
'0:08.777',1303.873
'0:08.781',1303.264
'0:08.785',1302.564
'0:08.789',1301.752
'0:08.793',1300.959
'0:08.797',1300.466
'0:08.801',1300.526
'0:08.805',1301.298
'0:08.809',1302.775
'0:08.813',1304.821
'0:08.816',1307.217
'0:08.820',1309.813
'0:08.824',1312.556
'0:08.828',1315.390
'0:08.832',1318.093
'0:08.836',1320.366
'0:08.840',1322.042
'0:08.844',1323.169
'0:08.848',1323.865
'0:08.852',1324.196
'0:08.855',1324.188
'0:08.859',1323.909
'0:08.863',1323.559
'0:08.867',1323.392
'0:08.871',1323.579
'0:08.875',1324.076
'0:08.879',1324.765
'0:08.883',1325.625
'0:08.887',1326.712
'0:08.891',1328.017
'0:08.895',1329.446
'0:08.898',1330.939
'0:08.902',1332.468
'0:08.906',1333.941
'0:08.910',1335.119
'0:08.914',1335.744
'0:08.918',1335.692
'0:08.922',1335.028
'0:08.926',1333.905
'0:08.930',1332.492
'0:08.934',1330.887
'0:08.938',1329.188
'0:08.941',1327.536
'0:08.945',1326.031
'0:08.949',1324.586
'0:08.953',1323.005
'0:08.957',1321.194
'0:08.961',1319.287
'0:08.965',1317.548
'0:08.969',1316.130
'0:08.973',1314.988
'0:08.977',1314.029
'0:08.980',1313.268
'0:08.984',1312.751
'0:08.988',1312.408
'0:08.992',1312.130
'0:08.996',1311.927
'0:09.000',1311.891
'0:09.004',1312.078
'0:09.008',1312.456
'0:09.012',1312.906
'0:09.016',1313.244
'0:09.020',1313.296
'0:09.023',1312.986
'0:09.027',1312.337
'0:09.031',1311.473
'0:09.035',1310.458
'0:09.039',1309.379
'0:09.043',1308.404
'0:09.047',1307.703
'0:09.051',1307.369
'0:09.055',1307.420
'0:09.059',1307.826
'0:09.063',1308.479
'0:09.066',1309.176
'0:09.070',1309.737
'0:09.074',1310.060
'0:09.078',1310.103
'0:09.082',1309.900
'0:09.086',1309.689
'0:09.090',1309.873
'0:09.094',1310.784
'0:09.098',1312.516
'0:09.102',1314.880
'0:09.105',1317.552
'0:09.109',1320.167
'0:09.113',1322.464
'0:09.117',1324.391
'0:09.121',1326.035
'0:09.125',1327.444
'0:09.129',1328.463
'0:09.133',1328.865
'0:09.137',1328.515
'0:09.141',1327.444
'0:09.145',1325.848
'0:09.148',1324.068
'0:09.152',1322.532
'0:09.156',1321.584
'0:09.160',1321.357
'0:09.164',1321.716
'0:09.168',1322.329
'0:09.172',1322.870
'0:09.176',1323.149
'0:09.180',1323.157
'0:09.184',1323.029
'0:09.188',1322.982
'0:09.191',1323.129
'0:09.195',1323.380
'0:09.199',1323.531
'0:09.203',1323.427
'0:09.207',1322.982
'0:09.211',1322.098
'0:09.215',1320.728
'0:09.219',1318.949
'0:09.223',1316.970
'0:09.227',1315.016
'0:09.230',1313.240
'0:09.234',1311.724
'0:09.238',1310.498
'0:09.242',1309.598
'0:09.246',1308.977
'0:09.250',1308.507
'0:09.254',1308.061
'0:09.258',1307.615
'0:09.262',1307.209
'0:09.266',1306.907
'0:09.270',1306.744
'0:09.273',1306.700
'0:09.277',1306.764
'0:09.281',1307.002
'0:09.285',1307.588
'0:09.289',1308.698
'0:09.293',1310.418
'0:09.297',1312.643
'0:09.301',1315.195
'0:09.305',1317.902
'0:09.309',1320.649
'0:09.313',1323.288
'0:09.316',1325.565
'0:09.320',1327.145
'0:09.324',1327.778
'0:09.328',1327.376
'0:09.332',1326.023
'0:09.336',1323.961
'0:09.340',1321.529
'0:09.344',1319.100
'0:09.348',1317.066
'0:09.352',1315.800
'0:09.355',1315.533
'0:09.359',1316.262
'0:09.363',1317.703
'0:09.367',1319.439
'0:09.371',1321.099
'0:09.375',1322.404
'0:09.379',1323.161
'0:09.383',1323.284
'0:09.387',1322.862
'0:09.391',1322.118
'0:09.395',1321.373
'0:09.398',1320.892
'0:09.402',1320.700
'0:09.406',1320.689
'0:09.410',1320.828
'0:09.414',1321.278
'0:09.418',1322.253
'0:09.422',1323.758
'0:09.426',1325.501
'0:09.430',1327.054
'0:09.434',1328.033
'0:09.438',1328.137
'0:09.441',1327.157
'0:09.445',1325.060
'0:09.449',1322.034
'0:09.453',1318.495
'0:09.457',1314.992
'0:09.461',1312.070
'0:09.465',1310.123
'0:09.469',1309.307
'0:09.473',1309.514
'0:09.477',1310.454
'0:09.480',1311.839
'0:09.484',1313.491
'0:09.488',1315.322
'0:09.492',1317.249
'0:09.496',1319.172
'0:09.500',1320.979
'0:09.504',1322.643
'0:09.508',1324.224
'0:09.512',1325.780
'0:09.516',1327.233
'0:09.520',1328.372
'0:09.523',1328.981
'0:09.527',1328.933
'0:09.531',1328.252
'0:09.535',1327.098
'0:09.539',1325.756
'0:09.543',1324.610
'0:09.547',1323.949
'0:09.551',1323.802
'0:09.555',1323.965
'0:09.559',1324.200
'0:09.563',1324.351
'0:09.566',1324.307
'0:09.570',1323.973
'0:09.574',1323.276
'0:09.578',1322.253
'0:09.582',1321.071
'0:09.586',1320.048
'0:09.590',1319.470
'0:09.594',1319.435
'0:09.598',1319.821
'0:09.602',1320.354
'0:09.605',1320.776
'0:09.609',1320.991
'0:09.613',1321.150
'0:09.617',1321.465
'0:09.621',1321.939
'0:09.625',1322.281
'0:09.629',1322.102
'0:09.633',1321.091
'0:09.637',1319.164
'0:09.641',1316.489
'0:09.645',1313.483
'0:09.648',1310.689
'0:09.652',1308.583
'0:09.656',1307.377
'0:09.660',1306.963
'0:09.664',1307.026
'0:09.668',1307.285
'0:09.672',1307.580
'0:09.676',1307.814
'0:09.680',1307.994
'0:09.684',1308.213
'0:09.688',1308.515
'0:09.691',1308.842
'0:09.695',1309.184
'0:09.699',1309.610
'0:09.703',1310.127
'0:09.707',1310.637
'0:09.711',1311.071
'0:09.715',1311.469
'0:09.719',1311.939
'0:09.723',1312.631
'0:09.727',1313.615
'0:09.730',1314.737
'0:09.734',1315.685
'0:09.738',1316.214
'0:09.742',1316.333
'0:09.746',1316.222
'0:09.750',1315.971
'0:09.754',1315.541
'0:09.758',1314.920
'0:09.762',1314.279
'0:09.766',1313.941
'0:09.770',1314.315
'0:09.773',1315.705
'0:09.777',1318.117
'0:09.781',1321.202
'0:09.785',1324.415
'0:09.789',1327.201
'0:09.793',1329.168
'0:09.797',1330.099
'0:09.801',1329.956
'0:09.805',1328.829
'0:09.809',1326.903
'0:09.813',1324.474
'0:09.816',1321.915
'0:09.820',1319.598
'0:09.824',1317.842
'0:09.828',1316.903
'0:09.832',1316.947
'0:09.836',1318.013
'0:09.840',1319.932
'0:09.844',1322.392
'0:09.848',1325.064
'0:09.852',1327.695
'0:09.855',1330.059
'0:09.859',1331.978
'0:09.863',1333.272
'0:09.867',1333.801
'0:09.871',1333.598
'0:09.875',1332.894
'0:09.879',1332.066
'0:09.883',1331.453
'0:09.887',1331.194
'0:09.891',1331.254
'0:09.895',1331.564
'0:09.898',1332.086
'0:09.902',1332.739
'0:09.906',1333.403
'0:09.910',1333.941
'0:09.914',1334.215
'0:09.918',1334.108
'0:09.922',1333.535
'0:09.926',1332.456
'0:09.930',1330.880
'0:09.934',1328.877
'0:09.938',1326.600
'0:09.941',1324.232
'0:09.945',1321.839
'0:09.949',1319.347
'0:09.953',1316.688
'0:09.957',1313.901
'0:09.961',1311.146
'0:09.965',1308.603
'0:09.969',1306.373
'0:09.973',1304.415
'0:09.977',1302.596
'0:09.980',1300.888
'0:09.984',1299.375
'0:09.988',1298.189
'0:09.992',1297.492
'0:09.996',1297.428
'0:10.000',1298.069
'0:10.004',1299.403
'0:10.008',1301.290
'0:10.012',1303.535
'0:10.016',1306.039
'0:10.020',1308.814
'0:10.023',1311.919
'0:10.027',1315.390
'0:10.031',1319.136
'0:10.035',1322.878
'0:10.039',1326.282
'0:10.043',1329.136
'0:10.047',1331.337
'0:10.051',1332.906
'0:10.055',1333.921
'0:10.059',1334.462
'0:10.063',1334.554
'0:10.066',1334.172
'0:10.070',1333.304
'0:10.074',1332.046
'0:10.078',1330.637
'0:10.082',1329.411
'0:10.086',1328.710
'0:10.090',1328.726
'0:10.094',1329.438
'0:10.098',1330.577
'0:10.102',1331.735
'0:10.105',1332.587
'0:10.109',1332.997
'0:10.113',1333.005
'0:10.117',1332.631
'0:10.121',1331.747
'0:10.125',1330.243
'0:10.129',1328.212
'0:10.133',1325.979
'0:10.137',1323.905
'0:10.141',1322.157
'0:10.145',1320.708
'0:10.148',1319.526
'0:10.152',1318.666
'0:10.156',1318.185
'0:10.160',1318.069
'0:10.164',1318.268
'0:10.168',1318.702
'0:10.172',1319.208
'0:10.176',1319.646
'0:10.180',1319.992
'0:10.184',1320.318
'0:10.188',1320.736
'0:10.191',1321.385
'0:10.195',1322.325
'0:10.199',1323.439
'0:10.203',1324.510
'0:10.207',1325.438
'0:10.211',1326.266
'0:10.215',1327.138
'0:10.219',1328.161
'0:10.223',1329.279
'0:10.227',1330.239
'0:10.230',1330.708
'0:10.234',1330.462
'0:10.238',1329.450
'0:10.242',1327.802
'0:10.246',1325.784
'0:10.250',1323.738
'0:10.254',1322.062
'0:10.258',1321.114
'0:10.262',1321.083
'0:10.266',1321.895
'0:10.270',1323.196
'0:10.273',1324.506
'0:10.277',1325.442
'0:10.281',1325.848
'0:10.285',1325.796
'0:10.289',1325.450
'0:10.293',1324.984
'0:10.297',1324.530
'0:10.301',1324.224
'0:10.305',1324.251
'0:10.309',1324.837
'0:10.313',1326.118
'0:10.316',1328.009
'0:10.320',1330.195
'0:10.324',1332.253
'0:10.328',1333.845
'0:10.332',1334.773
'0:10.336',1334.996
'0:10.340',1334.582
'0:10.344',1333.662
'0:10.348',1332.424
'0:10.352',1331.043
'0:10.355',1329.630
'0:10.359',1328.300
'0:10.363',1327.213
'0:10.367',1326.473
'0:10.371',1326.055
'0:10.375',1325.872
'0:10.379',1325.808
'0:10.383',1325.752
'0:10.387',1325.692
'0:10.391',1325.772
'0:10.395',1326.198
'0:10.398',1327.042
'0:10.402',1328.188
'0:10.406',1329.454
'0:10.410',1330.740
'0:10.414',1332.006
'0:10.418',1333.180
'0:10.422',1334.188
'0:10.426',1334.952
'0:10.430',1335.426
'0:10.434',1335.545
'0:10.438',1335.199
'0:10.441',1334.279
'0:10.445',1332.683
'0:10.449',1330.326
'0:10.453',1327.165
'0:10.457',1323.216
'0:10.461',1318.603
'0:10.465',1313.607
'0:10.469',1308.678
'0:10.473',1304.359
'0:10.477',1301.035
'0:10.480',1298.802
'0:10.484',1297.556
'0:10.488',1297.114
'0:10.492',1297.285
'0:10.496',1297.858
'0:10.500',1298.535
'0:10.504',1298.965
'0:10.508',1298.885
'0:10.512',1298.300
'0:10.516',1297.416
'0:10.520',1296.465
'0:10.523',1295.565
'0:10.527',1294.769
'0:10.531',1294.116
'0:10.535',1293.619
'0:10.539',1293.280
'0:10.543',1293.097
'0:10.547',1293.089
'0:10.551',1293.268
'0:10.555',1293.619
'0:10.559',1294.057
'0:10.563',1294.483
'0:10.566',1294.865
'0:10.570',1295.231
'0:10.574',1295.613
'0:10.578',1296.051
'0:10.582',1296.565
'0:10.586',1297.094
'0:10.590',1297.619
'0:10.594',1298.173
'0:10.598',1298.734
'0:10.602',1299.164
'0:10.605',1299.375
'0:10.609',1299.387
'0:10.613',1299.291
'0:10.617',1299.104
'0:10.621',1298.806
'0:10.625',1298.412
'0:10.629',1298.037
'0:10.633',1297.823
'0:10.637',1297.807
'0:10.641',1297.890
'0:10.645',1298.010
'0:10.648',1298.268
'0:10.652',1298.838
'0:10.656',1299.721
'0:10.660',1300.713
'0:10.664',1301.576
'0:10.668',1302.261
'0:10.672',1302.882
'0:10.676',1303.559
'0:10.680',1304.287
'0:10.684',1304.976
'0:10.688',1305.514
'0:10.691',1305.776
'0:10.695',1305.653
'0:10.699',1305.187
'0:10.703',1304.646
'0:10.707',1304.383
'0:10.711',1304.590
'0:10.715',1305.231
'0:10.719',1306.178
'0:10.723',1307.385
'0:10.727',1308.873
'0:10.730',1310.573
'0:10.734',1312.221
'0:10.738',1313.427
'0:10.742',1313.830
'0:10.746',1313.284
'0:10.750',1311.951
'0:10.754',1310.251
'0:10.758',1308.678
'0:10.762',1307.611
'0:10.766',1307.217
'0:10.770',1307.460
'0:10.773',1308.145
'0:10.777',1308.961
'0:10.781',1309.638
'0:10.785',1310.103
'0:10.789',1310.462
'0:10.793',1310.832
'0:10.797',1311.326
'0:10.801',1312.118
'0:10.805',1313.392
'0:10.809',1315.346
'0:10.813',1318.097
'0:10.816',1321.568
'0:10.820',1325.418
'0:10.824',1329.172
'0:10.828',1332.400
'0:10.832',1334.793
'0:10.836',1336.174
'0:10.840',1336.508
'0:10.844',1335.903
'0:10.848',1334.518
'0:10.852',1332.528
'0:10.855',1330.155
'0:10.859',1327.695
'0:10.863',1325.390
'0:10.867',1323.344
'0:10.871',1321.596
'0:10.875',1320.179
'0:10.879',1319.104
'0:10.883',1318.372
'0:10.887',1317.942
'0:10.891',1317.711
'0:10.895',1317.516
'0:10.898',1317.241
'0:10.902',1316.871
'0:10.906',1316.556
'0:10.910',1316.576
'0:10.914',1317.197
'0:10.918',1318.547
'0:10.922',1320.545
'0:10.926',1322.910
'0:10.930',1325.179
'0:10.934',1326.879
'0:10.938',1327.751
'0:10.941',1327.818
'0:10.945',1327.321
'0:10.949',1326.536
'0:10.953',1325.708
'0:10.957',1325.071
'0:10.961',1324.753
'0:10.965',1324.725
'0:10.969',1324.900
'0:10.973',1325.219
'0:10.977',1325.613
'0:10.980',1325.967
'0:10.984',1326.190
'0:10.988',1326.206
'0:10.992',1325.955
'0:10.996',1325.394
'0:11.000',1324.582
'0:11.004',1323.702
'0:11.008',1322.970
'0:11.012',1322.544
'0:11.016',1322.540
'0:11.020',1322.934
'0:11.023',1323.471
'0:11.027',1323.754
'0:11.031',1323.451
'0:11.035',1322.376
'0:11.039',1320.545
'0:11.043',1318.169
'0:11.047',1315.561
'0:11.051',1312.970
'0:11.055',1310.569
'0:11.059',1308.567
'0:11.063',1307.150
'0:11.066',1306.346
'0:11.070',1305.983
'0:11.074',1305.868
'0:11.078',1305.836
'0:11.082',1305.788
'0:11.086',1305.701
'0:11.090',1305.625
'0:11.094',1305.609
'0:11.098',1305.577
'0:11.102',1305.314
'0:11.105',1304.630
'0:11.109',1303.555
'0:11.113',1302.397
'0:11.117',1301.541
'0:11.121',1301.158
'0:11.125',1301.131
'0:11.129',1301.222
'0:11.133',1301.318
'0:11.137',1301.429
'0:11.141',1301.565
'0:11.145',1301.708
'0:11.148',1301.923
'0:11.152',1302.337
'0:11.156',1302.974
'0:11.160',1303.706
'0:11.164',1304.391
'0:11.168',1305.028
'0:11.172',1305.649
'0:11.176',1306.178
'0:11.180',1306.473
'0:11.184',1306.449
'0:11.188',1306.103
'0:11.191',1305.518
'0:11.195',1304.861
'0:11.199',1304.371
'0:11.203',1304.228
'0:11.207',1304.502
'0:11.211',1305.239
'0:11.215',1306.549
'0:11.219',1308.467
'0:11.223',1310.864
'0:11.227',1313.567
'0:11.230',1316.405
'0:11.234',1319.156
'0:11.238',1321.620
'0:11.242',1323.674
'0:11.246',1325.251
'0:11.250',1326.306
'0:11.254',1326.807
'0:11.258',1326.731
'0:11.262',1326.075
'0:11.266',1324.896
'0:11.270',1323.324
'0:11.273',1321.529
'0:11.277',1319.693
'0:11.281',1318.057
'0:11.285',1316.871
'0:11.289',1316.278
'0:11.293',1316.150
'0:11.297',1316.234
'0:11.301',1316.361
'0:11.305',1316.509
'0:11.309',1316.680
'0:11.313',1316.783
'0:11.316',1316.712
'0:11.320',1316.501
'0:11.324',1316.322
'0:11.328',1316.274
'0:11.332',1316.250
'0:11.336',1316.011
'0:11.340',1315.390
'0:11.344',1314.431
'0:11.348',1313.443
'0:11.352',1312.834
'0:11.355',1312.858
'0:11.359',1313.503
'0:11.363',1314.558
'0:11.367',1315.792
'0:11.371',1317.058
'0:11.375',1318.280
'0:11.379',1319.407
'0:11.383',1320.406
'0:11.387',1321.254
'0:11.391',1321.887
'0:11.395',1322.181
'0:11.398',1321.998
'0:11.402',1321.258
'0:11.406',1319.992
'0:11.410',1318.252
'0:11.414',1316.063
'0:11.418',1313.555
'0:11.422',1311.043
'0:11.426',1308.853
'0:11.430',1307.158
'0:11.434',1305.935
'0:11.438',1305.060
'0:11.441',1304.502
'0:11.445',1304.383
'0:11.449',1304.769
'0:11.453',1305.561
'0:11.457',1306.541
'0:11.461',1307.576
'0:11.465',1308.638
'0:11.469',1309.654
'0:11.473',1310.382
'0:11.477',1310.525
'0:11.480',1309.920
'0:11.484',1308.674
'0:11.488',1307.142
'0:11.492',1305.808
'0:11.496',1305.060
'0:11.500',1305.032
'0:11.504',1305.621
'0:11.508',1306.588
'0:11.512',1307.715
'0:11.516',1308.941
'0:11.520',1310.366
'0:11.523',1312.086
'0:11.527',1314.120
'0:11.531',1316.318
'0:11.535',1318.328
'0:11.539',1319.773
'0:11.543',1320.398
'0:11.547',1320.179
'0:11.551',1319.331
'0:11.555',1318.216
'0:11.559',1317.217
'0:11.563',1316.596
'0:11.566',1316.441
'0:11.570',1316.692
'0:11.574',1317.197
'0:11.578',1317.763
'0:11.582',1318.224
'0:11.586',1318.511
'0:11.590',1318.694
'0:11.594',1318.937
'0:11.598',1319.287
'0:11.602',1319.598
'0:11.605',1319.689
'0:11.609',1319.542
'0:11.613',1319.271
'0:11.617',1318.969
'0:11.621',1318.666
'0:11.625',1318.451
'0:11.629',1318.376
'0:11.633',1318.408
'0:11.637',1318.499
'0:11.641',1318.579
'0:11.645',1318.539
'0:11.648',1318.292
'0:11.652',1317.878
'0:11.656',1317.369
'0:11.660',1316.851
'0:11.664',1316.449
'0:11.668',1316.270
'0:11.672',1316.377
'0:11.676',1316.767
'0:11.680',1317.281
'0:11.684',1317.576
'0:11.688',1317.321
'0:11.691',1316.437
'0:11.695',1315.127
'0:11.699',1313.750
'0:11.703',1312.615
'0:11.707',1311.899
'0:11.711',1311.724
'0:11.715',1312.305
'0:11.719',1313.849
'0:11.723',1316.389
'0:11.727',1319.665
'0:11.730',1323.161
'0:11.734',1326.282
'0:11.738',1328.606
'0:11.742',1329.964
'0:11.746',1330.450
'0:11.750',1330.338
'0:11.754',1329.992
'0:11.758',1329.661
'0:11.762',1329.363
'0:11.766',1328.921
'0:11.770',1328.109
'0:11.773',1326.783
'0:11.777',1324.972
'0:11.781',1322.946
'0:11.785',1321.103
'0:11.789',1319.773
'0:11.793',1318.989
'0:11.797',1318.515
'0:11.801',1318.069
'0:11.805',1317.516
'0:11.809',1316.907
'0:11.813',1316.393
'0:11.816',1316.011
'0:11.820',1315.573
'0:11.824',1314.749
'0:11.828',1313.264
'0:11.832',1311.083
'0:11.836',1308.471
'0:11.840',1305.848
'0:11.844',1303.539
'0:11.848',1301.628
'0:11.852',1300.020
'0:11.855',1298.698
'0:11.859',1297.834
'0:11.863',1297.695
'0:11.867',1298.475
'0:11.871',1300.175
'0:11.875',1302.619
'0:11.879',1305.446
'0:11.883',1308.153
'0:11.887',1310.283
'0:11.891',1311.620
'0:11.895',1312.261
'0:11.898',1312.484
'0:11.902',1312.568
'0:11.906',1312.739
'0:11.910',1313.153
'0:11.914',1313.869
'0:11.918',1314.821
'0:11.922',1315.832
'0:11.926',1316.740
'0:11.930',1317.504
'0:11.934',1318.169
'0:11.938',1318.722
'0:11.941',1319.033
'0:11.945',1319.048
'0:11.949',1318.909
'0:11.953',1318.818
'0:11.957',1318.877
'0:11.961',1319.128
'0:11.965',1319.673
'0:11.969',1320.669
'0:11.973',1322.074
'0:11.977',1323.551
'0:11.980',1324.578
'0:11.984',1324.729
'0:11.988',1323.853
'0:11.992',1322.114
'0:11.996',1319.837
'0:12.000',1317.297
'0:12.004',1314.586
'0:12.008',1311.740
'0:12.012',1308.933
'0:12.016',1306.421
'0:12.020',1304.391
'0:12.023',1302.882
'0:12.027',1301.791
'0:12.031',1300.928
'0:12.035',1300.108
'0:12.039',1299.232
'0:12.043',1298.320
'0:12.047',1297.500
'0:12.051',1296.919
'0:12.055',1296.664
'0:12.059',1296.716
'0:12.063',1296.947
'0:12.066',1297.253
'0:12.070',1297.584
'0:12.074',1297.830
'0:12.078',1297.858
'0:12.082',1297.616
'0:12.086',1297.174
'0:12.090',1296.664
'0:12.094',1296.262
'0:12.098',1296.071
'0:12.102',1296.135
'0:12.105',1296.461
'0:12.109',1297.018
'0:12.113',1297.731
'0:12.117',1298.515
'0:12.121',1299.307
'0:12.125',1300.060
'0:12.129',1300.717
'0:12.133',1301.230
'0:12.137',1301.584
'0:12.141',1301.748
'0:12.145',1301.648
'0:12.148',1301.274
'0:12.152',1300.800
'0:12.156',1300.569
'0:12.160',1300.876
'0:12.164',1301.791
'0:12.168',1303.161
'0:12.172',1304.777
'0:12.176',1306.521
'0:12.180',1308.368
'0:12.184',1310.291
'0:12.188',1312.225
'0:12.191',1314.088
'0:12.195',1315.712
'0:12.199',1316.867
'0:12.203',1317.424
'0:12.207',1317.452
'0:12.211',1317.205
'0:12.215',1317.054
'0:12.219',1317.349
'0:12.223',1318.232
'0:12.227',1319.514
'0:12.230',1320.860
'0:12.234',1322.022
'0:12.238',1322.950
'0:12.242',1323.642
'0:12.246',1324.025
'0:12.250',1324.009
'0:12.254',1323.551
'0:12.258',1322.695
'0:12.262',1321.544
'0:12.266',1320.302
'0:12.270',1319.200
'0:12.273',1318.467
'0:12.277',1318.300
'0:12.281',1318.742
'0:12.285',1319.618
'0:12.289',1320.553
'0:12.293',1321.174
'0:12.297',1321.230
'0:12.301',1320.601
'0:12.305',1319.283
'0:12.309',1317.388
'0:12.313',1315.103
'0:12.316',1312.691
'0:12.320',1310.494
'0:12.324',1308.790
'0:12.328',1307.647
'0:12.332',1306.851
'0:12.336',1306.131
'0:12.340',1305.303
'0:12.344',1304.367
'0:12.348',1303.463
'0:12.352',1302.703
'0:12.355',1302.094
'0:12.359',1301.604
'0:12.363',1301.206
'0:12.367',1300.856
'0:12.371',1300.514
'0:12.375',1300.171
'0:12.379',1299.893
'0:12.383',1299.773
'0:12.387',1299.841
'0:12.391',1300.076
'0:12.395',1300.450
'0:12.398',1300.908
'0:12.402',1301.377
'0:12.406',1301.799
'0:12.410',1302.078
'0:12.414',1302.078
'0:12.418',1301.787
'0:12.422',1301.342
'0:12.426',1300.908
'0:12.430',1300.637
'0:12.434',1300.689
'0:12.438',1301.178
'0:12.441',1302.090
'0:12.445',1303.236
'0:12.449',1304.359
'0:12.453',1305.303
'0:12.457',1306.087
'0:12.461',1306.744
'0:12.465',1307.158
'0:12.469',1307.018
'0:12.473',1306.035
'0:12.477',1304.188
'0:12.480',1301.791
'0:12.484',1299.327
'0:12.488',1297.237
'0:12.492',1295.876
'0:12.496',1295.494
'0:12.500',1296.218
'0:12.504',1298.061
'0:12.508',1300.904
'0:12.512',1304.514
'0:12.516',1308.519
'0:12.520',1312.472
'0:12.523',1316.023
'0:12.527',1318.993
'0:12.531',1321.294
'0:12.535',1322.886
'0:12.539',1323.825
'0:12.543',1324.243
'0:12.547',1324.247
'0:12.551',1323.933
'0:12.555',1323.423
'0:12.559',1322.846
'0:12.563',1322.273
'0:12.566',1321.680
'0:12.570',1321.003
'0:12.574',1320.171
'0:12.578',1319.156
'0:12.582',1317.982
'0:12.586',1316.755
'0:12.590',1315.661
'0:12.594',1314.853
'0:12.598',1314.299
'0:12.602',1313.802
'0:12.605',1313.228
'0:12.609',1312.631
'0:12.613',1312.098
'0:12.617',1311.664
'0:12.621',1311.334
'0:12.625',1311.158
'0:12.629',1311.234
'0:12.633',1311.640
'0:12.637',1312.396
'0:12.641',1313.408
'0:12.645',1314.614
'0:12.648',1315.995
'0:12.652',1317.508
'0:12.656',1319.068
'0:12.660',1320.505
'0:12.664',1321.572
'0:12.668',1322.042
'0:12.672',1321.827
'0:12.676',1321.015
'0:12.680',1319.872
'0:12.684',1318.758
'0:12.688',1318.029
'0:12.691',1317.882
'0:12.695',1318.340
'0:12.699',1319.251
'0:12.703',1320.418
'0:12.707',1321.664
'0:12.711',1322.854
'0:12.715',1323.845
'0:12.719',1324.538
'0:12.723',1324.912
'0:12.727',1325.036
'0:12.730',1324.964
'0:12.734',1324.669
'0:12.738',1324.013
'0:12.742',1322.786
'0:12.746',1320.860
'0:12.750',1318.276
'0:12.754',1315.287
'0:12.758',1312.353
'0:12.762',1309.972
'0:12.766',1308.511
'0:12.770',1308.069
'0:12.773',1308.559
'0:12.777',1309.833
'0:12.781',1311.732
'0:12.785',1314.068
'0:12.789',1316.608
'0:12.793',1319.072
'0:12.797',1321.226
'0:12.801',1322.918
'0:12.805',1324.144
'0:12.809',1325.028
'0:12.813',1325.708
'0:12.816',1326.226
'0:12.820',1326.465
'0:12.824',1326.258
'0:12.828',1325.478
'0:12.832',1324.088
'0:12.836',1322.173
'0:12.840',1319.948
'0:12.844',1317.771
'0:12.848',1315.991
'0:12.852',1314.749
'0:12.855',1313.873
'0:12.859',1313.065
'0:12.863',1312.098
'0:12.867',1310.987
'0:12.871',1309.960
'0:12.875',1309.343
'0:12.879',1309.343
'0:12.883',1309.912
'0:12.887',1310.701
'0:12.891',1311.190
'0:12.895',1310.888
'0:12.898',1309.586
'0:12.902',1307.484
'0:12.906',1305.052
'0:12.910',1302.822
'0:12.914',1301.206
'0:12.918',1300.430
'0:12.922',1300.526
'0:12.926',1301.350
'0:12.930',1302.623
'0:12.934',1304.033
'0:12.938',1305.374
'0:12.941',1306.608
'0:12.945',1307.739
'0:12.949',1308.611
'0:12.953',1309.021
'0:12.957',1308.925
'0:12.961',1308.463
'0:12.965',1307.810
'0:12.969',1307.034
'0:12.973',1306.174
'0:12.977',1305.295
'0:12.980',1304.482
'0:12.984',1303.881
'0:12.988',1303.666
'0:12.992',1303.873
'0:12.996',1304.335
'0:13.000',1304.821
'0:13.004',1305.131
'0:13.008',1305.131
'0:13.012',1304.777
'0:13.016',1304.108
'0:13.020',1303.244
'0:13.023',1302.361
'0:13.027',1301.660
'0:13.031',1301.338
'0:13.035',1301.421
'0:13.039',1301.779
'0:13.043',1302.313
'0:13.047',1303.033
'0:13.051',1303.945
'0:13.055',1304.944
'0:13.059',1305.888
'0:13.063',1306.692
'0:13.066',1307.285
'0:13.070',1307.651
'0:13.074',1307.894
'0:13.078',1308.153
'0:13.082',1308.431
'0:13.086',1308.670
'0:13.090',1308.830
'0:13.094',1308.818
'0:13.098',1308.491
'0:13.102',1307.803
'0:13.105',1306.879
'0:13.109',1305.844
'0:13.113',1304.701
'0:13.117',1303.412
'0:13.121',1302.102
'0:13.125',1301.115
'0:13.129',1300.852
'0:13.133',1301.557
'0:13.137',1303.197
'0:13.141',1305.518
'0:13.145',1308.085
'0:13.148',1310.486
'0:13.152',1312.460
'0:13.156',1313.897
'0:13.160',1314.781
'0:13.164',1315.183
'0:13.168',1315.291
'0:13.172',1315.235
'0:13.176',1314.976
'0:13.180',1314.327
'0:13.184',1313.081
'0:13.188',1311.115
'0:13.191',1308.503
'0:13.195',1305.557
'0:13.199',1302.747
'0:13.203',1300.541
'0:13.207',1299.283
'0:13.211',1299.116
'0:13.215',1299.968
'0:13.219',1301.533
'0:13.223',1303.312
'0:13.227',1304.769
'0:13.230',1305.577
'0:13.234',1305.641
'0:13.238',1304.972
'0:13.242',1303.591
'0:13.246',1301.525
'0:13.250',1298.937
'0:13.254',1296.166
'0:13.258',1293.655
'0:13.262',1291.752
'0:13.266',1290.649
'0:13.270',1290.398
'0:13.273',1290.944
'0:13.277',1292.166
'0:13.281',1293.877
'0:13.285',1295.872
'0:13.289',1297.998
'0:13.293',1300.215
'0:13.297',1302.516
'0:13.301',1304.825
'0:13.305',1307.094
'0:13.309',1309.375
'0:13.313',1311.767
'0:13.316',1314.216
'0:13.320',1316.433
'0:13.324',1318.061
'0:13.328',1318.853
'0:13.332',1318.786
'0:13.336',1318.025
'0:13.340',1316.747
'0:13.344',1314.976
'0:13.348',1312.619
'0:13.352',1309.737
'0:13.355',1306.656
'0:13.359',1303.846
'0:13.363',1301.740
'0:13.367',1300.609
'0:13.371',1300.565
'0:13.375',1301.541
'0:13.379',1303.328
'0:13.383',1305.617
'0:13.387',1307.962
'0:13.391',1309.896
'0:13.395',1311.158
'0:13.398',1311.736
'0:13.402',1311.724
'0:13.406',1311.202
'0:13.410',1310.179
'0:13.414',1308.654
'0:13.418',1306.732
'0:13.422',1304.626
'0:13.426',1302.584
'0:13.430',1300.852
'0:13.434',1299.745
'0:13.438',1299.570
'0:13.441',1300.474
'0:13.445',1302.385
'0:13.449',1305.000
'0:13.453',1307.803
'0:13.457',1310.211
'0:13.461',1311.795
'0:13.465',1312.440
'0:13.469',1312.365
'0:13.473',1311.966
'0:13.477',1311.560
'0:13.480',1311.226
'0:13.484',1310.947
'0:13.488',1310.836
'0:13.492',1311.119
'0:13.496',1311.875
'0:13.500',1312.882
'0:13.504',1313.726
'0:13.508',1314.112
'0:13.512',1314.009
'0:13.516',1313.587
'0:13.520',1313.069
'0:13.523',1312.631
'0:13.527',1312.369
'0:13.531',1312.301
'0:13.535',1312.396
'0:13.539',1312.556
'0:13.543',1312.683
'0:13.547',1312.683
'0:13.551',1312.480
'0:13.555',1312.130
'0:13.559',1311.839
'0:13.563',1311.763
'0:13.566',1311.867
'0:13.570',1312.026
'0:13.574',1312.229
'0:13.578',1312.588
'0:13.582',1313.181
'0:13.586',1313.989
'0:13.590',1314.984
'0:13.594',1316.166
'0:13.598',1317.452
'0:13.602',1318.770
'0:13.605',1320.091
'0:13.609',1321.377
'0:13.613',1322.412
'0:13.617',1322.910
'0:13.621',1322.727
'0:13.625',1321.939
'0:13.629',1320.720
'0:13.633',1319.283
'0:13.637',1317.902
'0:13.641',1316.919
'0:13.645',1316.576
'0:13.648',1316.887
'0:13.652',1317.587
'0:13.656',1318.236
'0:13.660',1318.431
'0:13.664',1317.997
'0:13.668',1317.042
'0:13.672',1315.908
'0:13.676',1314.948
'0:13.680',1314.363
'0:13.684',1314.112
'0:13.688',1314.001
'0:13.691',1313.814
'0:13.695',1313.416
'0:13.699',1312.798
'0:13.703',1311.998
'0:13.707',1310.979
'0:13.711',1309.729
'0:13.715',1308.352
'0:13.719',1307.118
'0:13.723',1306.373
'0:13.727',1306.385
'0:13.730',1307.217
'0:13.734',1308.734
'0:13.738',1310.697
'0:13.742',1312.783
'0:13.746',1314.685
'0:13.750',1316.166
'0:13.754',1317.122
'0:13.758',1317.595
'0:13.762',1317.802
'0:13.766',1318.013
'0:13.770',1318.415
'0:13.773',1318.997
'0:13.777',1319.610
'0:13.781',1320.103
'0:13.785',1320.442
'0:13.789',1320.708
'0:13.793',1320.955
'0:13.797',1321.099
'0:13.801',1320.947
'0:13.805',1320.366
'0:13.809',1319.379
'0:13.813',1318.165
'0:13.816',1317.022
'0:13.820',1316.210
'0:13.824',1315.828
'0:13.828',1315.836
'0:13.832',1316.202
'0:13.836',1316.887
'0:13.840',1317.794
'0:13.844',1318.833
'0:13.848',1319.876
'0:13.852',1320.784
'0:13.855',1321.493
'0:13.859',1322.038
'0:13.863',1322.444
'0:13.867',1322.711
'0:13.871',1322.830
'0:13.875',1322.794
'0:13.879',1322.655
'0:13.883',1322.540
'0:13.887',1322.552
'0:13.891',1322.703
'0:13.895',1322.950
'0:13.898',1323.173
'0:13.902',1323.244
'0:13.906',1323.017
'0:13.910',1322.376
'0:13.914',1321.274
'0:13.918',1319.813
'0:13.922',1318.173
'0:13.926',1316.529
'0:13.930',1315.004
'0:13.934',1313.662
'0:13.938',1312.536
'0:13.941',1311.688
'0:13.945',1311.226
'0:13.949',1311.218
'0:13.953',1311.628
'0:13.957',1312.261
'0:13.961',1312.830
'0:13.965',1313.113
'0:13.969',1312.946
'0:13.973',1312.158
'0:13.977',1310.601
'0:13.980',1308.232
'0:13.984',1305.211
'0:13.988',1301.895
'0:13.992',1298.706
'0:13.996',1295.975
'0:14.000',1293.850
'0:14.004',1292.333
'0:14.008',1291.409
'0:14.012',1290.995
'0:14.016',1290.872
'0:14.020',1290.836
'0:14.023',1290.780
'0:14.027',1290.661
'0:14.031',1290.438
'0:14.035',1290.124
'0:14.039',1289.889
'0:14.043',1289.996
'0:14.047',1290.637
'0:14.051',1291.875
'0:14.055',1293.666
'0:14.059',1295.944
'0:14.063',1298.579
'0:14.066',1301.314
'0:14.070',1303.802
'0:14.074',1305.780
'0:14.078',1307.189
'0:14.082',1308.153
'0:14.086',1308.830
'0:14.090',1309.351
'0:14.094',1309.757
'0:14.098',1310.040
'0:14.102',1310.291
'0:14.105',1310.724
'0:14.109',1311.481
'0:14.113',1312.480
'0:14.117',1313.519
'0:14.121',1314.486
'0:14.125',1315.426
'0:14.129',1316.409
'0:14.133',1317.484
'0:14.137',1318.630
'0:14.141',1319.781
'0:14.145',1320.880
'0:14.148',1321.859
'0:14.152',1322.647
'0:14.156',1323.224
'0:14.160',1323.610
'0:14.164',1323.849
'0:14.168',1323.925
'0:14.172',1323.750
'0:14.176',1323.208
'0:14.180',1322.217
'0:14.184',1320.768
'0:14.188',1318.810
'0:14.191',1316.262
'0:14.195',1313.117
'0:14.199',1309.566
'0:14.203',1305.975
'0:14.207',1302.775
'0:14.211',1300.326
'0:14.215',1298.814
'0:14.219',1298.221
'0:14.223',1298.384
'0:14.227',1299.049
'0:14.230',1299.932
'0:14.234',1300.936
'0:14.238',1302.134
'0:14.242',1303.627
'0:14.246',1305.354
'0:14.250',1307.162
'0:14.254',1308.893
'0:14.258',1310.478
'0:14.262',1311.811
'0:14.266',1312.667
'0:14.270',1312.830
'0:14.273',1312.265
'0:14.277',1311.154
'0:14.281',1309.829
'0:14.285',1308.611
'0:14.289',1307.735
'0:14.293',1307.289
'0:14.297',1307.321
'0:14.301',1307.878
'0:14.305',1309.001
'0:14.309',1310.633
'0:14.313',1312.512
'0:14.316',1314.259
'0:14.320',1315.617
'0:14.324',1316.564
'0:14.328',1317.185
'0:14.332',1317.583
'0:14.336',1317.886
'0:14.340',1318.193
'0:14.344',1318.535
'0:14.348',1318.889
'0:14.352',1319.184
'0:14.355',1319.399
'0:14.359',1319.590
'0:14.363',1319.952
'0:14.367',1320.720
'0:14.371',1322.038
'0:14.375',1323.873
'0:14.379',1326.087
'0:14.383',1328.427
'0:14.387',1330.633
'0:14.391',1332.520
'0:14.395',1334.064
'0:14.398',1335.306
'0:14.402',1336.274
'0:14.406',1336.907
'0:14.410',1337.078
'0:14.414',1336.612
'0:14.418',1335.302
'0:14.422',1332.989
'0:14.426',1329.618
'0:14.430',1325.286
'0:14.434',1320.290
'0:14.438',1315.155
'0:14.441',1310.506
'0:14.445',1306.891
'0:14.449',1304.634
'0:14.453',1303.850
'0:14.457',1304.467
'0:14.461',1306.262
'0:14.465',1308.881
'0:14.469',1311.859
'0:14.473',1314.789
'0:14.477',1317.416
'0:14.480',1319.618
'0:14.484',1321.325
'0:14.488',1322.595
'0:14.492',1323.535
'0:14.496',1324.160
'0:14.500',1324.407
'0:14.504',1324.319
'0:14.508',1324.044
'0:14.512',1323.634
'0:14.516',1323.041
'0:14.520',1322.265
'0:14.523',1321.401
'0:14.527',1320.541
'0:14.531',1319.721
'0:14.535',1318.961
'0:14.539',1318.292
'0:14.543',1317.755
'0:14.547',1317.353
'0:14.551',1317.106
'0:14.555',1317.038
'0:14.559',1317.058
'0:14.563',1317.010
'0:14.566',1316.831
'0:14.570',1316.636
'0:14.574',1316.640
'0:14.578',1317.002
'0:14.582',1317.631
'0:14.586',1318.193
'0:14.590',1318.268
'0:14.594',1317.619
'0:14.598',1316.266
'0:14.602',1314.514
'0:14.605',1312.798
'0:14.609',1311.545
'0:14.613',1310.983
'0:14.617',1311.131
'0:14.621',1311.756
'0:14.625',1312.484
'0:14.629',1313.021
'0:14.633',1313.244
'0:14.637',1313.224
'0:14.641',1313.121
'0:14.645',1313.033
'0:14.648',1312.962
'0:14.652',1312.870
'0:14.656',1312.751
'0:14.660',1312.707
'0:14.664',1312.902
'0:14.668',1313.388
'0:14.672',1314.064
'0:14.676',1314.825
'0:14.680',1315.649
'0:14.684',1316.560
'0:14.688',1317.583
'0:14.691',1318.734
'0:14.695',1319.988
'0:14.699',1321.286
'0:14.703',1322.508
'0:14.707',1323.547
'0:14.711',1324.319
'0:14.715',1324.737
'0:14.719',1324.638
'0:14.723',1323.829
'0:14.727',1322.177
'0:14.730',1319.769
'0:14.734',1316.951
'0:14.738',1314.287
'0:14.742',1312.325
'0:14.746',1311.405
'0:14.750',1311.560
'0:14.754',1312.496
'0:14.758',1313.678
'0:14.762',1314.522
'0:14.766',1314.630
'0:14.770',1313.901
'0:14.773',1312.452
'0:14.777',1310.537
'0:14.781',1308.463
'0:14.785',1306.537
'0:14.789',1305.008
'0:14.793',1303.993
'0:14.797',1303.459
'0:14.801',1303.292
'0:14.805',1303.384
'0:14.809',1303.607
'0:14.813',1303.778
'0:14.816',1303.650
'0:14.820',1302.994
'0:14.824',1301.776
'0:14.828',1300.223
'0:14.832',1298.690
'0:14.836',1297.500
'0:14.840',1296.851
'0:14.844',1296.760
'0:14.848',1297.026
'0:14.852',1297.365
'0:14.855',1297.608
'0:14.859',1297.751
'0:14.863',1297.830
'0:14.867',1297.878
'0:14.871',1297.906
'0:14.875',1297.882
'0:14.879',1297.771
'0:14.883',1297.596
'0:14.887',1297.385
'0:14.891',1297.178
'0:14.895',1297.042
'0:14.898',1297.014
'0:14.902',1297.078
'0:14.906',1297.150
'0:14.910',1297.094
'0:14.914',1296.887
'0:14.918',1296.700
'0:14.922',1296.795
'0:14.926',1297.265
'0:14.930',1297.978
'0:14.934',1298.766
'0:14.938',1299.650
'0:14.941',1300.820
'0:14.945',1302.404
'0:14.949',1304.287
'0:14.953',1306.182
'0:14.957',1307.791
'0:14.961',1309.001
'0:14.965',1309.928
'0:14.969',1310.764
'0:14.973',1311.596
'0:14.977',1312.416
'0:14.980',1313.276
'0:14.984',1314.255
'0:14.988',1315.406
'0:14.992',1316.712
'0:14.996',1318.137
'0:15.000',1319.622
'0:15.004',1321.059
'0:15.008',1322.301
'0:15.012',1323.312
'0:15.016',1324.180
'0:15.020',1324.972
'0:15.023',1325.605
'0:15.027',1325.979
'0:15.031',1326.075
'0:15.035',1325.915
'0:15.039',1325.497
'0:15.043',1324.813
'0:15.047',1323.913
'0:15.051',1322.930
'0:15.055',1321.974
'0:15.059',1321.142
'0:15.063',1320.537
'0:15.066',1320.255
'0:15.070',1320.386
'0:15.074',1320.935
'0:15.078',1321.787
'0:15.082',1322.715
'0:15.086',1323.471
'0:15.090',1323.849
'0:15.094',1323.778
'0:15.098',1323.300
'0:15.102',1322.556
'0:15.105',1321.724
'0:15.109',1320.943
'0:15.113',1320.310
'0:15.117',1319.880
'0:15.121',1319.673
'0:15.125',1319.665
'0:15.129',1319.777
'0:15.133',1319.896
'0:15.137',1319.952
'0:15.141',1319.920
'0:15.145',1319.821
'0:15.148',1319.669
'0:15.152',1319.450
'0:15.156',1319.112
'0:15.160',1318.634
'0:15.164',1318.057
'0:15.168',1317.504
'0:15.172',1317.054
'0:15.176',1316.759
'0:15.180',1316.708
'0:15.184',1316.982
'0:15.188',1317.540
'0:15.191',1318.260
'0:15.195',1319.080
'0:15.199',1319.948
'0:15.203',1320.804
'0:15.207',1321.532
'0:15.211',1322.018
'0:15.215',1322.249
'0:15.219',1322.317
'0:15.223',1322.245
'0:15.227',1322.018
'0:15.230',1321.676
'0:15.234',1321.318
'0:15.238',1321.039
'0:15.242',1320.947
'0:15.246',1321.111
'0:15.250',1321.493
'0:15.254',1322.006
'0:15.258',1322.492
'0:15.262',1322.802
'0:15.266',1322.874
'0:15.270',1322.699
'0:15.273',1322.261
'0:15.277',1321.556
'0:15.281',1320.649
'0:15.285',1319.638
'0:15.289',1318.642
'0:15.293',1317.719
'0:15.297',1316.899
'0:15.301',1316.214
'0:15.305',1315.649
'0:15.309',1315.159
'0:15.313',1314.733
'0:15.316',1314.343
'0:15.320',1313.945
'0:15.324',1313.515
'0:15.328',1313.109
'0:15.332',1312.830
'0:15.336',1312.842
'0:15.340',1313.308
'0:15.344',1314.236
'0:15.348',1315.370
'0:15.352',1316.326
'0:15.355',1316.855
'0:15.359',1316.974
'0:15.363',1316.943
'0:15.367',1317.138
'0:15.371',1317.902
'0:15.375',1319.263
'0:15.379',1320.943
'0:15.383',1322.556
'0:15.387',1323.821
'0:15.391',1324.626
'0:15.395',1324.936
'0:15.398',1324.753
'0:15.402',1324.072
'0:15.406',1322.938
'0:15.410',1321.449
'0:15.414',1319.773
'0:15.418',1318.121
'0:15.422',1316.708
'0:15.426',1315.705
'0:15.430',1315.159
'0:15.434',1315.024
'0:15.438',1315.203
'0:15.441',1315.525
'0:15.445',1315.804
'0:15.449',1315.987
'0:15.453',1316.194
'0:15.457',1316.564
'0:15.461',1317.110
'0:15.465',1317.787
'0:15.469',1318.587
'0:15.473',1319.514
'0:15.477',1320.490
'0:15.480',1321.294
'0:15.484',1321.708
'0:15.488',1321.664
'0:15.492',1321.286
'0:15.496',1320.724
'0:15.500',1320.103
'0:15.504',1319.594
'0:15.508',1319.371
'0:15.512',1319.490
'0:15.516',1319.912
'0:15.520',1320.605
'0:15.523',1321.493
'0:15.527',1322.273
'0:15.531',1322.488
'0:15.535',1321.732
'0:15.539',1319.833
'0:15.543',1316.895
'0:15.547',1313.300
'0:15.551',1309.614
'0:15.555',1306.385
'0:15.559',1303.953
'0:15.563',1302.404
'0:15.566',1301.600
'0:15.570',1301.334
'0:15.574',1301.493
'0:15.578',1302.030
'0:15.582',1302.763
'0:15.586',1303.332
'0:15.590',1303.380
'0:15.594',1302.727
'0:15.598',1301.441
'0:15.602',1299.709
'0:15.605',1297.763
'0:15.609',1295.884
'0:15.613',1294.307
'0:15.617',1293.081
'0:15.621',1292.102
'0:15.625',1291.302
'0:15.629',1290.812
'0:15.633',1290.828
'0:15.637',1291.457
'0:15.641',1292.695
'0:15.645',1294.431
'0:15.648',1296.489
'0:15.652',1298.635
'0:15.656',1300.657
'0:15.660',1302.464
'0:15.664',1304.096
'0:15.668',1305.557
'0:15.672',1306.775
'0:15.676',1307.703
'0:15.680',1308.447
'0:15.684',1309.263
'0:15.688',1310.382
'0:15.691',1311.819
'0:15.695',1313.352
'0:15.699',1314.717
'0:15.703',1315.728
'0:15.707',1316.393
'0:15.711',1316.927
'0:15.715',1317.595
'0:15.719',1318.531
'0:15.723',1319.594
'0:15.727',1320.525
'0:15.730',1321.142
'0:15.734',1321.377
'0:15.738',1321.274
'0:15.742',1320.904
'0:15.746',1320.275
'0:15.750',1319.247
'0:15.754',1317.639
'0:15.758',1315.330
'0:15.762',1312.365
'0:15.766',1308.989
'0:15.770',1305.653
'0:15.773',1302.874
'0:15.777',1301.015
'0:15.781',1300.096
'0:15.785',1299.865
'0:15.789',1299.916
'0:15.793',1299.908
'0:15.797',1299.686
'0:15.801',1299.283
'0:15.805',1298.842
'0:15.809',1298.523
'0:15.813',1298.380
'0:15.816',1298.388
'0:15.820',1298.491
'0:15.824',1298.583
'0:15.828',1298.571
'0:15.832',1298.575
'0:15.836',1298.901
'0:15.840',1299.849
'0:15.844',1301.489
'0:15.848',1303.674
'0:15.852',1306.206
'0:15.855',1308.897
'0:15.859',1311.481
'0:15.863',1313.654
'0:15.867',1315.271
'0:15.871',1316.421
'0:15.875',1317.392
'0:15.879',1318.427
'0:15.883',1319.494
'0:15.887',1320.318
'0:15.891',1320.649
'0:15.895',1320.426
'0:15.898',1319.781
'0:15.902',1319.001
'0:15.906',1318.404
'0:15.910',1318.193
'0:15.914',1318.396
'0:15.918',1318.945
'0:15.922',1319.749
'0:15.926',1320.661
'0:15.930',1321.489
'0:15.934',1322.082
'0:15.938',1322.380
'0:15.941',1322.368
'0:15.945',1322.054
'0:15.949',1321.544
'0:15.953',1321.015
'0:15.957',1320.593
'0:15.961',1320.314
'0:15.965',1320.167
'0:15.969',1320.123
'0:15.973',1320.127
'0:15.977',1320.131
'0:15.980',1320.151
'0:15.984',1320.235
'0:15.988',1320.346
'0:15.992',1320.434
'0:15.996',1320.541
'0:16.000',1320.812
'0:16.004',1321.329
'0:16.008',1322.046
'0:16.012',1322.830
'0:16.016',1323.527
'0:16.020',1323.933
'0:16.023',1323.893
'0:16.027',1323.368
'0:16.031',1322.432
'0:16.035',1321.242
'0:16.039',1319.968
'0:16.043',1318.714
'0:16.047',1317.576
'0:16.051',1316.720
'0:16.055',1316.405
'0:16.059',1316.847
'0:16.063',1318.013
'0:16.066',1319.538
'0:16.070',1320.955
'0:16.074',1321.931
'0:16.078',1322.412
'0:16.082',1322.568
'0:16.086',1322.635
'0:16.090',1322.739
'0:16.094',1322.898
'0:16.098',1323.101
'0:16.102',1323.292
'0:16.105',1323.336
'0:16.109',1323.141
'0:16.113',1322.731
'0:16.117',1322.257
'0:16.121',1321.915
'0:16.125',1321.807
'0:16.129',1321.958
'0:16.133',1322.444
'0:16.137',1323.320
'0:16.141',1324.446
'0:16.145',1325.537
'0:16.148',1326.349
'0:16.152',1326.815
'0:16.156',1326.966
'0:16.160',1326.895
'0:16.164',1326.684
'0:16.168',1326.373
'0:16.172',1325.979
'0:16.176',1325.501
'0:16.180',1324.980
'0:16.184',1324.518
'0:16.188',1324.188
'0:16.191',1323.945
'0:16.195',1323.662
'0:16.199',1323.236
'0:16.203',1322.651
'0:16.207',1321.954
'0:16.211',1321.254
'0:16.215',1320.677
'0:16.219',1320.374
'0:16.223',1320.454
'0:16.227',1320.923
'0:16.230',1321.652
'0:16.234',1322.380
'0:16.238',1322.798
'0:16.242',1322.631
'0:16.246',1321.680
'0:16.250',1319.868
'0:16.254',1317.229
'0:16.258',1313.957
'0:16.262',1310.426
'0:16.266',1307.106
'0:16.270',1304.427
'0:16.273',1302.611
'0:16.277',1301.568
'0:16.281',1300.991
'0:16.285',1300.545
'0:16.289',1300.068
'0:16.293',1299.518
'0:16.297',1298.913
'0:16.301',1298.260
'0:16.305',1297.580
'0:16.309',1296.855
'0:16.313',1296.091
'0:16.316',1295.299
'0:16.320',1294.518
'0:16.324',1293.794
'0:16.328',1293.121
'0:16.332',1292.524
'0:16.336',1292.074
'0:16.340',1291.903
'0:16.344',1292.042
'0:16.348',1292.428
'0:16.352',1292.934
'0:16.355',1293.428
'0:16.359',1293.810
'0:16.363',1294.108
'0:16.367',1294.423
'0:16.371',1294.869
'0:16.375',1295.522
'0:16.379',1296.449
'0:16.383',1297.711
'0:16.387',1299.303
'0:16.391',1301.103
'0:16.395',1302.970
'0:16.398',1304.889
'0:16.402',1306.959
'0:16.406',1309.244
'0:16.410',1311.656
'0:16.414',1313.997
'0:16.418',1316.134
'0:16.422',1317.982
'0:16.426',1319.502
'0:16.430',1320.788
'0:16.434',1322.086
'0:16.438',1323.642
'0:16.441',1325.493
'0:16.445',1327.456
'0:16.449',1329.291
'0:16.453',1330.844
'0:16.457',1332.030
'0:16.461',1332.814
'0:16.465',1333.196
'0:16.469',1333.176
'0:16.473',1332.755
'0:16.477',1331.907
'0:16.480',1330.629
'0:16.484',1328.969
'0:16.488',1327.038
'0:16.492',1325.052
'0:16.496',1323.272
'0:16.500',1322.018
'0:16.504',1321.628
'0:16.508',1322.341
'0:16.512',1324.092
'0:16.516',1326.517
'0:16.520',1329.124
'0:16.523',1331.473
'0:16.527',1333.248
'0:16.531',1334.239
'0:16.535',1334.307
'0:16.539',1333.391
'0:16.543',1331.540
'0:16.547',1328.925
'0:16.551',1325.792
'0:16.555',1322.472
'0:16.559',1319.327
'0:16.563',1316.720
'0:16.566',1314.837
'0:16.570',1313.638
'0:16.574',1312.886
'0:16.578',1312.329
'0:16.582',1311.899
'0:16.586',1311.592
'0:16.590',1311.357
'0:16.594',1311.115
'0:16.598',1310.860
'0:16.602',1310.665
'0:16.605',1310.613
'0:16.609',1310.701
'0:16.613',1310.768
'0:16.617',1310.633
'0:16.621',1310.310
'0:16.625',1309.960
'0:16.629',1309.749
'0:16.633',1309.813
'0:16.637',1310.299
'0:16.641',1311.286
'0:16.645',1312.655
'0:16.648',1314.180
'0:16.652',1315.708
'0:16.656',1317.241
'0:16.660',1318.833
'0:16.664',1320.505
'0:16.668',1322.165
'0:16.672',1323.678
'0:16.676',1325.020
'0:16.680',1326.214
'0:16.684',1327.277
'0:16.688',1328.184
'0:16.691',1328.913
'0:16.695',1329.446
'0:16.699',1329.841
'0:16.703',1330.163
'0:16.707',1330.446
'0:16.711',1330.637
'0:16.715',1330.593
'0:16.719',1330.167
'0:16.723',1329.307
'0:16.727',1328.057
'0:16.730',1326.524
'0:16.734',1324.936
'0:16.738',1323.591
'0:16.742',1322.739
'0:16.746',1322.364
'0:16.750',1322.146
'0:16.754',1321.588
'0:16.758',1320.350
'0:16.762',1318.439
'0:16.766',1316.150
'0:16.770',1313.877
'0:16.773',1311.919
'0:16.777',1310.434
'0:16.781',1309.355
'0:16.785',1308.439
'0:16.789',1307.444
'0:16.793',1306.353
'0:16.797',1305.374
'0:16.801',1304.773
'0:16.805',1304.725
'0:16.809',1305.231
'0:16.813',1306.186
'0:16.816',1307.548
'0:16.820',1309.319
'0:16.824',1311.449
'0:16.828',1313.706
'0:16.832',1315.697
'0:16.836',1317.054
'0:16.840',1317.619
'0:16.844',1317.464
'0:16.848',1316.815
'0:16.852',1315.912
'0:16.855',1314.976
'0:16.859',1314.188
'0:16.863',1313.607
'0:16.867',1313.181
'0:16.871',1312.806
'0:16.875',1312.396
'0:16.879',1311.943
'0:16.883',1311.453
'0:16.887',1310.927
'0:16.891',1310.362
'0:16.895',1309.845
'0:16.898',1309.586
'0:16.902',1309.821
'0:16.906',1310.701
'0:16.910',1312.265
'0:16.914',1314.443
'0:16.918',1317.094
'0:16.922',1319.964
'0:16.926',1322.691
'0:16.930',1324.924
'0:16.934',1326.425
'0:16.938',1327.038
'0:16.941',1326.731
'0:16.945',1325.569
'0:16.949',1323.758
'0:16.953',1321.600
'0:16.957',1319.454
'0:16.961',1317.627
'0:16.965',1316.266
'0:16.969',1315.370
'0:16.973',1314.904
'0:16.977',1314.849
'0:16.980',1315.159
'0:16.984',1315.752
'0:16.988',1316.533
'0:16.992',1317.444
'0:16.996',1318.523
'0:17.000',1319.801
'0:17.004',1321.214
'0:17.008',1322.615
'0:17.012',1323.817
'0:17.016',1324.630
'0:17.020',1324.868
'0:17.023',1324.403
'0:17.027',1323.220
'0:17.031',1321.425
'0:17.035',1319.160
'0:17.039',1316.656
'0:17.043',1314.263
'0:17.047',1312.305
'0:17.051',1310.931
'0:17.055',1310.103
'0:17.059',1309.789
'0:17.063',1310.008
'0:17.066',1310.752
'0:17.070',1311.943
'0:17.074',1313.463
'0:17.078',1315.095
'0:17.082',1316.473
'0:17.086',1317.229
'0:17.090',1317.106
'0:17.094',1315.987
'0:17.098',1313.925
'0:17.102',1311.134
'0:17.105',1307.910
'0:17.109',1304.443
'0:17.113',1300.804
'0:17.117',1297.150
'0:17.121',1293.834
'0:17.125',1291.270
'0:17.129',1289.749
'0:17.133',1289.296
'0:17.137',1289.706
'0:17.141',1290.645
'0:17.145',1291.851
'0:17.148',1293.189
'0:17.152',1294.522
'0:17.156',1295.677
'0:17.160',1296.577
'0:17.164',1297.293
'0:17.168',1297.954
'0:17.172',1298.591
'0:17.176',1299.156
'0:17.180',1299.662
'0:17.184',1300.299
'0:17.188',1301.294
'0:17.191',1302.799
'0:17.195',1304.813
'0:17.199',1307.178
'0:17.203',1309.554
'0:17.207',1311.600
'0:17.211',1313.105
'0:17.215',1314.037
'0:17.219',1314.455
'0:17.223',1314.459
'0:17.227',1314.180
'0:17.230',1313.746
'0:17.234',1313.244
'0:17.238',1312.735
'0:17.242',1312.329
'0:17.246',1312.158
'0:17.250',1312.293
'0:17.254',1312.675
'0:17.258',1313.236
'0:17.262',1313.957
'0:17.266',1314.817
'0:17.270',1315.780
'0:17.273',1316.843
'0:17.277',1318.009
'0:17.281',1319.327
'0:17.285',1320.844
'0:17.289',1322.480
'0:17.293',1323.981
'0:17.297',1325.083
'0:17.301',1325.665
'0:17.305',1325.736
'0:17.309',1325.370
'0:17.313',1324.685
'0:17.316',1323.845
'0:17.320',1322.958
'0:17.324',1322.086
'0:17.328',1321.310
'0:17.332',1320.661
'0:17.336',1320.020
'0:17.340',1319.224
'0:17.344',1318.284
'0:17.348',1317.380
'0:17.352',1316.656
'0:17.355',1316.051
'0:17.359',1315.386
'0:17.363',1314.590
'0:17.367',1313.841
'0:17.371',1313.420
'0:17.375',1313.471
'0:17.379',1313.889
'0:17.383',1314.462
'0:17.387',1315.028
'0:17.391',1315.533
'0:17.395',1316.051
'0:17.398',1316.744
'0:17.402',1317.719
'0:17.406',1318.901
'0:17.410',1320.064
'0:17.414',1320.987
'0:17.418',1321.513
'0:17.422',1321.501
'0:17.426',1320.876
'0:17.430',1319.646
'0:17.434',1317.946
'0:17.438',1316.031
'0:17.441',1314.244
'0:17.445',1312.846
'0:17.449',1311.919
'0:17.453',1311.433
'0:17.457',1311.341
'0:17.461',1311.568
'0:17.465',1311.990
'0:17.469',1312.520
'0:17.473',1313.133
'0:17.477',1313.806
'0:17.480',1314.530
'0:17.484',1315.334
'0:17.488',1316.234
'0:17.492',1317.177
'0:17.496',1318.041
'0:17.500',1318.626
'0:17.504',1318.778
'0:17.508',1318.515
'0:17.512',1317.990
'0:17.516',1317.376
'0:17.520',1316.823
'0:17.523',1316.469
'0:17.527',1316.445
'0:17.531',1316.795
'0:17.535',1317.484
'0:17.539',1318.415
'0:17.543',1319.510
'0:17.547',1320.629
'0:17.551',1321.600
'0:17.555',1322.261
'0:17.559',1322.504
'0:17.563',1322.237
'0:17.566',1321.501
'0:17.570',1320.466
'0:17.574',1319.331
'0:17.578',1318.220
'0:17.582',1317.197
'0:17.586',1316.341
'0:17.590',1315.740
'0:17.594',1315.442
'0:17.598',1315.398
'0:17.602',1315.577
'0:17.605',1316.007
'0:17.609',1316.600
'0:17.613',1317.185
'0:17.617',1317.703
'0:17.621',1318.232
'0:17.625',1318.818
'0:17.629',1319.411
'0:17.633',1319.924
'0:17.637',1320.298
'0:17.641',1320.474
'0:17.645',1320.398
'0:17.648',1320.036
'0:17.652',1319.443
'0:17.656',1318.718
'0:17.660',1317.950
'0:17.664',1317.253
'0:17.668',1316.724
'0:17.672',1316.389
'0:17.676',1316.218
'0:17.680',1316.190
'0:17.684',1316.322
'0:17.688',1316.628
'0:17.691',1317.110
'0:17.695',1317.806
'0:17.699',1318.678
'0:17.703',1319.498
'0:17.707',1319.956
'0:17.711',1319.845
'0:17.715',1319.156
'0:17.719',1318.017
'0:17.723',1316.608
'0:17.727',1314.980
'0:17.730',1312.994
'0:17.734',1310.438
'0:17.738',1307.297
'0:17.742',1303.810
'0:17.746',1300.374
'0:17.750',1297.412
'0:17.754',1295.275
'0:17.758',1294.236
'0:17.762',1294.419
'0:17.766',1295.804
'0:17.770',1298.185
'0:17.773',1301.202
'0:17.777',1304.343
'0:17.781',1307.098
'0:17.785',1309.160
'0:17.789',1310.553
'0:17.793',1311.529
'0:17.797',1312.289
'0:17.801',1312.846
'0:17.805',1313.153
'0:17.809',1313.256
'0:17.813',1313.276
'0:17.816',1313.328
'0:17.820',1313.519
'0:17.824',1314.001
'0:17.828',1314.884
'0:17.832',1316.142
'0:17.836',1317.591
'0:17.840',1318.989
'0:17.844',1320.131
'0:17.848',1320.896
'0:17.852',1321.262
'0:17.855',1321.274
'0:17.859',1321.043
'0:17.863',1320.657
'0:17.867',1320.171
'0:17.871',1319.646
'0:17.875',1319.084
'0:17.879',1318.431
'0:17.883',1317.655
'0:17.887',1316.799
'0:17.891',1315.939
'0:17.895',1315.159
'0:17.898',1314.443
'0:17.902',1313.575
'0:17.906',1312.241
'0:17.910',1310.302
'0:17.914',1307.926
'0:17.918',1305.458
'0:17.922',1303.189
'0:17.926',1301.218
'0:17.930',1299.522
'0:17.934',1298.089
'0:17.938',1296.955
'0:17.941',1296.162
'0:17.945',1295.661
'0:17.949',1295.295
'0:17.953',1294.841
'0:17.957',1294.200
'0:17.961',1293.444
'0:17.965',1292.731
'0:17.969',1292.206
'0:17.973',1291.947
'0:17.977',1292.003
'0:17.980',1292.349
'0:17.984',1292.914
'0:17.988',1293.635
'0:17.992',1294.439
'0:17.996',1295.195
'0:18.000',1295.772
'0:18.004',1296.174
'0:18.008',1296.505
'0:18.012',1296.863
'0:18.016',1297.182
'0:18.020',1297.257
'0:18.023',1296.951
'0:18.027',1296.358
'0:18.031',1295.677
'0:18.035',1295.072
'0:18.039',1294.666
'0:18.043',1294.574
'0:18.047',1294.901
'0:18.051',1295.725
'0:18.055',1296.955
'0:18.059',1298.364
'0:18.063',1299.741
'0:18.066',1300.940
'0:18.070',1301.831
'0:18.074',1302.337
'0:18.078',1302.528
'0:18.082',1302.528
'0:18.086',1302.377
'0:18.090',1302.102
'0:18.094',1301.772
'0:18.098',1301.461
'0:18.102',1301.202
'0:18.105',1301.039
'0:18.109',1301.043
'0:18.113',1301.365
'0:18.117',1302.209
'0:18.121',1303.758
'0:18.125',1306.007
'0:18.129',1308.638
'0:18.133',1311.099
'0:18.137',1312.830
'0:18.141',1313.491
'0:18.145',1312.990
'0:18.148',1311.421
'0:18.152',1309.013
'0:18.156',1306.123
'0:18.160',1303.236
'0:18.164',1300.900
'0:18.168',1299.550
'0:18.172',1299.427
'0:18.176',1300.549
'0:18.180',1302.679
'0:18.184',1305.354
'0:18.188',1308.045
'0:18.191',1310.386
'0:18.195',1312.245
'0:18.199',1313.642
'0:18.203',1314.673
'0:18.207',1315.501
'0:18.211',1316.258
'0:18.215',1317.010
'0:18.219',1317.751
'0:18.223',1318.400
'0:18.227',1318.857
'0:18.230',1319.021
'0:18.234',1318.822
'0:18.238',1318.248
'0:18.242',1317.361
'0:18.246',1316.266
'0:18.250',1315.127
'0:18.254',1314.140
'0:18.258',1313.423
'0:18.262',1312.926
'0:18.266',1312.476
'0:18.270',1311.931
'0:18.273',1311.286
'0:18.277',1310.661
'0:18.281',1310.259
'0:18.285',1310.370
'0:18.289',1311.298
'0:18.293',1313.189
'0:18.297',1315.876
'0:18.301',1318.937
'0:18.305',1321.915
'0:18.309',1324.514
'0:18.313',1326.564
'0:18.316',1327.926
'0:18.320',1328.483
'0:18.324',1328.153
'0:18.328',1326.931
'0:18.332',1324.868
'0:18.336',1322.114
'0:18.340',1318.925
'0:18.344',1315.641
'0:18.348',1312.524
'0:18.352',1309.646
'0:18.355',1306.955
'0:18.359',1304.447
'0:18.363',1302.245
'0:18.367',1300.458
'0:18.371',1299.053
'0:18.375',1297.938
'0:18.379',1297.090
'0:18.383',1296.624
'0:18.387',1296.696
'0:18.391',1297.424
'0:18.395',1298.790
'0:18.398',1300.629
'0:18.402',1302.619
'0:18.406',1304.403
'0:18.410',1305.685
'0:18.414',1306.346
'0:18.418',1306.417
'0:18.422',1306.007
'0:18.426',1305.275
'0:18.430',1304.407
'0:18.434',1303.658
'0:18.438',1303.340
'0:18.441',1303.726
'0:18.445',1304.900
'0:18.449',1306.736
'0:18.453',1308.921
'0:18.457',1311.019
'0:18.461',1312.544
'0:18.465',1313.121
'0:18.469',1312.659
'0:18.473',1311.345
'0:18.477',1309.594
'0:18.480',1307.858
'0:18.484',1306.525
'0:18.488',1305.804
'0:18.492',1305.760
'0:18.496',1306.346
'0:18.500',1307.424
'0:18.504',1308.750
'0:18.508',1310.048
'0:18.512',1311.162
'0:18.516',1312.106
'0:18.520',1312.886
'0:18.523',1313.451
'0:18.527',1313.790
'0:18.531',1313.977
'0:18.535',1314.041
'0:18.539',1313.961
'0:18.543',1313.746
'0:18.547',1313.384
'0:18.551',1312.854
'0:18.555',1312.233
'0:18.559',1311.688
'0:18.563',1311.282
'0:18.566',1310.824
'0:18.570',1309.980
'0:18.574',1308.523
'0:18.578',1306.525
'0:18.582',1304.315
'0:18.586',1302.305
'0:18.590',1300.800
'0:18.594',1299.964
'0:18.598',1299.829
'0:18.602',1300.319
'0:18.605',1301.258
'0:18.609',1302.424
'0:18.613',1303.599
'0:18.617',1304.682
'0:18.621',1305.649
'0:18.625',1306.413
'0:18.629',1306.851
'0:18.633',1306.963
'0:18.637',1306.827
'0:18.641',1306.493
'0:18.645',1306.047
'0:18.648',1305.617
'0:18.652',1305.263
'0:18.656',1304.968
'0:18.660',1304.733
'0:18.664',1304.586
'0:18.668',1304.463
'0:18.672',1304.224
'0:18.676',1303.798
'0:18.680',1303.324
'0:18.684',1303.089
'0:18.688',1303.388
'0:18.691',1304.363
'0:18.695',1305.904
'0:18.699',1307.723
'0:18.703',1309.498
'0:18.707',1310.927
'0:18.711',1311.759
'0:18.715',1311.931
'0:18.719',1311.672
'0:18.723',1311.409
'0:18.727',1311.489
'0:18.730',1312.026
'0:18.734',1312.990
'0:18.738',1314.383
'0:18.742',1316.250
'0:18.746',1318.483
'0:18.750',1320.760
'0:18.754',1322.671
'0:18.758',1323.917
'0:18.762',1324.339
'0:18.766',1323.881
'0:18.770',1322.591
'0:18.773',1320.585
'0:18.777',1317.994
'0:18.781',1314.944
'0:18.785',1311.592
'0:18.789',1308.213
'0:18.793',1305.076
'0:18.797',1302.309
'0:18.801',1299.916
'0:18.805',1297.910
'0:18.809',1296.294
'0:18.813',1295.044
'0:18.816',1294.144
'0:18.820',1293.583
'0:18.824',1293.308
'0:18.828',1293.213
'0:18.832',1293.145
'0:18.836',1292.974
'0:18.840',1292.655
'0:18.844',1292.237
'0:18.848',1291.823
'0:18.852',1291.569
'0:18.855',1291.620
'0:18.859',1292.026
'0:18.863',1292.783
'0:18.867',1293.925
'0:18.871',1295.565
'0:18.875',1297.834
'0:18.879',1300.733
'0:18.883',1304.037
'0:18.887',1307.432
'0:18.891',1310.609
'0:18.895',1313.252
'0:18.898',1315.119
'0:18.902',1316.126
'0:18.906',1316.322
'0:18.910',1315.892
'0:18.914',1315.159
'0:18.918',1314.534
'0:18.922',1314.323
'0:18.926',1314.570
'0:18.930',1315.135
'0:18.934',1315.872
'0:18.938',1316.680
'0:18.941',1317.472
'0:18.945',1318.212
'0:18.949',1318.889
'0:18.953',1319.470
'0:18.957',1319.928
'0:18.961',1320.259
'0:18.965',1320.501
'0:18.969',1320.780
'0:18.973',1321.254
'0:18.977',1321.950
'0:18.980',1322.747
'0:18.984',1323.503
'0:18.988',1324.176
'0:18.992',1324.681
'0:18.996',1324.817
'0:19.000',1324.327
'0:19.004',1323.053
'0:19.008',1320.983
'0:19.012',1318.308
'0:19.016',1315.358
'0:19.020',1312.476
'0:19.023',1309.805
'0:19.027',1307.357
'0:19.031',1305.131
'0:19.035',1303.185
'0:19.039',1301.501
'0:19.043',1300.048
'0:19.047',1298.850
'0:19.051',1297.970
'0:19.055',1297.432
'0:19.059',1297.198
'0:19.063',1297.217
'0:19.066',1297.472
'0:19.070',1297.950
'0:19.074',1298.647
'0:19.078',1299.550
'0:19.082',1300.621
'0:19.086',1301.815
'0:19.090',1303.145
'0:19.094',1304.697
'0:19.098',1306.560
'0:19.102',1308.690
'0:19.105',1310.927
'0:19.109',1313.025
'0:19.113',1314.697
'0:19.117',1315.708
'0:19.121',1315.979
'0:19.125',1315.637
'0:19.129',1314.976
'0:19.133',1314.315
'0:19.137',1313.861
'0:19.141',1313.770
'0:19.145',1314.152
'0:19.148',1315.004
'0:19.152',1316.230
'0:19.156',1317.751
'0:19.160',1319.486
'0:19.164',1321.282
'0:19.168',1322.878
'0:19.172',1324.044
'0:19.176',1324.681
'0:19.180',1324.833
'0:19.184',1324.642
'0:19.188',1324.315
'0:19.191',1324.021
'0:19.195',1323.726
'0:19.199',1323.240
'0:19.203',1322.424
'0:19.207',1321.357
'0:19.211',1320.219
'0:19.215',1319.088
'0:19.219',1317.962
'0:19.223',1316.931
'0:19.227',1316.190
'0:19.230',1315.892
'0:19.234',1315.935
'0:19.238',1315.995
'0:19.242',1315.712
'0:19.246',1314.900
'0:19.250',1313.642
'0:19.254',1312.217
'0:19.258',1310.908
'0:19.262',1309.837
'0:19.266',1308.989
'0:19.270',1308.344
'0:19.273',1307.914
'0:19.277',1307.671
'0:19.281',1307.428
'0:19.285',1306.943
'0:19.289',1306.123
'0:19.293',1305.171
'0:19.297',1304.514
'0:19.301',1304.602
'0:19.305',1305.709
'0:19.309',1307.806
'0:19.313',1310.565
'0:19.316',1313.475
'0:19.320',1315.983
'0:19.324',1317.663
'0:19.328',1318.260
'0:19.332',1317.751
'0:19.336',1316.306
'0:19.340',1314.275
'0:19.344',1312.150
'0:19.348',1310.446
'0:19.352',1309.510
'0:19.355',1309.447
'0:19.359',1310.084
'0:19.363',1311.039
'0:19.367',1311.919
'0:19.371',1312.488
'0:19.375',1312.711
'0:19.379',1312.779
'0:19.383',1312.942
'0:19.387',1313.284
'0:19.391',1313.630
'0:19.395',1313.746
'0:19.398',1313.535
'0:19.402',1313.085
'0:19.406',1312.488
'0:19.410',1311.763
'0:19.414',1310.920
'0:19.418',1310.032
'0:19.422',1309.140
'0:19.426',1308.308
'0:19.430',1307.572
'0:19.434',1306.923
'0:19.438',1306.314
'0:19.441',1305.748
'0:19.445',1305.203
'0:19.449',1304.666
'0:19.453',1304.216
'0:19.457',1303.969
'0:19.461',1304.033
'0:19.465',1304.411
'0:19.469',1304.948
'0:19.473',1305.370
'0:19.477',1305.518
'0:19.480',1305.458
'0:19.484',1305.418
'0:19.488',1305.613
'0:19.492',1306.150
'0:19.496',1307.074
'0:19.500',1308.404
'0:19.504',1310.040
'0:19.508',1311.744
'0:19.512',1313.340
'0:19.516',1314.785
'0:19.520',1316.055
'0:19.523',1317.054
'0:19.527',1317.655
'0:19.531',1317.878
'0:19.535',1317.886
'0:19.539',1317.830
'0:19.543',1317.798
'0:19.547',1317.850
'0:19.551',1317.994
'0:19.555',1318.169
'0:19.559',1318.360
'0:19.563',1318.571
'0:19.566',1318.682
'0:19.570',1318.419
'0:19.574',1317.508
'0:19.578',1315.820
'0:19.582',1313.443
'0:19.586',1310.637
'0:19.590',1307.767
'0:19.594',1305.199
'0:19.598',1303.121
'0:19.602',1301.461
'0:19.605',1299.988
'0:19.609',1298.519
'0:19.613',1297.070
'0:19.617',1295.824
'0:19.621',1294.960
'0:19.625',1294.491
'0:19.629',1294.280
'0:19.633',1294.168
'0:19.637',1294.065
'0:19.641',1293.881
'0:19.645',1293.499
'0:19.648',1292.882
'0:19.652',1292.098
'0:19.656',1291.238
'0:19.660',1290.370
'0:19.664',1289.538
'0:19.668',1288.786
'0:19.672',1288.121
'0:19.676',1287.516
'0:19.680',1286.963
'0:19.684',1286.425
'0:19.688',1285.820
'0:19.691',1285.100
'0:19.695',1284.371
'0:19.699',1283.802
'0:19.703',1283.479
'0:19.707',1283.396
'0:19.711',1283.511
'0:19.715',1283.778
'0:19.719',1284.160
'0:19.723',1284.622
'0:19.727',1285.064
'0:19.730',1285.414
'0:19.734',1285.836
'0:19.738',1286.692
'0:19.742',1288.348
'0:19.746',1291.047
'0:19.750',1294.837
'0:19.754',1299.514
'0:19.758',1304.610
'0:19.762',1309.518
'0:19.766',1313.730
'0:19.770',1316.986
'0:19.773',1319.299
'0:19.777',1320.856
'0:19.781',1321.899
'0:19.785',1322.611
'0:19.789',1323.105
'0:19.793',1323.463
'0:19.797',1323.726
'0:19.801',1323.877
'0:19.805',1323.897
'0:19.809',1323.857
'0:19.813',1323.821
'0:19.816',1323.817
'0:19.820',1323.917
'0:19.824',1324.267
'0:19.828',1324.948
'0:19.832',1325.864
'0:19.836',1326.811
'0:19.840',1327.659
'0:19.844',1328.411
'0:19.848',1329.072
'0:19.852',1329.578
'0:19.855',1329.809
'0:19.859',1329.630
'0:19.863',1328.909
'0:19.867',1327.563
'0:19.871',1325.561
'0:19.875',1322.954
'0:19.879',1319.912
'0:19.883',1316.751
'0:19.887',1313.770
'0:19.891',1311.119
'0:19.895',1308.794
'0:19.898',1306.732
'0:19.902',1304.837
'0:19.906',1303.025
'0:19.910',1301.322
'0:19.914',1299.897
'0:19.918',1299.005
'0:19.922',1298.782
'0:19.926',1299.128
'0:19.930',1299.777
'0:19.934',1300.510
'0:19.938',1301.238
'0:19.941',1301.919
'0:19.945',1302.508
'0:19.949',1303.065
'0:19.953',1303.750
'0:19.957',1304.709
'0:19.961',1305.991
'0:19.965',1307.548
'0:19.969',1309.208
'0:19.973',1310.697
'0:19.977',1311.712
'0:19.980',1312.078
'0:19.984',1311.811
'0:19.988',1311.146
'0:19.992',1310.406
'0:19.996',1309.841
'0:20.000',1309.586
'0:20.004',1309.705
'0:20.008',1310.199
'0:20.012',1310.971
'0:20.016',1311.919
'0:20.020',1312.914
'0:20.023',1313.814
'0:20.027',1314.550
'0:20.031',1315.151
'0:20.035',1315.597
'0:20.039',1315.728
'0:20.043',1315.302
'0:20.047',1314.088
'0:20.051',1311.994
'0:20.055',1309.160
'0:20.059',1305.896
'0:20.063',1302.584
'0:20.066',1299.670
'0:20.070',1297.588
'0:20.074',1296.712
'0:20.078',1297.241
'0:20.082',1299.124
'0:20.086',1302.066
'0:20.090',1305.569
'0:20.094',1309.064
'0:20.098',1311.994
'0:20.102',1313.897
'0:20.105',1314.498
'0:20.109',1313.786
'0:20.113',1311.978
'0:20.117',1309.486
'0:20.121',1306.823
'0:20.125',1304.479
'0:20.129',1302.755
'0:20.133',1301.720
'0:20.137',1301.286
'0:20.141',1301.334
'0:20.145',1301.744
'0:20.148',1302.404
'0:20.152',1303.252
'0:20.156',1304.204
'0:20.160',1305.020
'0:20.164',1305.394
'0:20.168',1305.107
'0:20.172',1304.140
'0:20.176',1302.703
'0:20.180',1301.174
'0:20.184',1299.936
'0:20.188',1299.252
'0:20.191',1299.228
'0:20.195',1299.924
'0:20.199',1301.401
'0:20.203',1303.662
'0:20.207',1306.525
'0:20.211',1309.650
'0:20.215',1312.595
'0:20.219',1315.008
'0:20.223',1316.803
'0:20.227',1318.129
'0:20.230',1319.168
'0:20.234',1320.016
'0:20.238',1320.653
'0:20.242',1321.031
'0:20.246',1321.095
'0:20.250',1320.856
'0:20.254',1320.346
'0:20.258',1319.582
'0:20.262',1318.579
'0:20.266',1317.412
'0:20.270',1316.218
'0:20.273',1315.119
'0:20.277',1314.204
'0:20.281',1313.467
'0:20.285',1312.854
'0:20.289',1312.361
'0:20.293',1312.078
'0:20.297',1312.126
'0:20.301',1312.552
'0:20.305',1313.368
'0:20.309',1314.550
'0:20.313',1315.987
'0:20.316',1317.456
'0:20.320',1318.742
'0:20.324',1319.689
'0:20.328',1320.219
'0:20.332',1320.354
'0:20.336',1320.151
'0:20.340',1319.673
'0:20.344',1319.025
'0:20.348',1318.411
'0:20.352',1318.053
'0:20.355',1318.041
'0:20.359',1318.280
'0:20.363',1318.638
'0:20.367',1319.132
'0:20.371',1319.924
'0:20.375',1321.150
'0:20.379',1322.723
'0:20.383',1324.287
'0:20.387',1325.418
'0:20.391',1325.828
'0:20.395',1325.398
'0:20.398',1324.168
'0:20.402',1322.325
'0:20.406',1320.227
'0:20.410',1318.348
'0:20.414',1317.102
'0:20.418',1316.704
'0:20.422',1317.241
'0:20.426',1318.730
'0:20.430',1321.015
'0:20.434',1323.714
'0:20.438',1326.369
'0:20.441',1328.622
'0:20.445',1330.251
'0:20.449',1331.146
'0:20.453',1331.242
'0:20.457',1330.485
'0:20.461',1328.853
'0:20.465',1326.361
'0:20.469',1323.093
'0:20.473',1319.204
'0:20.477',1314.980
'0:20.480',1310.800
'0:20.484',1307.046
'0:20.488',1303.989
'0:20.492',1301.644
'0:20.496',1299.845
'0:20.500',1298.408
'0:20.504',1297.194
'0:20.508',1296.079
'0:20.512',1295.000
'0:20.516',1293.937
'0:20.520',1292.894
'0:20.523',1291.879
'0:20.527',1290.956
'0:20.531',1290.243
'0:20.535',1289.841
'0:20.539',1289.797
'0:20.543',1290.159
'0:20.547',1290.940
'0:20.551',1292.082
'0:20.555',1293.467
'0:20.559',1294.901
'0:20.563',1296.162
'0:20.566',1297.158
'0:20.570',1297.914
'0:20.574',1298.491
'0:20.578',1298.881
'0:20.582',1299.049
'0:20.586',1298.961
'0:20.590',1298.678
'0:20.594',1298.380
'0:20.598',1298.260
'0:20.602',1298.428
'0:20.605',1298.941
'0:20.609',1299.781
'0:20.613',1300.868
'0:20.617',1302.221
'0:20.621',1303.933
'0:20.625',1305.959
'0:20.629',1308.002
'0:20.633',1309.666
'0:20.637',1310.689
'0:20.641',1311.071
'0:20.645',1311.067
'0:20.648',1311.007
'0:20.652',1311.035
'0:20.656',1311.055
'0:20.660',1310.951
'0:20.664',1310.780
'0:20.668',1310.677
'0:20.672',1310.701
'0:20.676',1310.828
'0:20.680',1311.027
'0:20.684',1311.214
'0:20.688',1311.310
'0:20.691',1311.286
'0:20.695',1311.123
'0:20.699',1310.796
'0:20.703',1310.310
'0:20.707',1309.602
'0:20.711',1308.583
'0:20.715',1307.289
'0:20.719',1305.852
'0:20.723',1304.467
'0:20.727',1303.288
'0:20.730',1302.420
'0:20.734',1301.891
'0:20.738',1301.712
'0:20.742',1301.891
'0:20.746',1302.404
'0:20.750',1303.121
'0:20.754',1303.818
'0:20.758',1304.295
'0:20.762',1304.447
'0:20.766',1304.283
'0:20.770',1303.925
'0:20.773',1303.471
'0:20.777',1302.974
'0:20.781',1302.488
'0:20.785',1302.086
'0:20.789',1301.807
'0:20.793',1301.692
'0:20.797',1301.708
'0:20.801',1301.752
'0:20.805',1301.748
'0:20.809',1301.744
'0:20.813',1301.831
'0:20.816',1302.114
'0:20.820',1302.695
'0:20.824',1303.714
'0:20.828',1305.370
'0:20.832',1307.842
'0:20.836',1311.142
'0:20.840',1314.996
'0:20.844',1318.925
'0:20.848',1322.432
'0:20.852',1325.207
'0:20.855',1327.106
'0:20.859',1328.089
'0:20.863',1328.121
'0:20.867',1327.173
'0:20.871',1325.302
'0:20.875',1322.699
'0:20.879',1319.725
'0:20.883',1316.855
'0:20.887',1314.538
'0:20.891',1312.990
'0:20.895',1312.038
'0:20.898',1311.266
'0:20.902',1310.279
'0:20.906',1308.933
'0:20.910',1307.317
'0:20.914',1305.569
'0:20.918',1303.850
'0:20.922',1302.361
'0:20.926',1301.290
'0:20.930',1300.685
'0:20.934',1300.410
'0:20.938',1300.299
'0:20.941',1300.251
'0:20.945',1300.199
'0:20.949',1300.072
'0:20.953',1299.769
'0:20.957',1299.200
'0:20.961',1298.400
'0:20.965',1297.548
'0:20.969',1296.807
'0:20.973',1296.274
'0:20.977',1295.971
'0:20.980',1295.884
'0:20.984',1296.007
'0:20.988',1296.354
'0:20.992',1296.903
'0:20.996',1297.631
'0:21.000',1298.487
'0:21.004',1299.367
'0:21.008',1300.072
'0:21.012',1300.315
'0:21.016',1299.897
'0:21.020',1298.858
'0:21.023',1297.440
'0:21.027',1295.967
'0:21.031',1294.662
'0:21.035',1293.647
'0:21.039',1292.950
'0:21.043',1292.588
'0:21.047',1292.576
'0:21.051',1292.878
'0:21.055',1293.344
'0:21.059',1293.858
'0:21.063',1294.431
'0:21.066',1295.151
'0:21.070',1296.091
'0:21.074',1297.253
'0:21.078',1298.599
'0:21.082',1300.004
'0:21.086',1301.242
'0:21.090',1302.130
'0:21.094',1302.719
'0:21.098',1303.312
'0:21.102',1304.299
'0:21.105',1305.995
'0:21.109',1308.515
'0:21.113',1311.708
'0:21.117',1315.211
'0:21.121',1318.607
'0:21.125',1321.529
'0:21.129',1323.710
'0:21.133',1324.956
'0:21.137',1325.147
'0:21.141',1324.255
'0:21.145',1322.364
'0:21.148',1319.681
'0:21.152',1316.564
'0:21.156',1313.527
'0:21.160',1311.083
'0:21.164',1309.558
'0:21.168',1308.973
'0:21.172',1309.140
'0:21.176',1309.908
'0:21.180',1311.226
'0:21.184',1313.005
'0:21.188',1314.996
'0:21.191',1316.827
'0:21.195',1318.149
'0:21.199',1318.718
'0:21.203',1318.447
'0:21.207',1317.440
'0:21.211',1315.939
'0:21.215',1314.220
'0:21.219',1312.384
'0:21.223',1310.378
'0:21.227',1308.161
'0:21.230',1305.856
'0:21.234',1303.758
'0:21.238',1302.118
'0:21.242',1300.991
'0:21.246',1300.326
'0:21.250',1300.187
'0:21.254',1300.780
'0:21.258',1302.213
'0:21.262',1304.383
'0:21.266',1307.002
'0:21.270',1309.674
'0:21.273',1311.986
'0:21.277',1313.638
'0:21.281',1314.494
'0:21.285',1314.570
'0:21.289',1313.965
'0:21.293',1312.775
'0:21.297',1311.075
'0:21.301',1308.945
'0:21.305',1306.580
'0:21.309',1304.240
'0:21.313',1302.178
'0:21.316',1300.593
'0:21.320',1299.658
'0:21.324',1299.423
'0:21.328',1299.737
'0:21.332',1300.271
'0:21.336',1300.725
'0:21.340',1301.051
'0:21.344',1301.346
'0:21.348',1301.624
'0:21.352',1301.811
'0:21.355',1301.947
'0:21.359',1302.237
'0:21.363',1302.882
'0:21.367',1303.877
'0:21.371',1305.012
'0:21.375',1306.031
'0:21.379',1306.823
'0:21.383',1307.472
'0:21.387',1308.169
'0:21.391',1309.056
'0:21.395',1310.095
'0:21.398',1311.059
'0:21.402',1311.740
'0:21.406',1312.189
'0:21.410',1312.735
'0:21.414',1313.802
'0:21.418',1315.637
'0:21.422',1318.161
'0:21.426',1321.047
'0:21.430',1323.913
'0:21.434',1326.485
'0:21.438',1328.599
'0:21.441',1330.151
'0:21.445',1331.102
'0:21.449',1331.449
'0:21.453',1331.238
'0:21.457',1330.497
'0:21.461',1329.251
'0:21.465',1327.591
'0:21.469',1325.700
'0:21.473',1323.814
'0:21.477',1322.173
'0:21.480',1320.923
'0:21.484',1319.972
'0:21.488',1319.088
'0:21.492',1318.177
'0:21.496',1317.392
'0:21.500',1317.002
'0:21.504',1317.110
'0:21.508',1317.556
'0:21.512',1318.017
'0:21.516',1318.216
'0:21.520',1317.997
'0:21.523',1317.345
'0:21.527',1316.401
'0:21.531',1315.442
'0:21.535',1314.745
'0:21.539',1314.538
'0:21.543',1314.928
'0:21.547',1315.860
'0:21.551',1317.054
'0:21.555',1318.069
'0:21.559',1318.443
'0:21.563',1317.834
'0:21.566',1316.138
'0:21.570',1313.555
'0:21.574',1310.589
'0:21.578',1307.854
'0:21.582',1305.812
'0:21.586',1304.566
'0:21.590',1303.925
'0:21.594',1303.595
'0:21.598',1303.384
'0:21.602',1303.205
'0:21.605',1303.029
'0:21.609',1302.906
'0:21.613',1302.902
'0:21.617',1303.014
'0:21.621',1303.137
'0:21.625',1303.105
'0:21.629',1302.886
'0:21.633',1302.619
'0:21.637',1302.492
'0:21.641',1302.596
'0:21.645',1302.926
'0:21.648',1303.475
'0:21.652',1304.248
'0:21.656',1305.195
'0:21.660',1306.174
'0:21.664',1307.074
'0:21.668',1307.830
'0:21.672',1308.380
'0:21.676',1308.722
'0:21.680',1309.001
'0:21.684',1309.387
'0:21.688',1309.885
'0:21.691',1310.390
'0:21.695',1310.935
'0:21.699',1311.736
'0:21.703',1313.013
'0:21.707',1314.773
'0:21.711',1316.755
'0:21.715',1318.646
'0:21.719',1320.211
'0:21.723',1321.258
'0:21.727',1321.584
'0:21.730',1320.999
'0:21.734',1319.407
'0:21.738',1316.847
'0:21.742',1313.519
'0:21.746',1309.789
'0:21.750',1306.202
'0:21.754',1303.372
'0:21.758',1301.772
'0:21.762',1301.525
'0:21.766',1302.349
'0:21.770',1303.702
'0:21.773',1305.052
'0:21.777',1306.043
'0:21.781',1306.521
'0:21.785',1306.549
'0:21.789',1306.381
'0:21.793',1306.322
'0:21.797',1306.477
'0:21.801',1306.724
'0:21.805',1306.863
'0:21.809',1306.752
'0:21.813',1306.389
'0:21.816',1305.987
'0:21.820',1305.852
'0:21.824',1306.194
'0:21.828',1306.959
'0:21.832',1307.874
'0:21.836',1308.583
'0:21.840',1308.694
'0:21.844',1307.894
'0:21.848',1306.055
'0:21.852',1303.308
'0:21.855',1299.988
'0:21.859',1296.501
'0:21.863',1293.241
'0:21.867',1290.542
'0:21.871',1288.627
'0:21.875',1287.620
'0:21.879',1287.560
'0:21.883',1288.436
'0:21.887',1290.171
'0:21.891',1292.663
'0:21.895',1295.752
'0:21.898',1299.168
'0:21.902',1302.504
'0:21.906',1305.287
'0:21.910',1307.086
'0:21.914',1307.631
'0:21.918',1306.927
'0:21.922',1305.259
'0:21.926',1303.113
'0:21.930',1301.095
'0:21.934',1299.733
'0:21.938',1299.395
'0:21.941',1300.187
'0:21.945',1301.955
'0:21.949',1304.295
'0:21.953',1306.696
'0:21.957',1308.658
'0:21.961',1309.837
'0:21.965',1310.119
'0:21.969',1309.681
'0:21.973',1308.929
'0:21.977',1308.324
'0:21.980',1308.117
'0:21.984',1308.221
'0:21.988',1308.384
'0:21.992',1308.467
'0:21.996',1308.443
'0:22.000',1308.288
'0:22.004',1307.966
'0:22.008',1307.540
'0:22.012',1307.142
'0:22.016',1306.783
'0:22.020',1306.369
'0:22.023',1305.868
'0:22.027',1305.370
'0:22.031',1305.024
'0:22.035',1304.928
'0:22.039',1305.028
'0:22.043',1305.175
'0:22.047',1305.307
'0:22.051',1305.454
'0:22.055',1305.621
'0:22.059',1305.808
'0:22.063',1306.154
'0:22.066',1306.927
'0:22.070',1308.308
'0:22.074',1310.211
'0:22.078',1312.301
'0:22.082',1314.152
'0:22.086',1315.370
'0:22.090',1315.705
'0:22.094',1315.103
'0:22.098',1313.722
'0:22.102',1311.851
'0:22.105',1309.761
'0:22.109',1307.599
'0:22.113',1305.422
'0:22.117',1303.260
'0:22.121',1301.123
'0:22.125',1299.073
'0:22.129',1297.257
'0:22.133',1295.792
'0:22.137',1294.757
'0:22.141',1294.264
'0:22.145',1294.443
'0:22.148',1295.283
'0:22.152',1296.565
'0:22.156',1297.978
'0:22.160',1299.367
'0:22.164',1300.776
'0:22.168',1302.237
'0:22.172',1303.647
'0:22.176',1304.845
'0:22.180',1305.641
'0:22.184',1305.776
'0:22.188',1304.972
'0:22.191',1303.149
'0:22.195',1300.482
'0:22.199',1297.436
'0:22.203',1294.630
'0:22.207',1292.667
'0:22.211',1291.971
'0:22.215',1292.775
'0:22.219',1295.108
'0:22.223',1298.810
'0:22.227',1303.447
'0:22.230',1308.380
'0:22.234',1312.966
'0:22.238',1316.736
'0:22.242',1319.470
'0:22.246',1321.122
'0:22.250',1321.704
'0:22.254',1321.282
'0:22.258',1319.984
'0:22.262',1318.049
'0:22.266',1315.772
'0:22.270',1313.423
'0:22.273',1311.194
'0:22.277',1309.232
'0:22.281',1307.763
'0:22.285',1307.098
'0:22.289',1307.436
'0:22.293',1308.706
'0:22.297',1310.581
'0:22.301',1312.655
'0:22.305',1314.518
'0:22.309',1315.748
'0:22.313',1315.999
'0:22.316',1315.151
'0:22.320',1313.336
'0:22.324',1310.963
'0:22.328',1308.623
'0:22.332',1306.871
'0:22.336',1306.075
'0:22.340',1306.381
'0:22.344',1307.731
'0:22.348',1309.797
'0:22.352',1312.026
'0:22.355',1313.897
'0:22.359',1315.091
'0:22.363',1315.553
'0:22.367',1315.362
'0:22.371',1314.658
'0:22.375',1313.595
'0:22.379',1312.420
'0:22.383',1311.445
'0:22.387',1311.015
'0:22.391',1311.425
'0:22.395',1312.787
'0:22.398',1314.964
'0:22.402',1317.548
'0:22.406',1319.992
'0:22.410',1321.775
'0:22.414',1322.548
'0:22.418',1322.157
'0:22.422',1320.665
'0:22.426',1318.336
'0:22.430',1315.589
'0:22.434',1312.854
'0:22.438',1310.378
'0:22.441',1308.137
'0:22.445',1305.912
'0:22.449',1303.495
'0:22.453',1300.836
'0:22.457',1298.061
'0:22.461',1295.315
'0:22.465',1292.627
'0:22.469',1290.032
'0:22.473',1287.651
'0:22.477',1285.645
'0:22.480',1284.136
'0:22.484',1283.225
'0:22.488',1282.994
'0:22.492',1283.503
'0:22.496',1284.789
'0:22.500',1286.859
'0:22.504',1289.662
'0:22.508',1293.065
'0:22.512',1296.784
'0:22.516',1300.446
'0:22.520',1303.746
'0:22.523',1306.608
'0:22.527',1309.096
'0:22.531',1311.198
'0:22.535',1312.743
'0:22.539',1313.515
'0:22.543',1313.380
'0:22.547',1312.349
'0:22.551',1310.613
'0:22.555',1308.535
'0:22.559',1306.553
'0:22.563',1305.064
'0:22.566',1304.371
'0:22.570',1304.670
'0:22.574',1305.971
'0:22.578',1308.061
'0:22.582',1310.549
'0:22.586',1313.065
'0:22.590',1315.430
'0:22.594',1317.635
'0:22.598',1319.725
'0:22.602',1321.712
'0:22.605',1323.559
'0:22.609',1325.127
'0:22.613',1326.222
'0:22.617',1326.692
'0:22.621',1326.477
'0:22.625',1325.625
'0:22.629',1324.259
'0:22.633',1322.599
'0:22.637',1320.931
'0:22.641',1319.450
'0:22.645',1318.153
'0:22.648',1316.887
'0:22.652',1315.589
'0:22.656',1314.331
'0:22.660',1313.256
'0:22.664',1312.468
'0:22.668',1312.042
'0:22.672',1312.062
'0:22.676',1312.576
'0:22.680',1313.451
'0:22.684',1314.470
'0:22.688',1315.501
'0:22.691',1316.548
'0:22.695',1317.603
'0:22.699',1318.587
'0:22.703',1319.387
'0:22.707',1319.888
'0:22.711',1319.956
'0:22.715',1319.458
'0:22.719',1318.312
'0:22.723',1316.556
'0:22.727',1314.391
'0:22.730',1312.142
'0:22.734',1310.036
'0:22.738',1308.105
'0:22.742',1306.250
'0:22.746',1304.407
'0:22.750',1302.611
'0:22.754',1300.983
'0:22.758',1299.705
'0:22.762',1298.965
'0:22.766',1298.818
'0:22.770',1299.073
'0:22.773',1299.407
'0:22.777',1299.602
'0:22.781',1299.642
'0:22.785',1299.618
'0:22.789',1299.614
'0:22.793',1299.793
'0:22.797',1300.410
'0:22.801',1301.664
'0:22.805',1303.543
'0:22.809',1305.872
'0:22.813',1308.439
'0:22.816',1311.083
'0:22.820',1313.682
'0:22.824',1316.095
'0:22.828',1318.097
'0:22.832',1319.474
'0:22.836',1320.087
'0:22.840',1319.912
'0:22.844',1319.040
'0:22.848',1317.703
'0:22.852',1316.286
'0:22.855',1315.287
'0:22.859',1315.139
'0:22.863',1315.995
'0:22.867',1317.671
'0:22.871',1319.737
'0:22.875',1321.700
'0:22.879',1323.145
'0:22.883',1323.817
'0:22.887',1323.642
'0:22.891',1322.687
'0:22.895',1321.099
'0:22.898',1319.072
'0:22.902',1316.875
'0:22.906',1314.916
'0:22.910',1313.654
'0:22.914',1313.356
'0:22.918',1313.917
'0:22.922',1314.900
'0:22.926',1315.720
'0:22.930',1315.908
'0:22.934',1315.239
'0:22.938',1313.770
'0:22.941',1311.811
'0:22.945',1309.717
'0:22.949',1307.731
'0:22.953',1305.959
'0:22.957',1304.447
'0:22.961',1303.217
'0:22.965',1302.281
'0:22.969',1301.624
'0:22.973',1301.202
'0:22.977',1300.955
'0:22.980',1300.812
'0:22.984',1300.736
'0:22.988',1300.733
'0:22.992',1300.792
'0:22.996',1300.896
'0:23.000',1301.015
'0:23.004',1301.083
'0:23.008',1300.979
'0:23.012',1300.653
'0:23.016',1300.167
'0:23.020',1299.590
'0:23.023',1298.913
'0:23.027',1298.089
'0:23.031',1297.094
'0:23.035',1295.932
'0:23.039',1294.598
'0:23.043',1293.121
'0:23.047',1291.604
'0:23.051',1290.179
'0:23.055',1289.017
'0:23.059',1288.372
'0:23.063',1288.495
'0:23.066',1289.518
'0:23.070',1291.397
'0:23.074',1293.973
'0:23.078',1296.963
'0:23.082',1300.004
'0:23.086',1302.775
'0:23.090',1305.127
'0:23.094',1307.014
'0:23.098',1308.424
'0:23.102',1309.347
'0:23.105',1309.785
'0:23.109',1309.809
'0:23.113',1309.642
'0:23.117',1309.650
'0:23.121',1310.207
'0:23.125',1311.505
'0:23.129',1313.372
'0:23.133',1315.342
'0:23.137',1316.927
'0:23.141',1317.842
'0:23.145',1318.109
'0:23.148',1317.978
'0:23.152',1317.755
'0:23.156',1317.651
'0:23.160',1317.755
'0:23.164',1318.097
'0:23.168',1318.591
'0:23.172',1319.013
'0:23.176',1319.040
'0:23.180',1318.447
'0:23.184',1317.162
'0:23.188',1315.247
'0:23.191',1312.898
'0:23.195',1310.350
'0:23.199',1307.795
'0:23.203',1305.366
'0:23.207',1303.181
'0:23.211',1301.350
'0:23.215',1300.008
'0:23.219',1299.283
'0:23.223',1299.291
'0:23.227',1300.032
'0:23.230',1301.350
'0:23.234',1302.942
'0:23.238',1304.435
'0:23.242',1305.486
'0:23.246',1305.884
'0:23.250',1305.537
'0:23.254',1304.423
'0:23.258',1302.552
'0:23.262',1300.072
'0:23.266',1297.401
'0:23.270',1295.108
'0:23.273',1293.670
'0:23.277',1293.332
'0:23.281',1294.148
'0:23.285',1296.119
'0:23.289',1299.132
'0:23.293',1302.878
'0:23.297',1306.879
'0:23.301',1310.697
'0:23.305',1314.096
'0:23.309',1317.038
'0:23.313',1319.546
'0:23.316',1321.668
'0:23.320',1323.475
'0:23.324',1325.067
'0:23.328',1326.513
'0:23.332',1327.759
'0:23.336',1328.694
'0:23.340',1329.204
'0:23.344',1329.204
'0:23.348',1328.626
'0:23.352',1327.456
'0:23.355',1325.752
'0:23.359',1323.646
'0:23.363',1321.341
'0:23.367',1319.060
'0:23.371',1316.990
'0:23.375',1315.231
'0:23.379',1313.794
'0:23.383',1312.643
'0:23.387',1311.724
'0:23.391',1310.967
'0:23.395',1310.239
'0:23.398',1309.387
'0:23.402',1308.435
'0:23.406',1307.703
'0:23.410',1307.631
'0:23.414',1308.535
'0:23.418',1310.502
'0:23.422',1313.400
