'Elapsed time','wrist_ppg'
'hh:mm:ss.mmm','mV'
'0:00.000',694.546
'0:00.004',685.640
'0:00.008',677.573
'0:00.012',671.003
'0:00.016',666.440
'0:00.020',664.360
'0:00.023',664.980
'0:00.027',668.557
'0:00.031',675.237
'0:00.035',684.983
'0:00.039',697.795
'0:00.043',713.527
'0:00.047',731.851
'0:00.051',752.218
'0:00.055',774.119
'0:00.059',797.115
'0:00.063',820.877
'0:00.066',845.151
'0:00.070',869.643
'0:00.074',894.062
'0:00.078',918.153
'0:00.082',941.806
'0:00.086',964.984
'0:00.090',987.506
'0:00.094',1008.968
'0:00.098',1029.190
'0:00.102',1048.098
'0:00.105',1065.545
'0:00.109',1081.569
'0:00.113',1096.279
'0:00.117',1110.040
'0:00.121',1123.290
'0:00.125',1136.394
'0:00.129',1149.389
'0:00.133',1162.237
'0:00.137',1174.794
'0:00.141',1186.949
'0:00.145',1198.812
'0:00.148',1210.528
'0:00.152',1222.172
'0:00.156',1233.853
'0:00.160',1245.606
'0:00.164',1257.433
'0:00.168',1269.295
'0:00.172',1281.049
'0:00.176',1292.656
'0:00.180',1304.118
'0:00.184',1315.470
'0:00.188',1326.785
'0:00.191',1337.991
'0:00.195',1348.978
'0:00.199',1359.746
'0:00.203',1370.295
'0:00.207',1380.515
'0:00.211',1390.334
'0:00.215',1399.605
'0:00.219',1408.365
'0:00.223',1416.688
'0:00.227',1424.718
'0:00.230',1432.529
'0:00.234',1440.267
'0:00.238',1447.860
'0:00.242',1455.270
'0:00.246',1462.424
'0:00.250',1469.249
'0:00.254',1475.601
'0:00.258',1481.331
'0:00.262',1486.442
'0:00.266',1490.968
'0:00.270',1494.873
'0:00.273',1498.195
'0:00.277',1501.042
'0:00.281',1503.561
'0:00.285',1506.116
'0:00.289',1508.780
'0:00.293',1511.737
'0:00.297',1515.132
'0:00.301',1519.220
'0:00.305',1524.293
'0:00.309',1530.535
'0:00.313',1537.908
'0:00.316',1546.340
'0:00.320',1555.539
'0:00.324',1565.065
'0:00.328',1574.483
'0:00.332',1583.133
'0:00.336',1590.507
'0:00.340',1596.310
'0:00.344',1600.435
'0:00.348',1602.954
'0:00.352',1604.012
'0:00.355',1603.866
'0:00.359',1602.917
'0:00.363',1601.786
'0:00.367',1600.983
'0:00.371',1600.946
'0:00.375',1601.822
'0:00.379',1603.720
'0:00.383',1606.494
'0:00.387',1609.816
'0:00.391',1613.466
'0:00.395',1617.189
'0:00.398',1621.095
'0:00.402',1625.402
'0:00.406',1630.512
'0:00.410',1636.790
'0:00.414',1644.456
'0:00.418',1653.544
'0:00.422',1664.130
'0:00.426',1676.321
'0:00.430',1690.301
'0:00.434',1706.070
'0:00.438',1723.700
'0:00.441',1743.119
'0:00.445',1764.362
'0:00.449',1787.358
'0:00.453',1811.851
'0:00.457',1837.511
'0:00.461',1864.157
'0:00.465',1891.606
'0:00.469',1919.712
'0:00.473',1948.292
'0:00.477',1977.055
'0:00.480',2005.709
'0:00.484',2033.961
'0:00.488',2061.373
'0:00.492',2087.545
'0:00.496',2112.037
'0:00.500',2134.449
'0:00.504',2154.415
'0:00.508',2171.753
'0:00.512',2186.317
'0:00.516',2198.180
'0:00.520',2207.269
'0:00.523',2213.547
'0:00.527',2216.942
'0:00.531',2217.526
'0:00.535',2215.190
'0:00.539',2209.970
'0:00.543',2201.794
'0:00.547',2190.661
'0:00.551',2176.681
'0:00.555',2159.927
'0:00.559',2140.399
'0:00.563',2118.279
'0:00.566',2093.823
'0:00.570',2067.505
'0:00.574',2039.655
'0:00.578',2010.673
'0:00.582',1980.851
'0:00.586',1950.373
'0:00.590',1919.493
'0:00.594',1888.321
'0:00.598',1857.149
'0:00.602',1825.977
'0:00.605',1794.841
'0:00.609',1763.778
'0:00.613',1732.789
'0:00.617',1702.018
'0:00.621',1671.540
'0:00.625',1641.390
'0:00.629',1611.750
'0:00.633',1582.695
'0:00.637',1554.334
'0:00.641',1526.666
'0:00.645',1499.509
'0:00.648',1472.827
'0:00.652',1446.546
'0:00.656',1420.885
'0:00.660',1396.101
'0:00.664',1372.448
'0:00.668',1350.000
'0:00.672',1328.902
'0:00.676',1309.155
'0:00.680',1290.758
'0:00.684',1273.676
'0:00.688',1257.944
'0:00.691',1243.307
'0:00.695',1229.473
'0:00.699',1216.113
'0:00.703',1202.936
'0:00.707',1189.613
'0:00.711',1175.962
'0:00.715',1161.982
'0:00.719',1148.002
'0:00.723',1134.241
'0:00.727',1121.027
'0:00.730',1108.617
'0:00.734',1097.192
'0:00.738',1086.862
'0:00.742',1077.810
'0:00.746',1070.035
'0:00.750',1063.684
'0:00.754',1058.866
'0:00.758',1055.727
'0:00.762',1054.412
'0:00.766',1055.069
'0:00.770',1057.880
'0:00.773',1062.881
'0:00.777',1069.999
'0:00.781',1079.014
'0:00.785',1089.600
'0:00.789',1101.426
'0:00.793',1114.165
'0:00.797',1127.525
'0:00.801',1141.249
'0:00.805',1155.083
'0:00.809',1168.625
'0:00.813',1181.473
'0:00.816',1193.446
'0:00.820',1204.652
'0:00.824',1215.420
'0:00.828',1226.041
'0:00.832',1236.773
'0:00.836',1247.723
'0:00.840',1258.856
'0:00.844',1270.135
'0:00.848',1281.377
'0:00.852',1292.364
'0:00.855',1303.096
'0:00.859',1313.499
'0:00.863',1323.646
'0:00.867',1333.355
'0:00.871',1342.517
'0:00.875',1351.204
'0:00.879',1359.490
'0:00.883',1367.447
'0:00.887',1374.930
'0:00.891',1381.902
'0:00.895',1388.363
'0:00.898',1394.531
'0:00.902',1400.481
'0:00.906',1406.285
'0:00.910',1411.796
'0:00.914',1417.053
'0:00.918',1421.907
'0:00.922',1426.470
'0:00.926',1430.777
'0:00.930',1434.938
'0:00.934',1439.063
'0:00.938',1443.188
'0:00.941',1447.239
'0:00.945',1451.181
'0:00.949',1454.941
'0:00.953',1458.445
'0:00.957',1461.621
'0:00.961',1464.249
'0:00.965',1466.220
'0:00.969',1467.351
'0:00.973',1467.570
'0:00.977',1466.950
'0:00.980',1465.599
'0:00.984',1463.701
'0:00.988',1461.329
'0:00.992',1458.737
'0:00.996',1456.146
'0:01.000',1453.773
'0:01.004',1451.765
'0:01.008',1450.196
'0:01.012',1448.991
'0:01.016',1448.115
'0:01.020',1447.531
'0:01.023',1447.093
'0:01.027',1446.509
'0:01.031',1445.341
'0:01.035',1443.334
'0:01.039',1440.340
'0:01.043',1436.289
'0:01.047',1431.142
'0:01.051',1425.083
'0:01.055',1418.294
'0:01.059',1411.212
'0:01.063',1403.985
'0:01.066',1396.721
'0:01.070',1389.385
'0:01.074',1381.865
'0:01.078',1374.054
'0:01.082',1365.841
'0:01.086',1357.081
'0:01.090',1347.773
'0:01.094',1338.100
'0:01.098',1328.428
'0:01.102',1319.156
'0:01.105',1310.505
'0:01.109',1302.804
'0:01.113',1296.306
'0:01.117',1291.160
'0:01.121',1287.437
'0:01.125',1285.210
'0:01.129',1284.371
'0:01.133',1284.882
'0:01.137',1286.634
'0:01.141',1289.335
'0:01.145',1292.802
'0:01.148',1296.890
'0:01.152',1301.453
'0:01.156',1306.344
'0:01.160',1311.272
'0:01.164',1315.981
'0:01.168',1320.397
'0:01.172',1324.558
'0:01.176',1328.428
'0:01.180',1331.895
'0:01.184',1334.925
'0:01.188',1337.370
'0:01.191',1339.305
'0:01.195',1340.874
'0:01.199',1342.371
'0:01.203',1344.087
'0:01.207',1346.240
'0:01.211',1348.722
'0:01.215',1351.533
'0:01.219',1354.635
'0:01.223',1358.249
'0:01.227',1362.702
'0:01.230',1368.323
'0:01.234',1375.332
'0:01.238',1383.544
'0:01.242',1392.670
'0:01.246',1402.197
'0:01.250',1411.760
'0:01.254',1421.141
'0:01.258',1430.230
'0:01.262',1438.990
'0:01.266',1447.239
'0:01.270',1454.904
'0:01.273',1461.876
'0:01.277',1468.045
'0:01.281',1473.447
'0:01.285',1478.046
'0:01.289',1481.806
'0:01.293',1484.799
'0:01.297',1487.135
'0:01.301',1489.143
'0:01.305',1491.114
'0:01.309',1493.340
'0:01.313',1495.786
'0:01.316',1498.268
'0:01.320',1500.495
'0:01.324',1502.429
'0:01.328',1504.035
'0:01.332',1505.495
'0:01.336',1506.736
'0:01.340',1507.685
'0:01.344',1508.087
'0:01.348',1507.941
'0:01.352',1507.211
'0:01.355',1505.970
'0:01.359',1504.254
'0:01.363',1502.283
'0:01.367',1500.239
'0:01.371',1498.268
'0:01.375',1496.406
'0:01.379',1494.581
'0:01.383',1492.683
'0:01.387',1490.530
'0:01.391',1488.194
'0:01.395',1485.785
'0:01.398',1483.594
'0:01.402',1481.806
'0:01.406',1480.455
'0:01.410',1479.470
'0:01.414',1478.667
'0:01.418',1478.083
'0:01.422',1477.608
'0:01.426',1477.316
'0:01.430',1477.207
'0:01.434',1477.207
'0:01.438',1477.207
'0:01.441',1477.061
'0:01.445',1476.732
'0:01.449',1476.294
'0:01.453',1475.747
'0:01.457',1475.199
'0:01.461',1474.542
'0:01.465',1473.812
'0:01.469',1473.046
'0:01.473',1472.060
'0:01.477',1470.892
'0:01.480',1469.469
'0:01.484',1468.081
'0:01.488',1467.205
'0:01.492',1467.132
'0:01.496',1468.008
'0:01.500',1469.724
'0:01.504',1472.279
'0:01.508',1475.564
'0:01.512',1479.470
'0:01.516',1483.850
'0:01.520',1488.340
'0:01.523',1492.720
'0:01.527',1496.881
'0:01.531',1500.714
'0:01.535',1504.218
'0:01.539',1507.430
'0:01.543',1510.350
'0:01.547',1512.978
'0:01.551',1515.278
'0:01.555',1517.139
'0:01.559',1518.563
'0:01.563',1519.585
'0:01.566',1520.424
'0:01.570',1521.483
'0:01.574',1523.235
'0:01.578',1526.082
'0:01.582',1530.207
'0:01.586',1535.645
'0:01.590',1542.252
'0:01.594',1549.662
'0:01.598',1557.510
'0:01.602',1565.394
'0:01.605',1573.278
'0:01.609',1581.235
'0:01.613',1589.375
'0:01.617',1597.771
'0:01.621',1606.239
'0:01.625',1614.598
'0:01.629',1622.518
'0:01.633',1629.855
'0:01.637',1636.498
'0:01.641',1642.229
'0:01.645',1647.011
'0:01.648',1650.770
'0:01.652',1653.581
'0:01.656',1655.516
'0:01.660',1656.647
'0:01.664',1657.085
'0:01.668',1656.903
'0:01.672',1656.246
'0:01.676',1655.406
'0:01.680',1654.566
'0:01.684',1653.873
'0:01.688',1653.289
'0:01.691',1652.595
'0:01.695',1651.500
'0:01.699',1649.712
'0:01.703',1646.974
'0:01.707',1643.069
'0:01.711',1637.885
'0:01.715',1631.315
'0:01.719',1623.358
'0:01.723',1614.123
'0:01.727',1603.647
'0:01.730',1592.149
'0:01.734',1579.666
'0:01.738',1566.379
'0:01.742',1552.436
'0:01.746',1537.908
'0:01.750',1522.906
'0:01.754',1507.430
'0:01.758',1491.515
'0:01.762',1475.163
'0:01.766',1458.299
'0:01.770',1440.669
'0:01.773',1422.199
'0:01.777',1403.000
'0:01.781',1383.179
'0:01.785',1362.739
'0:01.789',1341.714
'0:01.793',1320.251
'0:01.797',1298.497
'0:01.801',1276.486
'0:01.805',1254.439
'0:01.809',1232.502
'0:01.813',1210.857
'0:01.816',1189.723
'0:01.820',1169.282
'0:01.824',1149.863
'0:01.828',1132.014
'0:01.832',1116.173
'0:01.836',1102.594
'0:01.840',1091.571
'0:01.844',1083.139
'0:01.848',1077.518
'0:01.852',1074.707
'0:01.855',1074.817
'0:01.859',1077.737
'0:01.863',1083.504
'0:01.867',1092.118
'0:01.871',1103.543
'0:01.875',1117.377
'0:01.879',1133.109
'0:01.883',1150.046
'0:01.887',1167.493
'0:01.891',1184.722
'0:01.895',1201.257
'0:01.898',1216.953
'0:01.902',1231.699
'0:01.906',1245.679
'0:01.910',1259.185
'0:01.914',1272.435
'0:01.918',1285.612
'0:01.922',1298.825
'0:01.926',1312.002
'0:01.930',1325.215
'0:01.934',1338.538
'0:01.938',1352.007
'0:01.941',1365.586
'0:01.945',1378.982
'0:01.949',1392.013
'0:01.953',1404.642
'0:01.957',1417.016
'0:01.961',1429.427
'0:01.965',1441.983
'0:01.969',1454.576
'0:01.973',1467.023
'0:01.977',1478.959
'0:01.980',1490.238
'0:01.984',1500.714
'0:01.988',1510.423
'0:01.992',1519.256
'0:01.996',1527.177
'0:02.000',1534.149
'0:02.004',1540.281
'0:02.008',1545.574
'0:02.012',1550.173
'0:02.016',1554.224
'0:02.020',1557.838
'0:02.023',1560.977
'0:02.027',1563.569
'0:02.031',1565.467
'0:02.035',1566.562
'0:02.039',1566.635
'0:02.043',1565.686
'0:02.047',1563.642
'0:02.051',1560.503
'0:02.055',1556.378
'0:02.059',1551.414
'0:02.063',1545.683
'0:02.066',1539.076
'0:02.070',1531.557
'0:02.074',1523.125
'0:02.078',1514.000
'0:02.082',1504.181
'0:02.086',1493.742
'0:02.090',1482.609
'0:02.094',1470.600
'0:02.098',1457.642
'0:02.102',1443.516
'0:02.105',1428.003
'0:02.109',1410.957
'0:02.113',1392.524
'0:02.117',1373.069
'0:02.121',1353.102
'0:02.125',1333.282
'0:02.129',1314.156
'0:02.133',1296.160
'0:02.137',1279.516
'0:02.141',1264.295
'0:02.145',1250.497
'0:02.148',1237.904
'0:02.152',1226.260
'0:02.156',1215.310
'0:02.160',1204.944
'0:02.164',1195.088
'0:02.168',1186.073
'0:02.172',1178.225
'0:02.176',1171.983
'0:02.180',1167.457
'0:02.184',1164.719
'0:02.188',1163.661
'0:02.191',1164.245
'0:02.195',1166.325
'0:02.199',1169.866
'0:02.203',1174.648
'0:02.207',1180.378
'0:02.211',1186.766
'0:02.215',1193.592
'0:02.219',1200.819
'0:02.223',1208.302
'0:02.227',1216.004
'0:02.230',1223.778
'0:02.234',1231.444
'0:02.238',1238.963
'0:02.242',1246.263
'0:02.246',1253.308
'0:02.250',1260.024
'0:02.254',1266.302
'0:02.258',1272.216
'0:02.262',1277.727
'0:02.266',1282.801
'0:02.270',1287.400
'0:02.273',1291.488
'0:02.277',1295.065
'0:02.281',1298.058
'0:02.285',1300.468
'0:02.289',1302.366
'0:02.293',1303.935
'0:02.297',1305.359
'0:02.301',1306.673
'0:02.305',1307.841
'0:02.309',1308.863
'0:02.313',1309.629
'0:02.316',1310.177
'0:02.320',1310.542
'0:02.324',1310.688
'0:02.328',1310.688
'0:02.332',1310.505
'0:02.336',1310.213
'0:02.340',1309.702
'0:02.344',1308.863
'0:02.348',1307.658
'0:02.352',1306.198
'0:02.355',1304.592
'0:02.359',1302.877
'0:02.363',1301.088
'0:02.367',1299.409
'0:02.371',1297.912
'0:02.375',1296.708
'0:02.379',1295.868
'0:02.383',1295.284
'0:02.387',1295.065
'0:02.391',1295.175
'0:02.395',1295.795
'0:02.398',1297.073
'0:02.402',1299.190
'0:02.406',1302.147
'0:02.410',1305.979
'0:02.414',1310.688
'0:02.418',1316.382
'0:02.422',1323.062
'0:02.426',1330.764
'0:02.430',1339.341
'0:02.434',1348.649
'0:02.438',1358.432
'0:02.441',1368.469
'0:02.445',1378.544
'0:02.449',1388.582
'0:02.453',1398.656
'0:02.457',1408.694
'0:02.461',1418.732
'0:02.465',1428.660
'0:02.469',1438.333
'0:02.473',1447.714
'0:02.477',1456.730
'0:02.480',1465.453
'0:02.484',1473.958
'0:02.488',1482.463
'0:02.492',1491.004
'0:02.496',1499.692
'0:02.500',1508.525
'0:02.504',1517.614
'0:02.508',1527.068
'0:02.512',1536.959
'0:02.516',1547.143
'0:02.520',1557.510
'0:02.523',1567.803
'0:02.527',1577.768
'0:02.531',1587.149
'0:02.535',1595.836
'0:02.539',1603.939
'0:02.543',1611.568
'0:02.547',1618.832
'0:02.551',1625.584
'0:02.555',1631.717
'0:02.559',1637.046
'0:02.563',1641.499
'0:02.566',1645.040
'0:02.570',1647.777
'0:02.574',1649.821
'0:02.578',1651.208
'0:02.582',1651.975
'0:02.586',1652.157
'0:02.590',1651.756
'0:02.594',1650.624
'0:02.598',1648.617
'0:02.602',1645.587
'0:02.605',1641.390
'0:02.609',1635.951
'0:02.613',1629.417
'0:02.617',1622.117
'0:02.621',1614.598
'0:02.625',1607.480
'0:02.629',1601.275
'0:02.633',1596.274
'0:02.637',1592.441
'0:02.641',1589.594
'0:02.645',1587.331
'0:02.648',1585.470
'0:02.652',1583.827
'0:02.656',1582.440
'0:02.660',1581.162
'0:02.664',1579.848
'0:02.668',1578.498
'0:02.672',1577.220
'0:02.676',1576.125
'0:02.680',1575.213
'0:02.684',1574.629
'0:02.688',1574.373
'0:02.691',1574.373
'0:02.695',1574.519
'0:02.699',1574.629
'0:02.703',1574.519
'0:02.707',1574.227
'0:02.711',1573.716
'0:02.715',1573.096
'0:02.719',1572.402
'0:02.723',1571.709
'0:02.727',1570.979
'0:02.730',1570.249
'0:02.734',1569.482
'0:02.738',1568.679
'0:02.742',1567.912
'0:02.746',1567.182
'0:02.750',1566.416
'0:02.754',1565.394
'0:02.758',1564.043
'0:02.762',1562.328
'0:02.766',1560.065
'0:02.770',1557.218
'0:02.773',1553.640
'0:02.777',1549.479
'0:02.781',1544.807
'0:02.785',1539.697
'0:02.789',1534.222
'0:02.793',1528.455
'0:02.797',1522.395
'0:02.801',1516.117
'0:02.805',1509.547
'0:02.809',1502.685
'0:02.813',1495.567
'0:02.816',1488.340
'0:02.820',1481.149
'0:02.824',1474.141
'0:02.828',1467.497
'0:02.832',1461.292
'0:02.836',1455.671
'0:02.840',1450.743
'0:02.844',1446.655
'0:02.848',1443.589
'0:02.852',1441.582
'0:02.855',1440.596
'0:02.859',1440.486
'0:02.863',1441.144
'0:02.867',1442.385
'0:02.871',1444.137
'0:02.875',1446.181
'0:02.879',1448.188
'0:02.883',1450.050
'0:02.887',1451.765
'0:02.891',1453.554
'0:02.895',1455.562
'0:02.898',1457.934
'0:02.902',1460.745
'0:02.906',1463.957
'0:02.910',1467.643
'0:02.914',1471.695
'0:02.918',1476.039
'0:02.922',1480.601
'0:02.926',1485.201
'0:02.930',1489.800
'0:02.934',1494.399
'0:02.938',1499.035
'0:02.941',1503.780
'0:02.945',1508.634
'0:02.949',1513.708
'0:02.953',1519.110
'0:02.957',1524.987
'0:02.961',1531.557
'0:02.965',1538.930
'0:02.969',1547.034
'0:02.973',1555.721
'0:02.977',1564.737
'0:02.980',1573.789
'0:02.984',1582.659
'0:02.988',1591.018
'0:02.992',1598.720
'0:02.996',1605.545
'0:03.000',1611.458
'0:03.004',1616.496
'0:03.008',1620.620
'0:03.012',1623.723
'0:03.016',1625.511
'0:03.020',1625.694
'0:03.023',1624.088
'0:03.027',1620.657
'0:03.031',1615.510
'0:03.035',1608.757
'0:03.039',1600.800
'0:03.043',1591.930
'0:03.047',1582.513
'0:03.051',1572.731
'0:03.055',1562.656
'0:03.059',1552.363
'0:03.063',1541.924
'0:03.066',1531.375
'0:03.070',1520.680
'0:03.074',1509.766
'0:03.078',1498.524
'0:03.082',1486.953
'0:03.086',1475.163
'0:03.090',1463.227
'0:03.094',1451.254
'0:03.098',1439.209
'0:03.102',1427.310
'0:03.105',1415.593
'0:03.109',1404.168
'0:03.113',1392.998
'0:03.117',1382.084
'0:03.121',1371.536
'0:03.125',1361.571
'0:03.129',1352.336
'0:03.133',1343.941
'0:03.137',1336.239
'0:03.141',1329.012
'0:03.145',1321.821
'0:03.148',1314.302
'0:03.152',1306.381
'0:03.156',1298.095
'0:03.160',1289.700
'0:03.164',1281.377
'0:03.168',1273.311
'0:03.172',1265.499
'0:03.176',1257.980
'0:03.180',1250.497
'0:03.184',1242.942
'0:03.188',1235.240
'0:03.191',1227.283
'0:03.195',1218.924
'0:03.199',1210.127
'0:03.203',1201.002
'0:03.207',1191.840
'0:03.211',1182.970
'0:03.215',1174.684
'0:03.219',1167.238
'0:03.223',1160.485
'0:03.227',1154.170
'0:03.230',1148.002
'0:03.234',1141.797
'0:03.238',1135.555
'0:03.242',1129.532
'0:03.246',1124.312
'0:03.250',1120.334
'0:03.254',1117.888
'0:03.258',1116.939
'0:03.262',1117.268
'0:03.266',1118.509
'0:03.270',1120.078
'0:03.273',1121.465
'0:03.277',1122.305
'0:03.281',1122.524
'0:03.285',1122.305
'0:03.289',1121.940
'0:03.293',1121.648
'0:03.297',1121.538
'0:03.301',1121.502
'0:03.305',1121.319
'0:03.309',1120.918
'0:03.313',1120.297
'0:03.316',1119.640
'0:03.320',1119.275
'0:03.324',1119.275
'0:03.328',1119.786
'0:03.332',1120.772
'0:03.336',1122.159
'0:03.340',1123.874
'0:03.344',1125.918
'0:03.348',1128.437
'0:03.352',1131.540
'0:03.355',1135.226
'0:03.359',1139.570
'0:03.363',1144.607
'0:03.367',1150.265
'0:03.371',1156.507
'0:03.375',1163.150
'0:03.379',1170.268
'0:03.383',1177.896
'0:03.387',1186.182
'0:03.391',1195.234
'0:03.395',1205.163
'0:03.398',1215.931
'0:03.402',1227.283
'0:03.406',1238.817
'0:03.410',1250.205
'0:03.414',1261.192
'0:03.418',1271.668
'0:03.422',1281.596
'0:03.426',1290.977
'0:03.430',1299.701
'0:03.434',1307.549
'0:03.438',1314.265
'0:03.441',1319.813
'0:03.445',1324.047
'0:03.449',1327.114
'0:03.453',1329.121
'0:03.457',1330.326
'0:03.461',1331.092
'0:03.465',1331.822
'0:03.469',1332.808
'0:03.473',1334.012
'0:03.477',1335.436
'0:03.480',1336.859
'0:03.484',1338.100
'0:03.488',1339.013
'0:03.492',1339.560
'0:03.496',1339.852
'0:03.500',1340.144
'0:03.504',1340.473
'0:03.508',1340.984
'0:03.512',1341.751
'0:03.516',1342.809
'0:03.520',1344.087
'0:03.523',1345.656
'0:03.527',1347.591
'0:03.531',1349.817
'0:03.535',1352.299
'0:03.539',1354.745
'0:03.543',1357.045
'0:03.547',1359.052
'0:03.551',1360.731
'0:03.555',1362.337
'0:03.559',1364.126
'0:03.563',1366.462
'0:03.566',1369.418
'0:03.570',1373.105
'0:03.574',1377.412
'0:03.578',1382.194
'0:03.582',1387.341
'0:03.586',1392.962
'0:03.590',1399.277
'0:03.594',1406.394
'0:03.598',1414.315
'0:03.602',1422.710
'0:03.605',1431.142
'0:03.609',1439.391
'0:03.613',1447.312
'0:03.617',1455.014
'0:03.621',1462.789
'0:03.625',1470.673
'0:03.629',1478.740
'0:03.633',1487.062
'0:03.637',1495.567
'0:03.641',1504.291
'0:03.645',1513.197
'0:03.648',1522.395
'0:03.652',1531.776
'0:03.656',1541.230
'0:03.660',1550.647
'0:03.664',1559.773
'0:03.668',1568.423
'0:03.672',1576.417
'0:03.676',1583.645
'0:03.680',1590.105
'0:03.684',1595.872
'0:03.688',1601.129
'0:03.691',1606.129
'0:03.695',1610.984
'0:03.699',1615.912
'0:03.703',1620.949
'0:03.707',1626.168
'0:03.711',1631.498
'0:03.715',1636.900
'0:03.719',1642.193
'0:03.723',1647.120
'0:03.727',1651.391
'0:03.730',1654.639
'0:03.734',1656.611
'0:03.738',1657.231
'0:03.742',1656.720
'0:03.746',1655.260
'0:03.750',1653.179
'0:03.754',1650.624
'0:03.758',1647.777
'0:03.762',1644.857
'0:03.766',1641.864
'0:03.770',1638.834
'0:03.773',1635.732
'0:03.777',1632.520
'0:03.781',1629.162
'0:03.785',1625.730
'0:03.789',1622.409
'0:03.793',1619.525
'0:03.797',1617.116
'0:03.801',1615.182
'0:03.805',1613.503
'0:03.809',1611.969
'0:03.813',1610.473
'0:03.816',1608.940
'0:03.820',1607.151
'0:03.824',1605.034
'0:03.828',1602.443
'0:03.832',1599.413
'0:03.836',1595.982
'0:03.840',1592.040
'0:03.844',1587.331
'0:03.848',1581.783
'0:03.852',1575.395
'0:03.855',1568.204
'0:03.859',1560.174
'0:03.863',1551.085
'0:03.867',1540.609
'0:03.871',1528.528
'0:03.875',1514.584
'0:03.879',1498.743
'0:03.883',1480.857
'0:03.887',1461.146
'0:03.891',1439.829
'0:03.895',1417.199
'0:03.898',1393.582
'0:03.902',1369.199
'0:03.906',1344.306
'0:03.910',1319.083
'0:03.914',1293.605
'0:03.918',1267.981
'0:03.922',1242.321
'0:03.926',1216.807
'0:03.930',1191.949
'0:03.934',1168.260
'0:03.938',1146.286
'0:03.941',1126.429
'0:03.945',1108.763
'0:03.949',1093.396
'0:03.953',1080.255
'0:03.957',1069.378
'0:03.961',1060.764
'0:03.965',1054.266
'0:03.969',1049.886
'0:03.973',1047.550
'0:03.977',1047.258
'0:03.980',1048.974
'0:03.984',1052.514
'0:03.988',1057.844
'0:03.992',1064.779
'0:03.996',1073.320
'0:04.000',1083.285
'0:04.004',1094.454
'0:04.008',1106.500
'0:04.012',1119.239
'0:04.016',1132.635
'0:04.020',1146.870
'0:04.023',1162.018
'0:04.027',1178.115
'0:04.031',1194.833
'0:04.035',1211.660
'0:04.039',1228.049
'0:04.043',1243.672
'0:04.047',1258.418
'0:04.051',1272.325
'0:04.055',1285.466
'0:04.059',1297.949
'0:04.063',1309.812
'0:04.066',1321.127
'0:04.070',1331.895
'0:04.074',1342.189
'0:04.078',1352.007
'0:04.082',1361.461
'0:04.086',1370.404
'0:04.090',1378.836
'0:04.094',1386.574
'0:04.098',1393.728
'0:04.102',1400.445
'0:04.105',1406.686
'0:04.109',1412.381
'0:04.113',1417.381
'0:04.117',1421.615
'0:04.121',1425.119
'0:04.125',1428.040
'0:04.129',1430.449
'0:04.133',1432.529
'0:04.137',1434.354
'0:04.141',1435.924
'0:04.145',1437.055
'0:04.148',1437.493
'0:04.152',1437.201
'0:04.156',1436.106
'0:04.160',1434.245
'0:04.164',1431.799
'0:04.168',1428.843
'0:04.172',1425.338
'0:04.176',1421.360
'0:04.180',1416.870
'0:04.184',1411.869
'0:04.188',1406.394
'0:04.191',1400.664
'0:04.195',1394.787
'0:04.199',1388.764
'0:04.203',1382.486
'0:04.207',1375.843
'0:04.211',1368.907
'0:04.215',1361.826
'0:04.219',1354.745
'0:04.223',1347.627
'0:04.227',1340.181
'0:04.230',1332.297
'0:04.234',1323.901
'0:04.238',1315.105
'0:04.242',1306.089
'0:04.246',1296.890
'0:04.250',1287.619
'0:04.254',1278.384
'0:04.258',1269.295
'0:04.262',1260.316
'0:04.266',1251.592
'0:04.270',1243.124
'0:04.273',1234.911
'0:04.277',1227.100
'0:04.281',1219.690
'0:04.285',1212.573
'0:04.289',1205.674
'0:04.293',1199.031
'0:04.297',1192.606
'0:04.301',1186.511
'0:04.305',1180.597
'0:04.309',1174.830
'0:04.313',1169.172
'0:04.316',1163.734
'0:04.320',1158.879
'0:04.324',1154.754
'0:04.328',1151.287
'0:04.332',1148.221
'0:04.336',1145.410
'0:04.340',1142.892
'0:04.344',1140.920
'0:04.348',1139.898
'0:04.352',1140.044
'0:04.355',1141.359
'0:04.359',1143.658
'0:04.363',1146.651
'0:04.367',1149.973
'0:04.371',1153.331
'0:04.375',1156.726
'0:04.379',1160.011
'0:04.383',1163.077
'0:04.387',1165.778
'0:04.391',1168.004
'0:04.395',1169.976
'0:04.398',1171.983
'0:04.402',1174.319
'0:04.406',1177.239
'0:04.410',1180.926
'0:04.414',1185.452
'0:04.418',1190.745
'0:04.422',1196.621
'0:04.426',1202.754
'0:04.430',1209.032
'0:04.434',1215.347
'0:04.438',1221.844
'0:04.441',1228.560
'0:04.445',1235.568
'0:04.449',1242.759
'0:04.453',1249.913
'0:04.457',1257.141
'0:04.461',1264.477
'0:04.465',1272.070
'0:04.469',1279.808
'0:04.473',1287.510
'0:04.477',1295.102
'0:04.480',1302.512
'0:04.484',1309.812
'0:04.488',1316.966
'0:04.492',1324.011
'0:04.496',1331.092
'0:04.500',1338.210
'0:04.504',1345.291
'0:04.508',1352.518
'0:04.512',1360.001
'0:04.516',1367.995
'0:04.520',1376.463
'0:04.523',1385.187
'0:04.527',1393.947
'0:04.531',1402.525
'0:04.535',1410.738
'0:04.539',1418.403
'0:04.543',1425.338
'0:04.547',1431.361
'0:04.551',1436.471
'0:04.555',1440.852
'0:04.559',1444.648
'0:04.563',1448.079
'0:04.566',1451.327
'0:04.570',1454.357
'0:04.574',1456.985
'0:04.578',1459.066
'0:04.582',1460.635
'0:04.586',1461.803
'0:04.590',1462.643
'0:04.594',1463.336
'0:04.598',1464.212
'0:04.602',1465.563
'0:04.605',1467.607
'0:04.609',1470.381
'0:04.613',1473.885
'0:04.617',1478.119
'0:04.621',1483.083
'0:04.625',1488.924
'0:04.629',1495.640
'0:04.633',1503.013
'0:04.637',1510.861
'0:04.641',1519.037
'0:04.645',1527.396
'0:04.648',1535.974
'0:04.652',1544.917
'0:04.656',1554.188
'0:04.660',1563.751
'0:04.664',1573.388
'0:04.668',1583.060
'0:04.672',1592.879
'0:04.676',1602.881
'0:04.680',1613.028
'0:04.684',1623.066
'0:04.688',1632.739
'0:04.691',1641.718
'0:04.695',1649.894
'0:04.699',1657.377
'0:04.703',1664.349
'0:04.707',1671.029
'0:04.711',1677.599
'0:04.715',1684.096
'0:04.719',1690.520
'0:04.723',1696.689
'0:04.727',1702.493
'0:04.730',1707.895
'0:04.734',1712.823
'0:04.738',1717.203
'0:04.742',1720.962
'0:04.746',1724.028
'0:04.750',1726.401
'0:04.754',1727.934
'0:04.758',1728.737
'0:04.762',1728.847
'0:04.766',1728.299
'0:04.770',1727.168
'0:04.773',1725.488
'0:04.777',1723.262
'0:04.781',1720.451
'0:04.785',1717.057
'0:04.789',1713.005
'0:04.793',1708.406
'0:04.797',1703.077
'0:04.801',1696.981
'0:04.805',1689.900
'0:04.809',1681.796
'0:04.813',1672.635
'0:04.816',1662.670
'0:04.820',1652.048
'0:04.824',1640.988
'0:04.828',1629.636
'0:04.832',1617.992
'0:04.836',1606.202
'0:04.840',1594.412
'0:04.844',1582.768
'0:04.848',1571.344
'0:04.852',1560.211
'0:04.855',1549.370
'0:04.859',1538.821
'0:04.863',1528.601
'0:04.867',1518.745
'0:04.871',1509.328
'0:04.875',1500.312
'0:04.879',1491.698
'0:04.883',1483.594
'0:04.887',1476.112
'0:04.891',1469.286
'0:04.895',1463.044
'0:04.898',1457.314
'0:04.902',1452.021
'0:04.906',1447.276
'0:04.910',1443.115
'0:04.914',1439.537
'0:04.918',1436.398
'0:04.922',1433.661
'0:04.926',1431.325
'0:04.930',1429.427
'0:04.934',1428.003
'0:04.938',1427.054
'0:04.941',1426.470
'0:04.945',1426.251
'0:04.949',1426.360
'0:04.953',1426.762
'0:04.957',1427.492
'0:04.961',1428.441
'0:04.965',1429.646
'0:04.969',1431.179
'0:04.973',1432.931
'0:04.977',1434.792
'0:04.980',1436.544
'0:04.984',1438.004
'0:04.988',1439.136
'0:04.992',1439.939
'0:04.996',1440.486
'0:05.000',1440.778
'0:05.004',1440.888
'0:05.008',1440.925
'0:05.012',1440.888
'0:05.016',1440.925
'0:05.020',1441.180
'0:05.023',1441.764
'0:05.027',1442.750
'0:05.031',1444.137
'0:05.035',1445.889
'0:05.039',1448.006
'0:05.043',1450.342
'0:05.047',1452.970
'0:05.051',1455.963
'0:05.055',1459.321
'0:05.059',1463.190
'0:05.063',1467.570
'0:05.066',1472.279
'0:05.070',1477.134
'0:05.074',1481.733
'0:05.078',1485.967
'0:05.082',1489.800
'0:05.086',1493.304
'0:05.090',1496.735
'0:05.094',1500.239
'0:05.098',1503.780
'0:05.102',1507.247
'0:05.105',1510.532
'0:05.109',1513.526
'0:05.113',1516.154
'0:05.117',1518.271
'0:05.121',1519.658
'0:05.125',1520.169
'0:05.129',1519.512
'0:05.133',1517.577
'0:05.137',1514.219
'0:05.141',1509.583
'0:05.145',1503.597
'0:05.148',1496.333
'0:05.152',1487.829
'0:05.156',1478.083
'0:05.160',1467.205
'0:05.164',1455.452
'0:05.168',1443.042
'0:05.172',1430.193
'0:05.176',1416.907
'0:05.180',1403.365
'0:05.184',1389.823
'0:05.188',1376.427
'0:05.191',1363.250
'0:05.195',1350.146
'0:05.199',1337.005
'0:05.203',1323.938
'0:05.207',1311.126
'0:05.211',1298.862
'0:05.215',1287.327
'0:05.219',1276.632
'0:05.223',1266.813
'0:05.227',1257.834
'0:05.230',1249.621
'0:05.234',1242.212
'0:05.238',1235.605
'0:05.242',1229.728
'0:05.246',1224.508
'0:05.250',1219.727
'0:05.254',1215.164
'0:05.258',1210.601
'0:05.262',1205.783
'0:05.266',1200.710
'0:05.270',1195.344
'0:05.273',1189.942
'0:05.277',1184.759
'0:05.281',1179.940
'0:05.285',1175.451
'0:05.289',1171.180
'0:05.293',1167.092
'0:05.297',1163.259
'0:05.301',1159.682
'0:05.305',1156.361
'0:05.309',1153.112
'0:05.313',1149.936
'0:05.316',1146.797
'0:05.320',1143.841
'0:05.324',1141.103
'0:05.328',1138.438
'0:05.332',1135.701
'0:05.336',1132.708
'0:05.340',1129.569
'0:05.344',1126.685
'0:05.348',1124.385
'0:05.352',1122.852
'0:05.355',1122.049
'0:05.359',1121.721
'0:05.363',1121.721
'0:05.367',1122.013
'0:05.371',1122.779
'0:05.375',1123.947
'0:05.379',1125.480
'0:05.383',1127.014
'0:05.387',1128.218
'0:05.391',1128.912
'0:05.395',1129.167
'0:05.398',1129.240
'0:05.402',1129.459
'0:05.406',1129.897
'0:05.410',1130.518
'0:05.414',1131.211
'0:05.418',1132.087
'0:05.422',1133.365
'0:05.426',1135.409
'0:05.430',1138.438
'0:05.434',1142.344
'0:05.438',1146.907
'0:05.441',1151.907
'0:05.445',1157.237
'0:05.449',1162.967
'0:05.453',1169.099
'0:05.457',1175.524
'0:05.461',1181.948
'0:05.465',1188.153
'0:05.469',1194.176
'0:05.473',1200.235
'0:05.477',1206.623
'0:05.480',1213.449
'0:05.484',1220.676
'0:05.488',1228.159
'0:05.492',1235.787
'0:05.496',1243.161
'0:05.500',1249.877
'0:05.504',1255.754
'0:05.508',1260.827
'0:05.512',1265.244
'0:05.516',1269.186
'0:05.520',1272.763
'0:05.523',1276.121
'0:05.527',1279.370
'0:05.531',1282.472
'0:05.535',1285.429
'0:05.539',1288.313
'0:05.543',1291.233
'0:05.547',1294.189
'0:05.551',1297.182
'0:05.555',1300.139
'0:05.559',1302.913
'0:05.563',1305.505
'0:05.566',1308.023
'0:05.570',1310.542
'0:05.574',1313.170
'0:05.578',1315.981
'0:05.582',1318.974
'0:05.586',1322.113
'0:05.590',1325.398
'0:05.594',1328.829
'0:05.598',1332.370
'0:05.602',1335.910
'0:05.605',1339.378
'0:05.609',1342.590
'0:05.613',1345.510
'0:05.617',1348.102
'0:05.621',1350.474
'0:05.625',1352.810
'0:05.629',1355.329
'0:05.633',1358.213
'0:05.637',1361.644
'0:05.641',1365.659
'0:05.645',1370.222
'0:05.648',1375.332
'0:05.652',1380.807
'0:05.656',1386.392
'0:05.660',1391.903
'0:05.664',1397.086
'0:05.668',1401.832
'0:05.672',1406.212
'0:05.676',1410.409
'0:05.680',1414.680
'0:05.684',1419.024
'0:05.688',1423.367
'0:05.691',1427.529
'0:05.695',1431.252
'0:05.699',1434.354
'0:05.703',1436.727
'0:05.707',1438.515
'0:05.711',1440.012
'0:05.715',1441.655
'0:05.719',1443.845
'0:05.723',1446.838
'0:05.727',1451.072
'0:05.730',1456.912
'0:05.734',1464.431
'0:05.738',1473.630
'0:05.742',1484.252
'0:05.746',1496.078
'0:05.750',1508.890
'0:05.754',1522.505
'0:05.758',1536.850
'0:05.762',1551.742
'0:05.766',1566.854
'0:05.770',1582.002
'0:05.773',1597.040
'0:05.777',1611.823
'0:05.781',1626.168
'0:05.785',1639.783
'0:05.789',1652.522
'0:05.793',1664.276
'0:05.797',1674.934
'0:05.801',1684.279
'0:05.805',1692.199
'0:05.809',1698.587
'0:05.813',1703.369
'0:05.816',1706.727
'0:05.820',1708.990
'0:05.824',1710.486
'0:05.828',1711.435
'0:05.832',1711.983
'0:05.836',1712.166
'0:05.840',1711.983
'0:05.844',1711.362
'0:05.848',1710.304
'0:05.852',1709.026
'0:05.855',1707.676
'0:05.859',1706.362
'0:05.863',1705.157
'0:05.867',1704.026
'0:05.871',1702.967
'0:05.875',1701.982
'0:05.879',1700.923
'0:05.883',1699.682
'0:05.887',1698.149
'0:05.891',1696.287
'0:05.895',1693.732
'0:05.898',1690.155
'0:05.902',1685.191
'0:05.906',1678.730
'0:05.910',1670.883
'0:05.914',1661.976
'0:05.918',1652.340
'0:05.922',1642.229
'0:05.926',1631.680
'0:05.930',1620.657
'0:05.934',1609.268
'0:05.938',1597.734
'0:05.941',1586.382
'0:05.945',1575.432
'0:05.949',1564.883
'0:05.953',1554.735
'0:05.957',1544.917
'0:05.961',1535.353
'0:05.965',1525.863
'0:05.969',1516.373
'0:05.973',1506.846
'0:05.977',1497.063
'0:05.980',1486.989
'0:05.984',1476.367
'0:05.988',1464.979
'0:05.992',1452.678
'0:05.996',1439.647
'0:06.000',1426.214
'0:06.004',1412.855
'0:06.008',1399.861
'0:06.012',1387.450
'0:06.016',1375.733
'0:06.020',1364.710
'0:06.023',1354.343
'0:06.027',1344.707
'0:06.031',1335.874
'0:06.035',1327.844
'0:06.039',1320.689
'0:06.043',1314.338
'0:06.047',1308.790
'0:06.051',1304.081
'0:06.055',1300.176
'0:06.059',1297.109
'0:06.063',1294.883
'0:06.066',1293.532
'0:06.070',1293.021
'0:06.074',1293.277
'0:06.078',1294.189
'0:06.082',1295.649
'0:06.086',1297.511
'0:06.090',1299.665
'0:06.094',1302.110
'0:06.098',1304.957
'0:06.102',1308.169
'0:06.105',1311.710
'0:06.109',1315.506
'0:06.113',1319.521
'0:06.117',1323.755
'0:06.121',1328.245
'0:06.125',1333.027
'0:06.129',1338.100
'0:06.133',1343.430
'0:06.137',1349.087
'0:06.141',1355.037
'0:06.145',1361.461
'0:06.148',1368.615
'0:06.152',1376.792
'0:06.156',1386.173
'0:06.160',1396.831
'0:06.164',1408.767
'0:06.168',1421.871
'0:06.172',1435.997
'0:06.176',1450.670
'0:06.180',1465.490
'0:06.184',1479.981
'0:06.188',1493.742
'0:06.191',1506.408
'0:06.195',1517.833
'0:06.199',1527.944
'0:06.203',1536.667
'0:06.207',1544.041
'0:06.211',1550.027
'0:06.215',1554.626
'0:06.219',1557.875
'0:06.223',1559.773
'0:06.227',1560.466
'0:06.230',1560.065
'0:06.234',1558.714
'0:06.238',1556.561
'0:06.242',1553.823
'0:06.246',1550.757
'0:06.250',1547.472
'0:06.254',1544.041
'0:06.258',1540.646
'0:06.262',1537.361
'0:06.266',1534.112
'0:06.270',1530.937
'0:06.273',1527.871
'0:06.277',1525.060
'0:06.281',1522.541
'0:06.285',1520.132
'0:06.289',1517.760
'0:06.293',1515.314
'0:06.297',1512.796
'0:06.301',1510.167
'0:06.305',1507.284
'0:06.309',1504.145
'0:06.313',1500.750
'0:06.316',1497.136
'0:06.320',1493.523
'0:06.324',1490.019
'0:06.328',1486.807
'0:06.332',1484.033
'0:06.336',1481.696
'0:06.340',1479.835
'0:06.344',1478.484
'0:06.348',1477.645
'0:06.352',1477.207
'0:06.355',1476.915
'0:06.359',1476.440
'0:06.363',1475.455
'0:06.367',1473.630
'0:06.371',1470.710
'0:06.375',1466.512
'0:06.379',1461.000
'0:06.383',1454.065
'0:06.387',1445.560
'0:06.391',1435.303
'0:06.395',1423.112
'0:06.398',1408.730
'0:06.402',1392.049
'0:06.406',1373.069
'0:06.410',1352.044
'0:06.414',1329.194
'0:06.418',1304.775
'0:06.422',1279.078
'0:06.426',1252.614
'0:06.430',1226.005
'0:06.434',1199.834
'0:06.438',1174.502
'0:06.441',1150.301
'0:06.445',1127.050
'0:06.449',1104.711
'0:06.453',1083.212
'0:06.457',1062.844
'0:06.461',1043.791
'0:06.465',1026.160
'0:06.469',1009.808
'0:06.473',994.623
'0:06.477',980.716
'0:06.480',968.452
'0:06.484',958.232
'0:06.488',950.201
'0:06.492',944.580
'0:06.496',941.477
'0:06.500',940.966
'0:06.504',943.047
'0:06.508',947.646
'0:06.512',954.435
'0:06.516',963.123
'0:06.520',973.416
'0:06.523',985.097
'0:06.527',998.164
'0:06.531',1012.618
'0:06.535',1028.278
'0:06.539',1044.849
'0:06.543',1061.895
'0:06.547',1079.124
'0:06.551',1096.352
'0:06.555',1113.472
'0:06.559',1130.226
'0:06.563',1146.213
'0:06.566',1160.960
'0:06.570',1174.027
'0:06.574',1185.197
'0:06.578',1194.504
'0:06.582',1201.951
'0:06.586',1207.572
'0:06.590',1211.550
'0:06.594',1214.033
'0:06.598',1215.456
'0:06.602',1216.150
'0:06.605',1216.259
'0:06.609',1215.858
'0:06.613',1214.872
'0:06.617',1213.449
'0:06.621',1211.806
'0:06.625',1210.309
'0:06.629',1209.214
'0:06.633',1208.849
'0:06.637',1209.287
'0:06.641',1210.528
'0:06.645',1212.353
'0:06.648',1214.544
'0:06.652',1216.916
'0:06.656',1219.252
'0:06.660',1221.369
'0:06.664',1223.121
'0:06.668',1224.399
'0:06.672',1225.202
'0:06.676',1225.749
'0:06.680',1226.260
'0:06.684',1226.808
'0:06.688',1227.502
'0:06.691',1228.451
'0:06.695',1229.692
'0:06.699',1231.261
'0:06.703',1233.050
'0:06.707',1235.167
'0:06.711',1237.831
'0:06.715',1241.226
'0:06.719',1245.643
'0:06.723',1251.154
'0:06.727',1257.798
'0:06.730',1265.499
'0:06.734',1274.223
'0:06.738',1283.933
'0:06.742',1294.554
'0:06.746',1306.016
'0:06.750',1318.171
'0:06.754',1331.092
'0:06.758',1344.707
'0:06.762',1358.943
'0:06.766',1373.507
'0:06.770',1388.217
'0:06.773',1403.000
'0:06.777',1417.783
'0:06.781',1432.639
'0:06.785',1447.422
'0:06.789',1462.168
'0:06.793',1476.805
'0:06.797',1491.479
'0:06.801',1506.189
'0:06.805',1520.972
'0:06.809',1535.901
'0:06.813',1550.793
'0:06.816',1565.357
'0:06.820',1579.082
'0:06.824',1591.383
'0:06.828',1602.005
'0:06.832',1610.838
'0:06.836',1618.102
'0:06.840',1624.051
'0:06.844',1628.979
'0:06.848',1633.140
'0:06.852',1636.827
'0:06.855',1640.258
'0:06.859',1643.616
'0:06.863',1646.938
'0:06.867',1650.369
'0:06.871',1654.201
'0:06.875',1658.728
'0:06.879',1664.276
'0:06.883',1670.846
'0:06.887',1678.256
'0:06.891',1686.104
'0:06.895',1694.024
'0:06.898',1701.580
'0:06.902',1708.588
'0:06.906',1714.940
'0:06.910',1720.415
'0:06.914',1724.758
'0:06.918',1727.788
'0:06.922',1729.394
'0:06.926',1729.358
'0:06.930',1727.606
'0:06.934',1723.919
'0:06.938',1718.188
'0:06.941',1710.377
'0:06.945',1700.485
'0:06.949',1688.659
'0:06.953',1675.336
'0:06.957',1660.845
'0:06.961',1645.478
'0:06.965',1629.490
'0:06.969',1613.174
'0:06.973',1596.785
'0:06.977',1580.432
'0:06.980',1564.226
'0:06.984',1548.092
'0:06.988',1532.032
'0:06.992',1516.190
'0:06.996',1500.860
'0:07.000',1486.296
'0:07.004',1472.462
'0:07.008',1459.212
'0:07.012',1446.436
'0:07.016',1434.099
'0:07.020',1422.163
'0:07.023',1410.482
'0:07.027',1399.021
'0:07.031',1387.742
'0:07.035',1376.646
'0:07.039',1365.987
'0:07.043',1356.059
'0:07.047',1347.153
'0:07.051',1339.268
'0:07.055',1332.406
'0:07.059',1326.420
'0:07.063',1321.346
'0:07.066',1317.222
'0:07.070',1313.937
'0:07.074',1311.637
'0:07.078',1310.250
'0:07.082',1309.702
'0:07.086',1309.739
'0:07.090',1310.104
'0:07.094',1310.651
'0:07.098',1311.418
'0:07.102',1312.403
'0:07.105',1313.718
'0:07.109',1315.543
'0:07.113',1317.952
'0:07.117',1321.018
'0:07.121',1324.777
'0:07.125',1329.158
'0:07.129',1334.085
'0:07.133',1339.414
'0:07.137',1345.072
'0:07.141',1351.022
'0:07.145',1357.227
'0:07.148',1363.688
'0:07.152',1370.477
'0:07.156',1377.777
'0:07.160',1385.771
'0:07.164',1394.641
'0:07.168',1404.350
'0:07.172',1414.717
'0:07.176',1425.557
'0:07.180',1436.617
'0:07.184',1447.750
'0:07.188',1458.664
'0:07.191',1469.067
'0:07.195',1478.740
'0:07.199',1487.537
'0:07.203',1495.421
'0:07.207',1502.539
'0:07.211',1509.145
'0:07.215',1515.570
'0:07.219',1522.140
'0:07.223',1529.112
'0:07.227',1536.448
'0:07.230',1544.114
'0:07.234',1552.034
'0:07.238',1560.138
'0:07.242',1568.350
'0:07.246',1576.527
'0:07.250',1584.667
'0:07.254',1592.660
'0:07.258',1600.435
'0:07.262',1607.735
'0:07.266',1614.160
'0:07.270',1619.598
'0:07.273',1624.088
'0:07.277',1627.738
'0:07.281',1630.695
'0:07.285',1632.885
'0:07.289',1634.272
'0:07.293',1634.819
'0:07.297',1634.600
'0:07.301',1633.432
'0:07.305',1631.096
'0:07.309',1627.300
'0:07.313',1621.788
'0:07.316',1614.598
'0:07.320',1605.947
'0:07.324',1596.310
'0:07.328',1586.090
'0:07.332',1575.760
'0:07.336',1565.576
'0:07.340',1555.940
'0:07.344',1546.961
'0:07.348',1538.602
'0:07.352',1530.791
'0:07.355',1523.454
'0:07.359',1516.701
'0:07.363',1510.532
'0:07.367',1505.057
'0:07.371',1500.166
'0:07.375',1495.895
'0:07.379',1492.026
'0:07.383',1488.449
'0:07.387',1484.909
'0:07.391',1481.222
'0:07.395',1477.280
'0:07.398',1473.046
'0:07.402',1468.446
'0:07.406',1463.519
'0:07.410',1458.263
'0:07.414',1452.641
'0:07.418',1446.619
'0:07.422',1440.048
'0:07.426',1432.858
'0:07.430',1424.973
'0:07.434',1416.250
'0:07.438',1406.358
'0:07.441',1394.969
'0:07.445',1382.011
'0:07.449',1367.593
'0:07.453',1352.044
'0:07.457',1335.764
'0:07.461',1318.901
'0:07.465',1301.526
'0:07.469',1283.786
'0:07.473',1265.864
'0:07.477',1247.869
'0:07.480',1229.838
'0:07.484',1211.587
'0:07.488',1193.190
'0:07.492',1174.538
'0:07.496',1155.667
'0:07.500',1136.686
'0:07.504',1117.852
'0:07.508',1099.638
'0:07.512',1082.482
'0:07.516',1066.786
'0:07.520',1052.697
'0:07.523',1040.213
'0:07.527',1029.336
'0:07.531',1020.101
'0:07.535',1012.326
'0:07.539',1005.866
'0:07.543',1000.573
'0:07.547',996.193
'0:07.551',992.689
'0:07.555',990.024
'0:07.559',988.345
'0:07.563',987.725
'0:07.566',988.053
'0:07.570',989.294
'0:07.574',991.338
'0:07.578',994.185
'0:07.582',997.872
'0:07.586',1002.325
'0:07.590',1007.362
'0:07.594',1012.764
'0:07.598',1018.532
'0:07.602',1024.664
'0:07.605',1031.088
'0:07.609',1037.731
'0:07.613',1044.484
'0:07.617',1051.237
'0:07.621',1058.063
'0:07.625',1064.961
'0:07.629',1072.079
'0:07.633',1079.489
'0:07.637',1087.154
'0:07.641',1095.148
'0:07.645',1103.324
'0:07.648',1111.683
'0:07.652',1120.188
'0:07.656',1128.839
'0:07.660',1137.635
'0:07.664',1146.542
'0:07.668',1155.521
'0:07.672',1164.464
'0:07.676',1173.297
'0:07.680',1182.130
'0:07.684',1191.073
'0:07.688',1200.308
'0:07.691',1209.835
'0:07.695',1219.690
'0:07.699',1229.911
'0:07.703',1240.423
'0:07.707',1251.227
'0:07.711',1262.214
'0:07.715',1273.311
'0:07.719',1284.517
'0:07.723',1295.649
'0:07.727',1306.454
'0:07.730',1316.674
'0:07.734',1326.018
'0:07.738',1334.523
'0:07.742',1342.335
'0:07.746',1349.781
'0:07.750',1357.118
'0:07.754',1364.381
'0:07.758',1371.572
'0:07.762',1378.653
'0:07.766',1385.552
'0:07.770',1392.268
'0:07.773',1398.693
'0:07.777',1404.825
'0:07.781',1410.665
'0:07.785',1416.286
'0:07.789',1421.798
'0:07.793',1427.310
'0:07.797',1433.004
'0:07.801',1438.990
'0:07.805',1445.305
'0:07.809',1451.984
'0:07.813',1459.102
'0:07.816',1466.658
'0:07.820',1474.798
'0:07.824',1483.668
'0:07.828',1493.450
'0:07.832',1504.218
'0:07.836',1515.898
'0:07.840',1528.236
'0:07.844',1540.975
'0:07.848',1553.859
'0:07.852',1566.598
'0:07.855',1578.790
'0:07.859',1590.251
'0:07.863',1600.764
'0:07.867',1610.217
'0:07.871',1618.503
'0:07.875',1625.584
'0:07.879',1631.242
'0:07.883',1635.403
'0:07.887',1638.031
'0:07.891',1638.980
'0:07.895',1638.250
'0:07.898',1635.914
'0:07.902',1632.191
'0:07.906',1627.519
'0:07.910',1622.226
'0:07.914',1616.569
'0:07.918',1610.838
'0:07.922',1605.290
'0:07.926',1600.034
'0:07.930',1595.069
'0:07.934',1590.251
'0:07.938',1585.360
'0:07.941',1580.213
'0:07.945',1574.665
'0:07.949',1568.606
'0:07.953',1562.072
'0:07.957',1555.210
'0:07.961',1548.165
'0:07.965',1541.157
'0:07.969',1534.331
'0:07.973',1527.980
'0:07.977',1522.176
'0:07.980',1517.103
'0:07.984',1512.832
'0:07.988',1509.364
'0:07.992',1506.627
'0:07.996',1504.473
'0:08.000',1502.831
'0:08.004',1501.772
'0:08.008',1501.334
'0:08.012',1501.699
'0:08.016',1503.013
'0:08.020',1505.386
'0:08.023',1508.525
'0:08.027',1512.102
'0:08.031',1515.533
'0:08.035',1518.417
'0:08.039',1520.388
'0:08.043',1521.373
'0:08.047',1521.446
'0:08.051',1520.716
'0:08.055',1519.329
'0:08.059',1517.577
'0:08.063',1515.716
'0:08.066',1513.781
'0:08.070',1511.737
'0:08.074',1509.583
'0:08.078',1507.284
'0:08.082',1504.875
'0:08.086',1502.502
'0:08.090',1500.166
'0:08.094',1497.867
'0:08.098',1495.567
'0:08.102',1493.304
'0:08.105',1490.931
'0:08.109',1488.340
'0:08.113',1485.310
'0:08.117',1481.806
'0:08.121',1477.754
'0:08.125',1473.155
'0:08.129',1467.972
'0:08.133',1462.132
'0:08.137',1455.635
'0:08.141',1448.553
'0:08.145',1440.998
'0:08.148',1433.113
'0:08.152',1425.046
'0:08.156',1416.907
'0:08.160',1408.730
'0:08.164',1400.518
'0:08.168',1392.195
'0:08.172',1383.837
'0:08.176',1375.587
'0:08.180',1367.739
'0:08.184',1360.439
'0:08.188',1353.869
'0:08.191',1348.102
'0:08.195',1343.320
'0:08.199',1339.743
'0:08.203',1337.370
'0:08.207',1336.056
'0:08.211',1335.436
'0:08.215',1334.961
'0:08.219',1334.268
'0:08.223',1333.246
'0:08.227',1332.041
'0:08.230',1331.056
'0:08.234',1330.727
'0:08.238',1331.457
'0:08.242',1333.355
'0:08.246',1336.567
'0:08.250',1340.984
'0:08.254',1346.459
'0:08.258',1352.883
'0:08.262',1360.038
'0:08.266',1367.776
'0:08.270',1375.952
'0:08.273',1384.384
'0:08.277',1393.071
'0:08.281',1401.978
'0:08.285',1411.030
'0:08.289',1420.192
'0:08.293',1429.536
'0:08.297',1438.990
'0:08.301',1448.626
'0:08.305',1458.482
'0:08.309',1468.446
'0:08.313',1478.448
'0:08.316',1488.303
'0:08.320',1497.793
'0:08.324',1506.955
'0:08.328',1516.008
'0:08.332',1525.206
'0:08.336',1534.806
'0:08.340',1544.990
'0:08.344',1555.867
'0:08.348',1567.657
'0:08.352',1580.323
'0:08.355',1593.901
'0:08.359',1608.100
'0:08.363',1622.591
'0:08.367',1637.009
'0:08.371',1651.135
'0:08.375',1664.714
'0:08.379',1677.635
'0:08.383',1689.790
'0:08.387',1701.033
'0:08.391',1711.180
'0:08.395',1720.050
'0:08.398',1727.460
'0:08.402',1733.373
'0:08.406',1737.680
'0:08.410',1740.198
'0:08.414',1740.819
'0:08.418',1739.432
'0:08.422',1736.037
'0:08.426',1730.708
'0:08.430',1723.736
'0:08.434',1715.305
'0:08.438',1705.559
'0:08.441',1694.645
'0:08.445',1682.490
'0:08.449',1669.094
'0:08.453',1654.530
'0:08.457',1638.798
'0:08.461',1622.007
'0:08.465',1604.268
'0:08.469',1585.543
'0:08.473',1565.868
'0:08.477',1545.318
'0:08.480',1524.001
'0:08.484',1502.174
'0:08.488',1479.944
'0:08.492',1457.679
'0:08.496',1435.705
'0:08.500',1414.352
'0:08.504',1393.911
'0:08.508',1374.529
'0:08.512',1356.351
'0:08.516',1339.414
'0:08.520',1323.536
'0:08.523',1308.461
'0:08.527',1293.934
'0:08.531',1279.771
'0:08.535',1266.083
'0:08.539',1253.162
'0:08.543',1241.299
'0:08.547',1230.641
'0:08.551',1221.150
'0:08.555',1212.792
'0:08.559',1205.455
'0:08.563',1198.958
'0:08.566',1192.935
'0:08.570',1187.168
'0:08.574',1181.510
'0:08.578',1175.925
'0:08.582',1170.304
'0:08.586',1164.646
'0:08.590',1158.989
'0:08.594',1153.367
'0:08.598',1147.929
'0:08.602',1142.782
'0:08.605',1138.146
'0:08.609',1134.350
'0:08.613',1131.686
'0:08.617',1130.299
'0:08.621',1130.153
'0:08.625',1131.211
'0:08.629',1133.474
'0:08.633',1136.869
'0:08.637',1141.286
'0:08.641',1146.469
'0:08.645',1152.053
'0:08.648',1157.894
'0:08.652',1164.026
'0:08.656',1170.596
'0:08.660',1177.714
'0:08.664',1185.197
'0:08.668',1192.935
'0:08.672',1200.856
'0:08.676',1209.068
'0:08.680',1217.500
'0:08.684',1226.151
'0:08.688',1234.802
'0:08.691',1243.380
'0:08.695',1251.556
'0:08.699',1259.185
'0:08.703',1266.193
'0:08.707',1272.654
'0:08.711',1278.567
'0:08.715',1284.225
'0:08.719',1289.919
'0:08.723',1295.868
'0:08.727',1302.183
'0:08.730',1308.790
'0:08.734',1315.506
'0:08.738',1322.040
'0:08.742',1328.063
'0:08.746',1333.282
'0:08.750',1337.443
'0:08.754',1340.217
'0:08.758',1341.568
'0:08.762',1341.714
'0:08.766',1341.057
'0:08.770',1340.108
'0:08.773',1339.159
'0:08.777',1338.429
'0:08.781',1337.918
'0:08.785',1337.370
'0:08.789',1336.567
'0:08.793',1335.436
'0:08.797',1334.049
'0:08.801',1332.844
'0:08.805',1332.078
'0:08.809',1331.932
'0:08.813',1332.516
'0:08.816',1333.647
'0:08.820',1335.217
'0:08.824',1337.188
'0:08.828',1339.779
'0:08.832',1343.138
'0:08.836',1347.299
'0:08.840',1352.153
'0:08.844',1357.337
'0:08.848',1362.702
'0:08.852',1368.141
'0:08.855',1373.799
'0:08.859',1379.566
'0:08.863',1385.443
'0:08.867',1391.246
'0:08.871',1397.086
'0:08.875',1402.927
'0:08.879',1408.803
'0:08.883',1414.644
'0:08.887',1420.557
'0:08.891',1426.506
'0:08.895',1432.493
'0:08.898',1438.369
'0:08.902',1444.137
'0:08.906',1449.612
'0:08.910',1454.685
'0:08.914',1459.394
'0:08.918',1463.774
'0:08.922',1468.045
'0:08.926',1472.279
'0:08.930',1476.732
'0:08.934',1481.623
'0:08.938',1487.062
'0:08.941',1493.048
'0:08.945',1499.473
'0:08.949',1506.262
'0:08.953',1513.234
'0:08.957',1519.877
'0:08.961',1525.717
'0:08.965',1530.316
'0:08.969',1533.419
'0:08.973',1534.988
'0:08.977',1534.915
'0:08.980',1533.090
'0:08.984',1529.148
'0:08.988',1522.760
'0:08.992',1513.635
'0:08.996',1501.626
'0:09.000',1486.916
'0:09.004',1469.834
'0:09.008',1450.926
'0:09.012',1430.923
'0:09.016',1410.555
'0:09.020',1390.370
'0:09.023',1370.769
'0:09.027',1351.971
'0:09.031',1334.231
'0:09.035',1318.025
'0:09.039',1303.753
'0:09.043',1291.598
'0:09.047',1281.560
'0:09.051',1273.566
'0:09.055',1267.397
'0:09.059',1262.835
'0:09.063',1259.659
'0:09.066',1257.579
'0:09.070',1256.265
'0:09.074',1255.608
'0:09.078',1255.498
'0:09.082',1255.973
'0:09.086',1257.068
'0:09.090',1258.674
'0:09.094',1260.827
'0:09.098',1263.455
'0:09.102',1266.558
'0:09.105',1269.989
'0:09.109',1273.603
'0:09.113',1277.326
'0:09.117',1281.268
'0:09.121',1285.721
'0:09.125',1290.941
'0:09.129',1297.000
'0:09.133',1303.789
'0:09.137',1311.016
'0:09.141',1318.645
'0:09.145',1326.675
'0:09.148',1335.290
'0:09.152',1344.525
'0:09.156',1354.453
'0:09.160',1365.038
'0:09.164',1376.317
'0:09.168',1388.217
'0:09.172',1400.664
'0:09.176',1413.622
'0:09.180',1426.981
'0:09.184',1440.559
'0:09.188',1454.138
'0:09.191',1467.461
'0:09.195',1480.273
'0:09.199',1492.245
'0:09.203',1503.232
'0:09.207',1513.161
'0:09.211',1521.884
'0:09.215',1529.440
'0:09.219',1535.755
'0:09.223',1540.829
'0:09.227',1544.734
'0:09.230',1547.362
'0:09.234',1548.822
'0:09.238',1549.151
'0:09.242',1548.421
'0:09.246',1546.596
'0:09.250',1543.566
'0:09.254',1539.405
'0:09.258',1534.331
'0:09.262',1528.747
'0:09.266',1522.906
'0:09.270',1517.030
'0:09.273',1511.226
'0:09.277',1505.714
'0:09.281',1500.750
'0:09.285',1496.516
'0:09.289',1493.231
'0:09.293',1490.931
'0:09.297',1489.617
'0:09.301',1489.252
'0:09.305',1489.727
'0:09.309',1490.968
'0:09.313',1492.829
'0:09.316',1495.165
'0:09.320',1497.903
'0:09.324',1501.261
'0:09.328',1505.459
'0:09.332',1510.569
'0:09.336',1516.665
'0:09.340',1523.709
'0:09.344',1531.557
'0:09.348',1540.135
'0:09.352',1549.406
'0:09.355',1559.298
'0:09.359',1569.665
'0:09.363',1580.250
'0:09.367',1590.616
'0:09.371',1600.508
'0:09.375',1609.816
'0:09.379',1618.613
'0:09.383',1626.899
'0:09.387',1634.600
'0:09.391',1641.828
'0:09.395',1648.653
'0:09.398',1655.114
'0:09.402',1661.283
'0:09.406',1667.050
'0:09.410',1672.379
'0:09.414',1677.197
'0:09.418',1681.468
'0:09.422',1685.228
'0:09.426',1688.403
'0:09.430',1690.958
'0:09.434',1692.929
'0:09.438',1694.280
'0:09.441',1694.973
'0:09.445',1695.010
'0:09.449',1694.353
'0:09.453',1693.112
'0:09.457',1691.396
'0:09.461',1689.316
'0:09.465',1686.870
'0:09.469',1683.914
'0:09.473',1680.373
'0:09.477',1676.102
'0:09.480',1670.956
'0:09.484',1664.823
'0:09.488',1657.596
'0:09.492',1649.091
'0:09.496',1639.126
'0:09.500',1627.629
'0:09.504',1614.598
'0:09.508',1600.216
'0:09.512',1584.740
'0:09.516',1568.387
'0:09.520',1551.231
'0:09.523',1533.309
'0:09.527',1514.840
'0:09.531',1496.187
'0:09.535',1477.718
'0:09.539',1459.613
'0:09.543',1441.874
'0:09.547',1424.316
'0:09.551',1406.650
'0:09.555',1388.472
'0:09.559',1369.455
'0:09.563',1349.233
'0:09.566',1327.734
'0:09.570',1305.030
'0:09.574',1281.268
'0:09.578',1256.557
'0:09.582',1231.042
'0:09.586',1204.834
'0:09.590',1178.188
'0:09.594',1151.579
'0:09.598',1125.298
'0:09.602',1099.601
'0:09.605',1074.415
'0:09.609',1049.813
'0:09.613',1025.941
'0:09.617',1003.128
'0:09.621',981.519
'0:09.625',961.152
'0:09.629',941.989
'0:09.633',924.139
'0:09.637',907.714
'0:09.641',893.040
'0:09.645',880.301
'0:09.648',869.752
'0:09.652',861.503
'0:09.656',855.480
'0:09.660',851.611
'0:09.664',849.713
'0:09.668',849.604
'0:09.672',851.173
'0:09.676',854.203
'0:09.680',858.474
'0:09.684',863.657
'0:09.688',869.643
'0:09.691',876.505
'0:09.695',884.316
'0:09.699',893.150
'0:09.703',903.078
'0:09.707',913.956
'0:09.711',925.563
'0:09.715',937.608
'0:09.719',949.690
'0:09.723',961.444
'0:09.727',972.577
'0:09.730',983.016
'0:09.734',992.725
'0:09.738',1001.814
'0:09.742',1010.319
'0:09.746',1018.422
'0:09.750',1026.197
'0:09.754',1033.899
'0:09.758',1041.637
'0:09.762',1049.266
'0:09.766',1056.712
'0:09.770',1063.976
'0:09.773',1071.276
'0:09.777',1078.832
'0:09.781',1086.716
'0:09.785',1094.637
'0:09.789',1102.302
'0:09.793',1109.566
'0:09.797',1116.428
'0:09.801',1123.035
'0:09.805',1129.569
'0:09.809',1136.139
'0:09.813',1142.673
'0:09.816',1149.170
'0:09.820',1155.521
'0:09.824',1161.726
'0:09.828',1167.785
'0:09.832',1173.662
'0:09.836',1179.247
'0:09.840',1184.540
'0:09.844',1189.467
'0:09.848',1194.139
'0:09.852',1198.629
'0:09.855',1203.228
'0:09.859',1208.156
'0:09.863',1213.558
'0:09.867',1219.508
'0:09.871',1226.078
'0:09.875',1233.269
'0:09.879',1241.043
'0:09.883',1249.439
'0:09.887',1258.382
'0:09.891',1267.799
'0:09.895',1277.545
'0:09.898',1287.546
'0:09.902',1297.693
'0:09.906',1307.877
'0:09.910',1317.952
'0:09.914',1327.698
'0:09.918',1336.713
'0:09.922',1344.890
'0:09.926',1352.299
'0:09.930',1359.125
'0:09.934',1365.622
'0:09.938',1371.901
'0:09.941',1377.923
'0:09.945',1383.764
'0:09.949',1389.458
'0:09.953',1395.079
'0:09.957',1400.737
'0:09.961',1406.431
'0:09.965',1412.234
'0:09.969',1418.038
'0:09.973',1423.659
'0:09.977',1428.916
'0:09.980',1433.734
'0:09.984',1438.150
'0:09.988',1442.239
'0:09.992',1445.998
'0:09.996',1449.575
'0:10.000',1453.043
'0:10.004',1456.474
'0:10.008',1459.905
'0:10.012',1463.300
'0:10.016',1466.658
'0:10.020',1469.980
'0:10.023',1473.374
'0:10.027',1476.951
'0:10.031',1480.820
'0:10.035',1485.055
'0:10.039',1489.690
'0:10.043',1494.910
'0:10.047',1500.860
'0:10.051',1507.831
'0:10.055',1516.008
'0:10.059',1525.425
'0:10.063',1535.901
'0:10.066',1547.289
'0:10.070',1559.262
'0:10.074',1571.636
'0:10.078',1584.302
'0:10.082',1597.296
'0:10.086',1610.582
'0:10.090',1624.161
'0:10.094',1637.812
'0:10.098',1651.318
'0:10.102',1664.422
'0:10.105',1676.869
'0:10.109',1688.549
'0:10.113',1699.463
'0:10.117',1709.464
'0:10.121',1718.444
'0:10.125',1726.401
'0:10.129',1733.446
'0:10.133',1739.943
'0:10.137',1746.002
'0:10.141',1751.769
'0:10.145',1757.318
'0:10.148',1762.683
'0:10.152',1767.793
'0:10.156',1772.502
'0:10.160',1776.700
'0:10.164',1780.240
'0:10.168',1782.941
'0:10.172',1784.803
'0:10.176',1785.898
'0:10.180',1786.336
'0:10.184',1786.154
'0:10.188',1785.460
'0:10.191',1784.219
'0:10.195',1782.576
'0:10.199',1780.459
'0:10.203',1777.722
'0:10.207',1774.181
'0:10.211',1769.692
'0:10.215',1764.289
'0:10.219',1758.048
'0:10.223',1751.039
'0:10.227',1743.228
'0:10.230',1734.723
'0:10.234',1725.598
'0:10.238',1715.998
'0:10.242',1705.960
'0:10.246',1695.484
'0:10.250',1684.425
'0:10.254',1672.635
'0:10.258',1660.005
'0:10.262',1646.500
'0:10.266',1632.118
'0:10.270',1617.080
'0:10.273',1601.640
'0:10.277',1586.200
'0:10.281',1571.052
'0:10.285',1556.488
'0:10.289',1542.544
'0:10.293',1529.404
'0:10.297',1517.139
'0:10.301',1505.678
'0:10.305',1494.983
'0:10.309',1484.872
'0:10.313',1475.382
'0:10.316',1466.621
'0:10.320',1458.701
'0:10.324',1451.583
'0:10.328',1445.195
'0:10.332',1439.391
'0:10.336',1433.916
'0:10.340',1428.587
'0:10.344',1423.221
'0:10.348',1417.856
'0:10.352',1412.454
'0:10.355',1407.197
'0:10.359',1402.343
'0:10.363',1398.291
'0:10.367',1395.407
'0:10.371',1393.874
'0:10.375',1393.728
'0:10.379',1395.152
'0:10.383',1398.255
'0:10.387',1403.036
'0:10.391',1409.241
'0:10.395',1416.615
'0:10.398',1424.973
'0:10.402',1434.172
'0:10.406',1443.991
'0:10.410',1454.174
'0:10.414',1464.358
'0:10.418',1474.323
'0:10.422',1483.887
'0:10.426',1492.902
'0:10.430',1501.225
'0:10.434',1508.853
'0:10.438',1515.789
'0:10.441',1522.176
'0:10.445',1527.871
'0:10.449',1532.762
'0:10.453',1536.485
'0:10.457',1538.857
'0:10.461',1539.806
'0:10.465',1539.551
'0:10.469',1538.237
'0:10.473',1535.974
'0:10.477',1532.835
'0:10.480',1529.112
'0:10.484',1525.206
'0:10.488',1521.629
'0:10.492',1518.745
'0:10.496',1516.665
'0:10.500',1515.460
'0:10.504',1515.059
'0:10.508',1515.278
'0:10.512',1515.971
'0:10.516',1516.920
'0:10.520',1517.942
'0:10.523',1518.745
'0:10.527',1519.074
'0:10.531',1518.490
'0:10.535',1516.738
'0:10.539',1513.818
'0:10.543',1509.985
'0:10.547',1505.568
'0:10.551',1500.823
'0:10.555',1495.895
'0:10.559',1490.822
'0:10.563',1485.529
'0:10.566',1479.835
'0:10.570',1473.666
'0:10.574',1467.023
'0:10.578',1459.796
'0:10.582',1452.057
'0:10.586',1443.699
'0:10.590',1434.756
'0:10.594',1425.265
'0:10.598',1415.191
'0:10.602',1404.314
'0:10.605',1392.524
'0:10.609',1379.748
'0:10.613',1366.316
'0:10.617',1352.628
'0:10.621',1339.122
'0:10.625',1326.055
'0:10.629',1313.645
'0:10.633',1301.855
'0:10.637',1290.649
'0:10.641',1279.954
'0:10.645',1269.697
'0:10.648',1259.805
'0:10.652',1250.205
'0:10.656',1240.569
'0:10.660',1230.604
'0:10.664',1220.019
'0:10.668',1208.813
'0:10.672',1196.950
'0:10.676',1184.613
'0:10.680',1171.983
'0:10.684',1159.317
'0:10.688',1146.907
'0:10.691',1134.971
'0:10.695',1123.838
'0:10.699',1113.910
'0:10.703',1105.405
'0:10.707',1098.470
'0:10.711',1093.031
'0:10.715',1088.943
'0:10.719',1085.950
'0:10.723',1083.796
'0:10.727',1082.372
'0:10.730',1081.642
'0:10.734',1081.569
'0:10.738',1082.226
'0:10.742',1083.613
'0:10.746',1085.731
'0:10.750',1088.651
'0:10.754',1092.483
'0:10.758',1097.374
'0:10.762',1103.580
'0:10.766',1111.208
'0:10.770',1120.224
'0:10.773',1130.518
'0:10.777',1141.870
'0:10.781',1154.207
'0:10.785',1167.384
'0:10.789',1181.072
'0:10.793',1194.942
'0:10.797',1208.703
'0:10.801',1222.209
'0:10.805',1235.313
'0:10.809',1247.723
'0:10.813',1259.112
'0:10.816',1269.295
'0:10.820',1278.348
'0:10.824',1286.561
'0:10.828',1294.153
'0:10.832',1301.052
'0:10.836',1307.111
'0:10.840',1312.002
'0:10.844',1315.506
'0:10.848',1317.660
'0:10.852',1318.609
'0:10.855',1318.499
'0:10.859',1317.623
'0:10.863',1316.309
'0:10.867',1314.886
'0:10.871',1313.718
'0:10.875',1313.134
'0:10.879',1313.316
'0:10.883',1314.156
'0:10.887',1315.470
'0:10.891',1317.076
'0:10.895',1319.156
'0:10.898',1321.894
'0:10.902',1325.544
'0:10.906',1330.070
'0:10.910',1335.180
'0:10.914',1340.509
'0:10.918',1345.729
'0:10.922',1350.584
'0:10.926',1354.854
'0:10.930',1358.468
'0:10.934',1361.352
'0:10.938',1363.578
'0:10.941',1365.294
'0:10.945',1366.498
'0:10.949',1367.338
'0:10.953',1367.776
'0:10.957',1367.849
'0:10.961',1367.630
'0:10.965',1367.228
'0:10.969',1366.863
'0:10.973',1366.754
'0:10.977',1366.936
'0:10.980',1367.447
'0:10.984',1368.250
'0:10.988',1369.053
'0:10.992',1369.820
'0:10.996',1370.550
'0:11.000',1371.463
'0:11.004',1372.813
'0:11.008',1374.821
'0:11.012',1377.850
'0:11.016',1381.975
'0:11.020',1387.304
'0:11.023',1393.801
'0:11.027',1401.211
'0:11.031',1409.278
'0:11.035',1417.637
'0:11.039',1425.886
'0:11.043',1433.770
'0:11.047',1441.217
'0:11.051',1448.371
'0:11.055',1455.562
'0:11.059',1463.190
'0:11.063',1471.622
'0:11.066',1481.039
'0:11.070',1491.333
'0:11.074',1502.174
'0:11.078',1513.234
'0:11.082',1524.220
'0:11.086',1535.061
'0:11.090',1545.683
'0:11.094',1556.123
'0:11.098',1566.379
'0:11.102',1576.454
'0:11.105',1586.309
'0:11.109',1595.909
'0:11.113',1605.180
'0:11.117',1614.014
'0:11.121',1622.299
'0:11.125',1629.928
'0:11.129',1636.754
'0:11.133',1642.667
'0:11.137',1647.631
'0:11.141',1651.756
'0:11.145',1655.187
'0:11.148',1658.107
'0:11.152',1660.699
'0:11.156',1663.181
'0:11.160',1665.590
'0:11.164',1667.962
'0:11.168',1670.262
'0:11.172',1672.489
'0:11.176',1674.606
'0:11.180',1676.723
'0:11.184',1678.876
'0:11.188',1681.103
'0:11.191',1683.476
'0:11.195',1685.958
'0:11.199',1688.549
'0:11.203',1691.141
'0:11.207',1693.513
'0:11.211',1695.338
'0:11.215',1696.287
'0:11.219',1695.922
'0:11.223',1694.097
'0:11.227',1690.812
'0:11.230',1686.250
'0:11.234',1680.884
'0:11.238',1675.007
'0:11.242',1668.984
'0:11.246',1663.035
'0:11.250',1657.414
'0:11.254',1652.413
'0:11.258',1648.106
'0:11.262',1644.565
'0:11.266',1641.682
'0:11.270',1639.418
'0:11.273',1637.703
'0:11.277',1636.535
'0:11.281',1635.878
'0:11.285',1635.659
'0:11.289',1635.586
'0:11.293',1635.367
'0:11.297',1634.819
'0:11.301',1633.761
'0:11.305',1632.191
'0:11.309',1630.001
'0:11.313',1627.154
'0:11.316',1623.650
'0:11.320',1619.343
'0:11.324',1614.160
'0:11.328',1608.137
'0:11.332',1601.238
'0:11.336',1593.463
'0:11.340',1584.849
'0:11.344',1575.432
'0:11.348',1565.357
'0:11.352',1554.699
'0:11.355',1543.603
'0:11.359',1532.178
'0:11.363',1520.607
'0:11.367',1508.963
'0:11.371',1497.319
'0:11.375',1485.675
'0:11.379',1473.958
'0:11.383',1462.241
'0:11.387',1450.670
'0:11.391',1439.428
'0:11.395',1428.733
'0:11.398',1418.695
'0:11.402',1409.314
'0:11.406',1400.627
'0:11.410',1392.597
'0:11.414',1385.297
'0:11.418',1378.799
'0:11.422',1373.288
'0:11.426',1369.017
'0:11.430',1366.060
'0:11.434',1364.527
'0:11.438',1364.454
'0:11.441',1365.768
'0:11.445',1368.396
'0:11.449',1372.229
'0:11.453',1377.157
'0:11.457',1383.179
'0:11.461',1390.261
'0:11.465',1398.218
'0:11.469',1406.796
'0:11.473',1415.848
'0:11.477',1425.010
'0:11.480',1433.989
'0:11.484',1442.421
'0:11.488',1450.123
'0:11.492',1457.131
'0:11.496',1463.373
'0:11.500',1468.738
'0:11.504',1473.119
'0:11.508',1476.477
'0:11.512',1478.667
'0:11.516',1479.689
'0:11.520',1479.616
'0:11.523',1478.630
'0:11.527',1477.061
'0:11.531',1475.053
'0:11.535',1472.863
'0:11.539',1470.746
'0:11.543',1468.921
'0:11.547',1467.534
'0:11.551',1466.658
'0:11.555',1466.366
'0:11.559',1466.658
'0:11.563',1467.461
'0:11.566',1468.556
'0:11.570',1469.724
'0:11.574',1470.673
'0:11.578',1471.111
'0:11.582',1470.819
'0:11.586',1469.834
'0:11.590',1468.154
'0:11.594',1465.745
'0:11.598',1462.570
'0:11.602',1458.591
'0:11.605',1453.992
'0:11.609',1448.809
'0:11.613',1443.078
'0:11.617',1436.836
'0:11.621',1430.084
'0:11.625',1422.674
'0:11.629',1414.388
'0:11.633',1405.044
'0:11.637',1394.495
'0:11.641',1382.924
'0:11.645',1370.733
'0:11.648',1358.505
'0:11.652',1346.715
'0:11.656',1335.655
'0:11.660',1325.507
'0:11.664',1316.273
'0:11.668',1307.877
'0:11.672',1300.322
'0:11.676',1293.569
'0:11.680',1287.619
'0:11.684',1282.399
'0:11.688',1277.800
'0:11.691',1273.712
'0:11.695',1269.953
'0:11.699',1266.412
'0:11.703',1262.871
'0:11.707',1259.002
'0:11.711',1254.695
'0:11.715',1249.767
'0:11.719',1244.256
'0:11.723',1238.160
'0:11.727',1231.298
'0:11.730',1223.632
'0:11.734',1215.128
'0:11.738',1205.893
'0:11.742',1196.074
'0:11.746',1185.854
'0:11.750',1175.378
'0:11.754',1164.792
'0:11.758',1154.134
'0:11.762',1143.512
'0:11.766',1132.963
'0:11.770',1122.597
'0:11.773',1112.449
'0:11.777',1102.631
'0:11.781',1093.213
'0:11.785',1084.124
'0:11.789',1075.291
'0:11.793',1066.567
'0:11.797',1057.990
'0:11.801',1049.740
'0:11.805',1042.185
'0:11.809',1035.505
'0:11.813',1029.920
'0:11.816',1025.540
'0:11.820',1022.547
'0:11.824',1021.160
'0:11.828',1021.306
'0:11.832',1022.839
'0:11.836',1025.503
'0:11.840',1029.117
'0:11.844',1033.643
'0:11.848',1039.082
'0:11.852',1045.616
'0:11.855',1053.281
'0:11.859',1061.968
'0:11.863',1071.568
'0:11.867',1081.642
'0:11.871',1091.753
'0:11.875',1101.572
'0:11.879',1110.989
'0:11.883',1119.969
'0:11.887',1128.656
'0:11.891',1137.124
'0:11.895',1145.629
'0:11.898',1154.462
'0:11.902',1163.880
'0:11.906',1173.991
'0:11.910',1184.795
'0:11.914',1196.366
'0:11.918',1208.484
'0:11.922',1220.858
'0:11.926',1233.159
'0:11.930',1245.059
'0:11.934',1256.520
'0:11.938',1267.616
'0:11.941',1278.384
'0:11.945',1288.897
'0:11.949',1299.263
'0:11.953',1309.739
'0:11.957',1320.397
'0:11.961',1331.421
'0:11.965',1342.736
'0:11.969',1354.234
'0:11.973',1365.732
'0:11.977',1377.011
'0:11.980',1387.742
'0:11.984',1397.634
'0:11.988',1406.540
'0:11.992',1414.315
'0:11.996',1420.885
'0:12.000',1426.251
'0:12.004',1430.522
'0:12.008',1433.770
'0:12.012',1436.143
'0:12.016',1437.712
'0:12.020',1438.515
'0:12.023',1438.661
'0:12.027',1438.296
'0:12.031',1437.785
'0:12.035',1437.347
'0:12.039',1437.347
'0:12.043',1437.931
'0:12.047',1439.063
'0:12.051',1440.632
'0:12.055',1442.640
'0:12.059',1445.086
'0:12.063',1447.933
'0:12.066',1451.254
'0:12.070',1455.124
'0:12.074',1459.504
'0:12.078',1464.358
'0:12.082',1469.578
'0:12.086',1475.199
'0:12.090',1481.295
'0:12.094',1488.011
'0:12.098',1495.567
'0:12.102',1503.889
'0:12.105',1512.832
'0:12.109',1522.140
'0:12.113',1531.302
'0:12.117',1539.770
'0:12.121',1547.107
'0:12.125',1553.202
'0:12.129',1558.240
'0:12.133',1562.474
'0:12.137',1566.160
'0:12.141',1569.555
'0:12.145',1572.877
'0:12.148',1576.308
'0:12.152',1579.775
'0:12.156',1583.243
'0:12.160',1586.565
'0:12.164',1589.594
'0:12.168',1592.332
'0:12.172',1594.923
'0:12.176',1597.442
'0:12.180',1599.961
'0:12.184',1602.589
'0:12.188',1605.363
'0:12.191',1608.392
'0:12.195',1611.714
'0:12.199',1615.437
'0:12.203',1619.525
'0:12.207',1623.978
'0:12.211',1628.797
'0:12.215',1633.870
'0:12.219',1639.163
'0:12.223',1644.638
'0:12.227',1650.369
'0:12.230',1656.319
'0:12.234',1662.195
'0:12.238',1667.816
'0:12.242',1673.073
'0:12.246',1677.854
'0:12.250',1682.052
'0:12.254',1685.666
'0:12.258',1688.695
'0:12.262',1691.141
'0:12.266',1693.148
'0:12.270',1694.791
'0:12.273',1696.178
'0:12.277',1697.382
'0:12.281',1698.441
'0:12.285',1699.463
'0:12.289',1700.339
'0:12.293',1701.142
'0:12.297',1701.799
'0:12.301',1702.274
'0:12.305',1702.529
'0:12.309',1702.347
'0:12.313',1701.507
'0:12.316',1699.974
'0:12.320',1697.821
'0:12.324',1695.046
'0:12.328',1691.761
'0:12.332',1687.929
'0:12.336',1683.476
'0:12.340',1678.402
'0:12.344',1672.635
'0:12.348',1666.028
'0:12.352',1658.618
'0:12.355',1650.296
'0:12.359',1641.244
'0:12.363',1631.644
'0:12.367',1621.679
'0:12.371',1611.604
'0:12.375',1601.457
'0:12.379',1591.200
'0:12.383',1580.724
'0:12.387',1569.774
'0:12.391',1558.240
'0:12.395',1545.939
'0:12.398',1532.835
'0:12.402',1518.891
'0:12.406',1504.108
'0:12.410',1488.522
'0:12.414',1472.133
'0:12.418',1455.014
'0:12.422',1437.311
'0:12.426',1419.352
'0:12.430',1401.686
'0:12.434',1384.786
'0:12.438',1368.944
'0:12.441',1354.307
'0:12.445',1340.838
'0:12.449',1328.391
'0:12.453',1316.930
'0:12.457',1306.344
'0:12.461',1296.671
'0:12.465',1287.911
'0:12.469',1279.954
'0:12.473',1272.836
'0:12.477',1266.448
'0:12.480',1260.718
'0:12.484',1255.498
'0:12.488',1250.826
'0:12.492',1246.738
'0:12.496',1243.343
'0:12.500',1240.569
'0:12.504',1238.379
'0:12.508',1236.809
'0:12.512',1235.860
'0:12.516',1235.641
'0:12.520',1236.189
'0:12.523',1237.576
'0:12.527',1239.985
'0:12.531',1243.599
'0:12.535',1248.490
'0:12.539',1254.476
'0:12.543',1261.411
'0:12.547',1269.186
'0:12.551',1277.691
'0:12.555',1286.816
'0:12.559',1296.452
'0:12.563',1306.381
'0:12.566',1316.455
'0:12.570',1326.529
'0:12.574',1336.567
'0:12.578',1346.569
'0:12.582',1356.643
'0:12.586',1367.046
'0:12.590',1377.996
'0:12.594',1389.713
'0:12.598',1402.270
'0:12.602',1415.775
'0:12.605',1430.266
'0:12.609',1445.779
'0:12.613',1462.205
'0:12.617',1479.397
'0:12.621',1497.246
'0:12.625',1515.570
'0:12.629',1534.331
'0:12.633',1553.494
'0:12.637',1573.059
'0:12.641',1592.733
'0:12.645',1612.006
'0:12.648',1630.476
'0:12.652',1647.631
'0:12.656',1663.181
'0:12.660',1676.869
'0:12.664',1688.622
'0:12.668',1698.405
'0:12.672',1706.252
'0:12.676',1712.202
'0:12.680',1716.327
'0:12.684',1718.772
'0:12.688',1719.721
'0:12.691',1719.283
'0:12.695',1717.458
'0:12.699',1714.356
'0:12.703',1709.902
'0:12.707',1704.062
'0:12.711',1696.689
'0:12.715',1687.710
'0:12.719',1676.978
'0:12.723',1664.568
'0:12.727',1650.478
'0:12.730',1634.600
'0:12.734',1616.970
'0:12.738',1597.478
'0:12.742',1576.162
'0:12.746',1553.348
'0:12.750',1529.513
'0:12.754',1505.130
'0:12.758',1480.419
'0:12.762',1455.598
'0:12.766',1430.631
'0:12.770',1405.555
'0:12.773',1380.442
'0:12.777',1355.439
'0:12.781',1330.654
'0:12.785',1306.308
'0:12.789',1282.691
'0:12.793',1260.024
'0:12.797',1238.525
'0:12.801',1218.267
'0:12.805',1199.250
'0:12.809',1181.218
'0:12.813',1163.953
'0:12.816',1147.308
'0:12.820',1131.503
'0:12.824',1116.793
'0:12.828',1103.361
'0:12.832',1091.315
'0:12.836',1080.693
'0:12.840',1071.568
'0:12.844',1064.085
'0:12.848',1058.574
'0:12.852',1055.252
'0:12.855',1054.193
'0:12.859',1055.325
'0:12.863',1058.501
'0:12.867',1063.392
'0:12.871',1069.670
'0:12.875',1077.007
'0:12.879',1085.147
'0:12.883',1094.089
'0:12.887',1103.726
'0:12.891',1113.873
'0:12.895',1124.349
'0:12.898',1134.569
'0:12.902',1143.950
'0:12.906',1152.199
'0:12.910',1159.208
'0:12.914',1165.157
'0:12.918',1170.304
'0:12.922',1174.684
'0:12.926',1178.115
'0:12.930',1180.342
'0:12.934',1181.145
'0:12.938',1180.378
'0:12.941',1178.115
'0:12.945',1174.392
'0:12.949',1169.355
'0:12.953',1163.332
'0:12.957',1156.799
'0:12.961',1150.338
'0:12.965',1144.425
'0:12.969',1139.460
'0:12.973',1135.664
'0:12.977',1133.182
'0:12.980',1132.014
'0:12.984',1132.014
'0:12.988',1133.073
'0:12.992',1134.788
'0:12.996',1136.869
'0:13.000',1138.767
'0:13.004',1139.971
'0:13.008',1140.190
'0:13.012',1139.205
'0:13.016',1136.978
'0:13.020',1133.839
'0:13.023',1130.153
'0:13.027',1126.429
'0:13.031',1123.108
'0:13.035',1120.443
'0:13.039',1118.618
'0:13.043',1117.669
'0:13.047',1117.669
'0:13.051',1118.691
'0:13.055',1120.881
'0:13.059',1124.312
'0:13.063',1128.985
'0:13.066',1134.679
'0:13.070',1140.811
'0:13.074',1146.688
'0:13.078',1151.688
'0:13.082',1155.521
'0:13.086',1158.003
'0:13.090',1159.135
'0:13.094',1159.098
'0:13.098',1157.930
'0:13.102',1155.667
'0:13.105',1152.455
'0:13.109',1148.695
'0:13.113',1144.863
'0:13.117',1141.359
'0:13.121',1138.402
'0:13.125',1135.956
'0:13.129',1133.839
'0:13.133',1131.832
'0:13.137',1129.970
'0:13.141',1128.291
'0:13.145',1127.050
'0:13.148',1126.429
'0:13.152',1126.539
'0:13.156',1127.379
'0:13.160',1128.985
'0:13.164',1131.394
'0:13.168',1134.825
'0:13.172',1139.606
'0:13.176',1146.104
'0:13.180',1154.791
'0:13.184',1165.814
'0:13.188',1179.137
'0:13.191',1194.723
'0:13.195',1212.573
'0:13.199',1232.539
'0:13.203',1254.330
'0:13.207',1277.581
'0:13.211',1301.636
'0:13.215',1325.872
'0:13.219',1349.635
'0:13.223',1372.412
'0:13.227',1393.911
'0:13.230',1413.987
'0:13.234',1432.383
'0:13.238',1449.028
'0:13.242',1463.811
'0:13.246',1476.732
'0:13.250',1487.975
'0:13.254',1497.976
'0:13.258',1507.174
'0:13.262',1515.971
'0:13.266',1524.622
'0:13.270',1533.309
'0:13.273',1542.106
'0:13.277',1550.976
'0:13.281',1559.773
'0:13.285',1568.423
'0:13.289',1576.928
'0:13.293',1585.433
'0:13.297',1594.120
'0:13.301',1603.246
'0:13.305',1612.919
'0:13.309',1623.248
'0:13.313',1634.454
'0:13.316',1646.609
'0:13.320',1659.859
'0:13.324',1674.277
'0:13.328',1689.863
'0:13.332',1706.544
'0:13.336',1724.101
'0:13.340',1742.243
'0:13.344',1760.566
'0:13.348',1778.634
'0:13.352',1796.264
'0:13.355',1813.238
'0:13.359',1829.371
'0:13.363',1844.592
'0:13.367',1858.791
'0:13.371',1871.968
'0:13.375',1884.087
'0:13.379',1895.037
'0:13.383',1904.746
'0:13.387',1913.251
'0:13.391',1920.624
'0:13.395',1926.866
'0:13.398',1931.684
'0:13.402',1934.860
'0:13.406',1936.064
'0:13.410',1935.225
'0:13.414',1932.268
'0:13.418',1927.122
'0:13.422',1919.675
'0:13.426',1909.820
'0:13.430',1897.483
'0:13.434',1882.517
'0:13.438',1864.996
'0:13.441',1844.957
'0:13.445',1822.436
'0:13.449',1797.542
'0:13.453',1770.495
'0:13.457',1741.659
'0:13.461',1711.435
'0:13.465',1680.482
'0:13.469',1649.310
'0:13.473',1618.503
'0:13.477',1588.426
'0:13.480',1559.371
'0:13.484',1531.448
'0:13.488',1504.729
'0:13.492',1479.397
'0:13.496',1455.562
'0:13.500',1433.405
'0:13.504',1413.147
'0:13.508',1395.115
'0:13.512',1379.456
'0:13.516',1366.243
'0:13.520',1355.512
'0:13.523',1347.080
'0:13.527',1340.692
'0:13.531',1335.874
'0:13.535',1332.260
'0:13.539',1329.486
'0:13.543',1327.260
'0:13.547',1325.179
'0:13.551',1322.733
'0:13.555',1319.704
'0:13.559',1316.127
'0:13.563',1312.367
'0:13.566',1308.790
'0:13.570',1305.724
'0:13.574',1303.278
'0:13.578',1301.636
'0:13.582',1300.906
'0:13.586',1301.088
'0:13.590',1302.220
'0:13.594',1304.081
'0:13.598',1306.454
'0:13.602',1309.264
'0:13.605',1312.403
'0:13.609',1316.054
'0:13.613',1320.142
'0:13.617',1324.485
'0:13.621',1329.048
'0:13.625',1333.939
'0:13.629',1339.524
'0:13.633',1346.058
'0:13.637',1353.577
'0:13.641',1362.009
'0:13.645',1371.098
'0:13.648',1380.369
'0:13.652',1389.531
'0:13.656',1398.364
'0:13.660',1406.942
'0:13.664',1415.410
'0:13.668',1423.915
'0:13.672',1432.347
'0:13.676',1440.523
'0:13.680',1448.188
'0:13.684',1455.160
'0:13.688',1461.584
'0:13.691',1467.607
'0:13.695',1473.374
'0:13.699',1478.959
'0:13.703',1484.398
'0:13.707',1489.800
'0:13.711',1495.056
'0:13.715',1500.203
'0:13.719',1505.094
'0:13.723',1509.620
'0:13.727',1513.708
'0:13.730',1517.358
'0:13.734',1520.424
'0:13.738',1522.870
'0:13.742',1524.622
'0:13.746',1525.790
'0:13.750',1526.520
'0:13.754',1527.068
'0:13.758',1527.579
'0:13.762',1528.236
'0:13.766',1529.148
'0:13.770',1530.280
'0:13.773',1531.521
'0:13.777',1532.689
'0:13.781',1533.638
'0:13.785',1534.368
'0:13.789',1534.842
'0:13.793',1535.171
'0:13.797',1535.499
'0:13.801',1535.755
'0:13.805',1535.828
'0:13.809',1535.426
'0:13.813',1534.222
'0:13.816',1532.141
'0:13.820',1529.258
'0:13.824',1525.717
'0:13.828',1521.629
'0:13.832',1517.103
'0:13.836',1512.175
'0:13.840',1506.846
'0:13.844',1501.006
'0:13.848',1494.654
'0:13.852',1487.792
'0:13.855',1480.455
'0:13.859',1472.717
'0:13.863',1464.431
'0:13.867',1455.635
'0:13.871',1446.217
'0:13.875',1436.143
'0:13.879',1425.411
'0:13.883',1414.133
'0:13.887',1402.416
'0:13.891',1390.443
'0:13.895',1378.434
'0:13.898',1366.608
'0:13.902',1355.110
'0:13.906',1343.904
'0:13.910',1332.954
'0:13.914',1322.222
'0:13.918',1311.637
'0:13.922',1301.125
'0:13.926',1290.393
'0:13.930',1279.187
'0:13.934',1267.324
'0:13.938',1254.877
'0:13.941',1241.883
'0:13.945',1228.597
'0:13.949',1215.128
'0:13.953',1201.841
'0:13.957',1189.139
'0:13.961',1177.312
'0:13.965',1166.435
'0:13.969',1156.397
'0:13.973',1147.053
'0:13.977',1138.329
'0:13.980',1130.335
'0:13.984',1123.181
'0:13.988',1116.939
'0:13.992',1111.792
'0:13.996',1107.814
'0:14.000',1105.076
'0:14.004',1103.543
'0:14.008',1103.178
'0:14.012',1103.981
'0:14.016',1105.952
'0:14.020',1108.945
'0:14.023',1112.815
'0:14.027',1117.414
'0:14.031',1122.670
'0:14.035',1128.474
'0:14.039',1134.752
'0:14.043',1141.286
'0:14.047',1147.856
'0:14.051',1154.207
'0:14.055',1160.230
'0:14.059',1165.997
'0:14.063',1171.764
'0:14.066',1177.750
'0:14.070',1184.248
'0:14.074',1191.110
'0:14.078',1198.154
'0:14.082',1205.126
'0:14.086',1211.842
'0:14.090',1218.048
'0:14.094',1223.669
'0:14.098',1228.633
'0:14.102',1233.013
'0:14.105',1236.992
'0:14.109',1240.824
'0:14.113',1244.621
'0:14.117',1248.453
'0:14.121',1252.213
'0:14.125',1255.827
'0:14.129',1259.112
'0:14.133',1261.922
'0:14.137',1264.295
'0:14.141',1266.339
'0:14.145',1268.200
'0:14.148',1269.989
'0:14.152',1271.814
'0:14.156',1273.566
'0:14.160',1275.063
'0:14.164',1276.121
'0:14.168',1276.742
'0:14.172',1277.070
'0:14.176',1277.362
'0:14.180',1277.910
'0:14.184',1278.968
'0:14.188',1280.793
'0:14.191',1283.385
'0:14.195',1286.853
'0:14.199',1291.087
'0:14.203',1296.051
'0:14.207',1301.672
'0:14.211',1307.914
'0:14.215',1314.740
'0:14.219',1322.222
'0:14.223',1330.362
'0:14.227',1339.195
'0:14.230',1348.795
'0:14.234',1359.235
'0:14.238',1370.514
'0:14.242',1382.522
'0:14.246',1394.750
'0:14.250',1406.759
'0:14.254',1418.111
'0:14.258',1428.551
'0:14.262',1438.150
'0:14.266',1446.984
'0:14.270',1455.050
'0:14.273',1462.351
'0:14.277',1468.884
'0:14.281',1474.871
'0:14.285',1480.528
'0:14.289',1485.967
'0:14.293',1491.223
'0:14.297',1496.260
'0:14.301',1501.006
'0:14.305',1505.422
'0:14.309',1509.401
'0:14.313',1512.832
'0:14.316',1515.679
'0:14.320',1517.869
'0:14.324',1519.402
'0:14.328',1520.205
'0:14.332',1520.388
'0:14.336',1520.023
'0:14.340',1519.220
'0:14.344',1518.015
'0:14.348',1516.519
'0:14.352',1514.767
'0:14.355',1513.124
'0:14.359',1511.846
'0:14.363',1511.080
'0:14.367',1510.934
'0:14.371',1511.299
'0:14.375',1512.029
'0:14.379',1512.978
'0:14.383',1514.073
'0:14.387',1515.314
'0:14.391',1516.847
'0:14.395',1518.855
'0:14.398',1521.556
'0:14.402',1525.133
'0:14.406',1529.550
'0:14.410',1534.806
'0:14.414',1540.683
'0:14.418',1546.997
'0:14.422',1553.567
'0:14.426',1560.320
'0:14.430',1567.182
'0:14.434',1574.081
'0:14.438',1580.797
'0:14.441',1587.185
'0:14.445',1593.098
'0:14.449',1598.537
'0:14.453',1603.538
'0:14.457',1608.137
'0:14.461',1612.335
'0:14.465',1616.204
'0:14.469',1619.817
'0:14.473',1623.175
'0:14.477',1626.168
'0:14.480',1628.724
'0:14.484',1630.731
'0:14.488',1632.009
'0:14.492',1632.447
'0:14.496',1631.826
'0:14.500',1629.928
'0:14.504',1626.643
'0:14.508',1621.898
'0:14.512',1615.693
'0:14.516',1608.246
'0:14.520',1599.888
'0:14.523',1590.762
'0:14.527',1580.980
'0:14.531',1570.614
'0:14.535',1559.773
'0:14.539',1548.530
'0:14.543',1536.923
'0:14.547',1524.987
'0:14.551',1512.723
'0:14.555',1500.130
'0:14.559',1487.245
'0:14.563',1474.177
'0:14.566',1461.037
'0:14.570',1448.042
'0:14.574',1435.340
'0:14.578',1423.075
'0:14.582',1411.285
'0:14.586',1400.226
'0:14.590',1390.005
'0:14.594',1380.734
'0:14.598',1372.375
'0:14.602',1364.856
'0:14.605',1358.067
'0:14.609',1351.825
'0:14.613',1345.839
'0:14.617',1339.925
'0:14.621',1334.085
'0:14.625',1328.318
'0:14.629',1322.624
'0:14.633',1317.003
'0:14.637',1311.600
'0:14.641',1306.417
'0:14.645',1301.453
'0:14.648',1296.598
'0:14.652',1291.707
'0:14.656',1286.670
'0:14.660',1281.487
'0:14.664',1276.194
'0:14.668',1270.975
'0:14.672',1265.974
'0:14.676',1261.338
'0:14.680',1257.287
'0:14.684',1254.001
'0:14.688',1251.519
'0:14.691',1249.804
'0:14.695',1248.709
'0:14.699',1248.125
'0:14.703',1248.015
'0:14.707',1248.417
'0:14.711',1249.512
'0:14.715',1251.483
'0:14.719',1254.476
'0:14.723',1258.564
'0:14.727',1263.747
'0:14.730',1270.135
'0:14.734',1277.727
'0:14.738',1286.378
'0:14.742',1295.868
'0:14.746',1305.906
'0:14.750',1316.382
'0:14.754',1327.114
'0:14.758',1337.881
'0:14.762',1348.467
'0:14.766',1358.906
'0:14.770',1369.199
'0:14.773',1379.529
'0:14.777',1389.969
'0:14.781',1400.627
'0:14.785',1411.541
'0:14.789',1422.710
'0:14.793',1433.989
'0:14.797',1444.903
'0:14.801',1455.197
'0:14.805',1464.541
'0:14.809',1472.827
'0:14.813',1479.944
'0:14.816',1485.967
'0:14.820',1491.114
'0:14.824',1495.786
'0:14.828',1500.312
'0:14.832',1505.057
'0:14.836',1510.131
'0:14.840',1515.387
'0:14.844',1520.461
'0:14.848',1525.133
'0:14.852',1529.367
'0:14.855',1533.163
'0:14.859',1536.521
'0:14.863',1539.259
'0:14.867',1541.230
'0:14.871',1542.325
'0:14.875',1542.617
'0:14.879',1542.289
'0:14.883',1541.522
'0:14.887',1540.354
'0:14.891',1538.675
'0:14.895',1536.412
'0:14.898',1533.455
'0:14.902',1529.878
'0:14.906',1525.680
'0:14.910',1520.935
'0:14.914',1515.606
'0:14.918',1509.547
'0:14.922',1502.575
'0:14.926',1494.545
'0:14.930',1485.456
'0:14.934',1475.637
'0:14.938',1465.490
'0:14.941',1455.343
'0:14.945',1445.451
'0:14.949',1435.851
'0:14.953',1426.580
'0:14.957',1417.673
'0:14.961',1408.986
'0:14.965',1400.335
'0:14.969',1391.648
'0:14.973',1382.705
'0:14.977',1373.580
'0:14.980',1364.308
'0:14.984',1354.927
'0:14.988',1345.364
'0:14.992',1335.728
'0:14.996',1326.128
'0:15.000',1316.601
'0:15.004',1307.111
'0:15.008',1297.474
'0:15.012',1287.546
'0:15.016',1277.289
'0:15.020',1266.740
'0:15.023',1255.754
'0:15.027',1244.183
'0:15.031',1231.882
'0:15.035',1218.960
'0:15.039',1205.637
'0:15.043',1192.095
'0:15.047',1178.590
'0:15.051',1165.376
'0:15.055',1152.820
'0:15.059',1141.322
'0:15.063',1131.029
'0:15.066',1121.830
'0:15.070',1113.654
'0:15.074',1106.390
'0:15.078',1100.076
'0:15.082',1094.673
'0:15.086',1090.184
'0:15.090',1086.643
'0:15.094',1083.978
'0:15.098',1082.190
'0:15.102',1081.350
'0:15.105',1081.533
'0:15.109',1082.701
'0:15.113',1084.782
'0:15.117',1087.592
'0:15.121',1091.060
'0:15.125',1095.111
'0:15.129',1099.784
'0:15.133',1105.040
'0:15.137',1110.953
'0:15.141',1117.414
'0:15.145',1124.422
'0:15.148',1131.832
'0:15.152',1139.643
'0:15.156',1147.710
'0:15.160',1155.850
'0:15.164',1163.734
'0:15.168',1171.217
'0:15.172',1178.042
'0:15.176',1184.211
'0:15.180',1190.015
'0:15.184',1195.928
'0:15.188',1202.352
'0:15.191',1209.506
'0:15.195',1217.391
'0:15.199',1225.859
'0:15.203',1234.473
'0:15.207',1242.832
'0:15.211',1250.461
'0:15.215',1257.250
'0:15.219',1263.163
'0:15.223',1268.383
'0:15.227',1273.128
'0:15.230',1277.508
'0:15.234',1281.742
'0:15.238',1286.013
'0:15.242',1290.466
'0:15.246',1295.102
'0:15.250',1299.738
'0:15.254',1304.191
'0:15.258',1308.279
'0:15.262',1312.111
'0:15.266',1315.579
'0:15.270',1318.645
'0:15.273',1321.200
'0:15.277',1323.354
'0:15.281',1325.106
'0:15.285',1326.456
'0:15.289',1327.515
'0:15.293',1328.391
'0:15.297',1329.231
'0:15.301',1330.107
'0:15.305',1331.129
'0:15.309',1332.260
'0:15.313',1333.428
'0:15.316',1334.523
'0:15.320',1335.545
'0:15.324',1336.531
'0:15.328',1337.407
'0:15.332',1338.173
'0:15.336',1338.757
'0:15.340',1339.305
'0:15.344',1339.998
'0:15.348',1341.313
'0:15.352',1343.612
'0:15.355',1347.043
'0:15.359',1351.606
'0:15.363',1357.118
'0:15.367',1363.213
'0:15.371',1369.601
'0:15.375',1376.135
'0:15.379',1382.851
'0:15.383',1389.750
'0:15.387',1396.794
'0:15.391',1404.058
'0:15.395',1411.431
'0:15.398',1418.841
'0:15.402',1426.214
'0:15.406',1433.588
'0:15.410',1441.217
'0:15.414',1449.247
'0:15.418',1457.679
'0:15.422',1466.439
'0:15.426',1475.345
'0:15.430',1484.544
'0:15.434',1494.180
'0:15.438',1504.473
'0:15.441',1515.424
'0:15.445',1527.031
'0:15.449',1539.186
'0:15.453',1551.742
'0:15.457',1564.554
'0:15.461',1577.403
'0:15.465',1590.069
'0:15.469',1602.479
'0:15.473',1614.598
'0:15.477',1626.424
'0:15.480',1637.849
'0:15.484',1648.653
'0:15.488',1658.618
'0:15.492',1667.524
'0:15.496',1675.409
'0:15.500',1682.198
'0:15.504',1687.856
'0:15.508',1692.199
'0:15.512',1695.192
'0:15.516',1696.908
'0:15.520',1697.346
'0:15.523',1696.506
'0:15.527',1694.389
'0:15.531',1690.849
'0:15.535',1685.921
'0:15.539',1679.716
'0:15.543',1672.379
'0:15.547',1664.130
'0:15.551',1655.078
'0:15.555',1645.478
'0:15.559',1635.586
'0:15.563',1625.584
'0:15.566',1615.510
'0:15.570',1605.253
'0:15.574',1594.887
'0:15.578',1584.448
'0:15.582',1574.118
'0:15.586',1564.007
'0:15.590',1554.078
'0:15.594',1544.223
'0:15.598',1534.550
'0:15.602',1525.133
'0:15.605',1516.117
'0:15.609',1507.649
'0:15.613',1499.801
'0:15.617',1492.720
'0:15.621',1486.405
'0:15.625',1480.820
'0:15.629',1475.820
'0:15.633',1471.294
'0:15.637',1467.059
'0:15.641',1463.081
'0:15.645',1459.248
'0:15.648',1455.416
'0:15.652',1451.400
'0:15.656',1447.203
'0:15.660',1442.859
'0:15.664',1438.369
'0:15.668',1433.697
'0:15.672',1429.025
'0:15.676',1424.353
'0:15.680',1419.644
'0:15.684',1414.826
'0:15.688',1409.679
'0:15.691',1404.131
'0:15.695',1398.218
'0:15.699',1392.195
'0:15.703',1386.246
'0:15.707',1380.478
'0:15.711',1374.821
'0:15.715',1369.309
'0:15.719',1363.907
'0:15.723',1358.724
'0:15.727',1353.759
'0:15.730',1348.978
'0:15.734',1344.342
'0:15.738',1339.743
'0:15.742',1335.107
'0:15.746',1330.289
'0:15.750',1325.361
'0:15.754',1320.324
'0:15.758',1315.360
'0:15.762',1310.432
'0:15.766',1305.541
'0:15.770',1300.796
'0:15.773',1296.270
'0:15.777',1292.145
'0:15.781',1288.678
'0:15.785',1285.977
'0:15.789',1284.115
'0:15.793',1283.093
'0:15.797',1282.837
'0:15.801',1283.202
'0:15.805',1284.115
'0:15.809',1285.539
'0:15.813',1287.400
'0:15.816',1289.700
'0:15.820',1292.364
'0:15.824',1295.394
'0:15.828',1298.825
'0:15.832',1302.658
'0:15.836',1306.855
'0:15.840',1311.272
'0:15.844',1315.835
'0:15.848',1320.543
'0:15.852',1325.434
'0:15.855',1330.472
'0:15.859',1335.472
'0:15.863',1340.144
'0:15.867',1344.379
'0:15.871',1348.175
'0:15.875',1351.825
'0:15.879',1355.658
'0:15.883',1359.965
'0:15.887',1364.746
'0:15.891',1369.893
'0:15.895',1375.222
'0:15.898',1380.551
'0:15.902',1385.844
'0:15.906',1391.210
'0:15.910',1396.794
'0:15.914',1402.671
'0:15.918',1409.059
'0:15.922',1416.213
'0:15.926',1424.134
'0:15.930',1432.858
'0:15.934',1442.275
'0:15.938',1452.422
'0:15.941',1463.263
'0:15.945',1474.652
'0:15.949',1486.405
'0:15.953',1498.159
'0:15.957',1509.693
'0:15.961',1520.789
'0:15.965',1531.083
'0:15.969',1540.135
'0:15.973',1547.472
'0:15.977',1552.728
'0:15.980',1555.612
'0:15.984',1556.013
'0:15.988',1553.932
'0:15.992',1549.406
'0:15.996',1542.690
'0:16.000',1534.039
'0:16.004',1523.709
'0:16.008',1511.846
'0:16.012',1498.560
'0:16.016',1484.106
'0:16.020',1468.629
'0:16.023',1452.130
'0:16.027',1434.719
'0:16.031',1416.578
'0:16.035',1397.780
'0:16.039',1378.507
'0:16.043',1359.089
'0:16.047',1339.816
'0:16.051',1320.945
'0:16.055',1302.767
'0:16.059',1285.575
'0:16.063',1269.478
'0:16.066',1254.658
'0:16.070',1241.153
'0:16.074',1228.852
'0:16.078',1217.427
'0:16.082',1206.623
'0:16.086',1196.147
'0:16.090',1186.000
'0:16.094',1176.217
'0:16.098',1166.800
'0:16.102',1157.967
'0:16.105',1149.754
'0:16.109',1142.344
'0:16.113',1135.956
'0:16.117',1130.883
'0:16.121',1127.269
'0:16.125',1125.115
'0:16.129',1124.422
'0:16.133',1125.115
'0:16.137',1126.977
'0:16.141',1129.532
'0:16.145',1132.379
'0:16.148',1135.117
'0:16.152',1137.453
'0:16.156',1139.132
'0:16.160',1139.935
'0:16.164',1139.789
'0:16.168',1139.022
'0:16.172',1138.073
'0:16.176',1137.343
'0:16.180',1137.088
'0:16.184',1137.489
'0:16.188',1138.657
'0:16.191',1140.665
'0:16.195',1143.403
'0:16.199',1146.615
'0:16.203',1150.228
'0:16.207',1154.024
'0:16.211',1157.857
'0:16.215',1161.471
'0:16.219',1164.829
'0:16.223',1168.004
'0:16.227',1171.253
'0:16.230',1174.903
'0:16.234',1179.247
'0:16.238',1184.613
'0:16.242',1191.110
'0:16.246',1198.885
'0:16.250',1208.010
'0:16.254',1218.340
'0:16.258',1229.546
'0:16.262',1241.409
'0:16.266',1253.746
'0:16.270',1266.339
'0:16.273',1279.005
'0:16.277',1291.525
'0:16.281',1303.862
'0:16.285',1316.017
'0:16.289',1328.026
'0:16.293',1339.779
'0:16.297',1351.095
'0:16.301',1361.863
'0:16.305',1371.864
'0:16.309',1380.843
'0:16.313',1388.582
'0:16.316',1394.860
'0:16.320',1399.642
'0:16.324',1403.036
'0:16.328',1405.263
'0:16.332',1406.358
'0:16.336',1406.175
'0:16.340',1404.679
'0:16.344',1401.868
'0:16.348',1397.926
'0:16.352',1393.181
'0:16.355',1388.034
'0:16.359',1382.778
'0:16.363',1377.631
'0:16.367',1372.485
'0:16.371',1367.301
'0:16.375',1362.082
'0:16.379',1357.008
'0:16.383',1352.263
'0:16.387',1347.919
'0:16.391',1344.160
'0:16.395',1341.057
'0:16.398',1338.648
'0:16.402',1337.042
'0:16.406',1336.239
'0:16.410',1336.348
'0:16.414',1337.407
'0:16.418',1339.268
'0:16.422',1341.933
'0:16.426',1345.182
'0:16.430',1348.868
'0:16.434',1352.847
'0:16.438',1356.716
'0:16.441',1360.074
'0:16.445',1362.593
'0:16.449',1364.089
'0:16.453',1364.783
'0:16.457',1364.819
'0:16.461',1364.527
'0:16.465',1364.053
'0:16.469',1363.761
'0:16.473',1363.943
'0:16.477',1364.783
'0:16.480',1366.316
'0:16.484',1368.396
'0:16.488',1370.660
'0:16.492',1372.959
'0:16.496',1375.222
'0:16.500',1377.777
'0:16.504',1380.916
'0:16.508',1384.932
'0:16.512',1389.750
'0:16.516',1395.115
'0:16.520',1400.664
'0:16.523',1406.102
'0:16.527',1411.431
'0:16.531',1416.797
'0:16.535',1422.382
'0:16.539',1428.259
'0:16.543',1434.354
'0:16.547',1440.632
'0:16.551',1447.276
'0:16.555',1454.357
'0:16.559',1461.876
'0:16.563',1469.834
'0:16.566',1478.156
'0:16.570',1486.807
'0:16.574',1495.640
'0:16.578',1504.656
'0:16.582',1513.818
'0:16.586',1523.089
'0:16.590',1532.506
'0:16.594',1542.106
'0:16.598',1551.925
'0:16.602',1562.109
'0:16.605',1572.731
'0:16.609',1583.754
'0:16.613',1594.960
'0:16.617',1606.129
'0:16.621',1617.043
'0:16.625',1627.629
'0:16.629',1637.666
'0:16.633',1647.157
'0:16.637',1655.844
'0:16.641',1663.655
'0:16.645',1670.408
'0:16.648',1676.102
'0:16.652',1680.738
'0:16.656',1684.425
'0:16.660',1687.235
'0:16.664',1689.352
'0:16.668',1690.776
'0:16.672',1691.615
'0:16.676',1691.980
'0:16.680',1691.907
'0:16.684',1691.360
'0:16.688',1690.228
'0:16.691',1688.476
'0:16.695',1686.067
'0:16.699',1682.928
'0:16.703',1679.022
'0:16.707',1674.350
'0:16.711',1669.167
'0:16.715',1663.582
'0:16.719',1657.706
'0:16.723',1651.646
'0:16.727',1645.405
'0:16.730',1639.090
'0:16.734',1632.775
'0:16.738',1626.607
'0:16.742',1620.474
'0:16.746',1614.233
'0:16.750',1607.589
'0:16.754',1600.508
'0:16.758',1593.025
'0:16.762',1585.287
'0:16.766',1577.403
'0:16.770',1569.336
'0:16.773',1560.868
'0:16.777',1551.888
'0:16.781',1542.362
'0:16.785',1532.178
'0:16.789',1521.483
'0:16.793',1510.386
'0:16.797',1499.108
'0:16.801',1487.756
'0:16.805',1476.404
'0:16.809',1465.125
'0:16.813',1454.065
'0:16.816',1443.224
'0:16.820',1432.456
'0:16.824',1421.579
'0:16.828',1410.409
'0:16.832',1399.131
'0:16.836',1387.998
'0:16.840',1377.449
'0:16.844',1367.630
'0:16.848',1358.760
'0:16.852',1350.803
'0:16.855',1343.685
'0:16.859',1337.334
'0:16.863',1331.494
'0:16.867',1326.201
'0:16.871',1321.419
'0:16.875',1317.003
'0:16.879',1313.024
'0:16.883',1309.337
'0:16.887',1305.943
'0:16.891',1302.804
'0:16.895',1299.957
'0:16.898',1297.474
'0:16.902',1295.540
'0:16.906',1294.189
'0:16.910',1293.569
'0:16.914',1293.788
'0:16.918',1294.883
'0:16.922',1296.890
'0:16.926',1299.592
'0:16.930',1302.804
'0:16.934',1306.271
'0:16.938',1309.629
'0:16.941',1312.805
'0:16.945',1315.798
'0:16.949',1318.828
'0:16.953',1322.186
'0:16.957',1325.872
'0:16.961',1329.924
'0:16.965',1334.195
'0:16.969',1338.538
'0:16.973',1342.809
'0:16.977',1347.007
'0:16.980',1351.131
'0:16.984',1355.256
'0:16.988',1359.308
'0:16.992',1363.432
'0:16.996',1367.630
'0:17.000',1371.974
'0:17.004',1376.427
'0:17.008',1381.026
'0:17.012',1385.735
'0:17.016',1390.334
'0:17.020',1394.677
'0:17.023',1398.875
'0:17.027',1403.036
'0:17.031',1407.453
'0:17.035',1412.308
'0:17.039',1418.002
'0:17.043',1424.827
'0:17.047',1432.858
'0:17.051',1442.129
'0:17.055',1452.386
'0:17.059',1463.446
'0:17.063',1475.126
'0:17.066',1487.172
'0:17.070',1499.363
'0:17.074',1511.262
'0:17.078',1522.614
'0:17.082',1533.017
'0:17.086',1542.179
'0:17.090',1549.917
'0:17.094',1556.086
'0:17.098',1560.539
'0:17.102',1563.167
'0:17.105',1564.007
'0:17.109',1563.021
'0:17.113',1560.284
'0:17.117',1555.867
'0:17.121',1549.990
'0:17.125',1542.800
'0:17.129',1534.587
'0:17.133',1525.461
'0:17.137',1515.606
'0:17.141',1505.094
'0:17.145',1494.107
'0:17.148',1482.609
'0:17.152',1470.673
'0:17.156',1458.372
'0:17.160',1445.597
'0:17.164',1432.201
'0:17.168',1417.965
'0:17.172',1402.854
'0:17.176',1387.012
'0:17.180',1370.806
'0:17.184',1354.635
'0:17.188',1339.013
'0:17.191',1324.193
'0:17.195',1310.359
'0:17.199',1297.547
'0:17.203',1285.721
'0:17.207',1274.661
'0:17.211',1264.222
'0:17.215',1254.111
'0:17.219',1243.854
'0:17.223',1233.013
'0:17.227',1221.296
'0:17.230',1208.630
'0:17.234',1195.344
'0:17.238',1181.838
'0:17.242',1168.442
'0:17.246',1155.265
'0:17.250',1142.198
'0:17.254',1129.167
'0:17.258',1116.209
'0:17.262',1103.507
'0:17.266',1091.242
'0:17.270',1079.489
'0:17.273',1068.429
'0:17.277',1058.099
'0:17.281',1048.682
'0:17.285',1040.140
'0:17.289',1032.366
'0:17.293',1025.284
'0:17.297',1019.079
'0:17.301',1014.152
'0:17.305',1010.757
'0:17.309',1008.968
'0:17.313',1008.567
'0:17.316',1009.151
'0:17.320',1010.355
'0:17.324',1012.107
'0:17.328',1014.407
'0:17.332',1017.546
'0:17.336',1021.707
'0:17.340',1027.183
'0:17.344',1033.899
'0:17.348',1041.820
'0:17.352',1050.726
'0:17.355',1060.362
'0:17.359',1070.546
'0:17.363',1081.131
'0:17.367',1092.155
'0:17.371',1103.616
'0:17.375',1115.589
'0:17.379',1128.109
'0:17.383',1140.993
'0:17.387',1153.988
'0:17.391',1166.727
'0:17.395',1179.210
'0:17.398',1191.475
'0:17.402',1203.776
'0:17.406',1216.332
'0:17.410',1229.144
'0:17.414',1241.956
'0:17.418',1254.622
'0:17.422',1266.996
'0:17.426',1278.859
'0:17.430',1290.101
'0:17.434',1300.541
'0:17.438',1309.921
'0:17.441',1317.915
'0:17.445',1324.522
'0:17.449',1329.778
'0:17.453',1333.793
'0:17.457',1336.604
'0:17.461',1338.429
'0:17.465',1339.451
'0:17.469',1340.071
'0:17.473',1340.436
'0:17.477',1340.619
'0:17.480',1340.546
'0:17.484',1340.400
'0:17.488',1340.509
'0:17.492',1341.167
'0:17.496',1342.627
'0:17.500',1344.963
'0:17.504',1348.138
'0:17.508',1352.080
'0:17.512',1356.570
'0:17.516',1361.352
'0:17.520',1366.133
'0:17.523',1370.696
'0:17.527',1374.967
'0:17.531',1378.945
'0:17.535',1382.705
'0:17.539',1386.319
'0:17.543',1389.859
'0:17.547',1393.363
'0:17.551',1396.904
'0:17.555',1400.591
'0:17.559',1404.533
'0:17.563',1408.803
'0:17.566',1413.585
'0:17.570',1418.987
'0:17.574',1425.229
'0:17.578',1432.383
'0:17.582',1440.486
'0:17.586',1449.575
'0:17.590',1459.650
'0:17.594',1470.564
'0:17.598',1482.207
'0:17.602',1494.253
'0:17.605',1506.444
'0:17.609',1518.526
'0:17.613',1530.170
'0:17.617',1541.011
'0:17.621',1550.830
'0:17.625',1559.663
'0:17.629',1567.876
'0:17.633',1575.724
'0:17.637',1583.425
'0:17.641',1591.018
'0:17.645',1598.282
'0:17.648',1604.961
'0:17.652',1610.874
'0:17.656',1615.912
'0:17.660',1620.292
'0:17.664',1624.270
'0:17.668',1628.249
'0:17.672',1632.374
'0:17.676',1636.644
'0:17.680',1640.915
'0:17.684',1644.930
'0:17.688',1648.507
'0:17.691',1651.464
'0:17.695',1653.654
'0:17.699',1655.078
'0:17.703',1655.625
'0:17.707',1655.260
'0:17.711',1653.909
'0:17.715',1651.573
'0:17.719',1648.325
'0:17.723',1644.273
'0:17.727',1639.674
'0:17.730',1634.783
'0:17.734',1629.892
'0:17.738',1625.000
'0:17.742',1620.146
'0:17.746',1615.291
'0:17.750',1610.400
'0:17.754',1605.436
'0:17.758',1600.216
'0:17.762',1594.631
'0:17.766',1588.718
'0:17.770',1582.622
'0:17.773',1576.381
'0:17.777',1570.066
'0:17.781',1563.824
'0:17.785',1557.802
'0:17.789',1552.180
'0:17.793',1547.034
'0:17.797',1542.325
'0:17.801',1537.981
'0:17.805',1533.893
'0:17.809',1529.805
'0:17.813',1525.461
'0:17.816',1520.753
'0:17.820',1515.533
'0:17.824',1509.948
'0:17.828',1504.072
'0:17.832',1498.049
'0:17.836',1492.099
'0:17.840',1486.405
'0:17.844',1480.930
'0:17.848',1475.637
'0:17.852',1470.345
'0:17.855',1464.723
'0:17.859',1458.555
'0:17.863',1451.729
'0:17.867',1444.210
'0:17.871',1436.179
'0:17.875',1427.821
'0:17.879',1419.279
'0:17.883',1410.665
'0:17.887',1402.087
'0:17.891',1393.546
'0:17.895',1385.151
'0:17.898',1377.011
'0:17.902',1369.199
'0:17.906',1361.753
'0:17.910',1354.672
'0:17.914',1347.846
'0:17.918',1341.313
'0:17.922',1334.998
'0:17.926',1328.866
'0:17.930',1322.952
'0:17.934',1317.185
'0:17.938',1311.637
'0:17.941',1306.527
'0:17.945',1301.928
'0:17.949',1297.985
'0:17.953',1294.773
'0:17.957',1292.401
'0:17.961',1290.868
'0:17.965',1290.028
'0:17.969',1289.773
'0:17.973',1289.992
'0:17.977',1290.612
'0:17.980',1291.634
'0:17.984',1293.167
'0:17.988',1295.321
'0:17.992',1298.131
'0:17.996',1301.490
'0:18.000',1305.213
'0:18.004',1309.191
'0:18.008',1313.316
'0:18.012',1317.587
'0:18.016',1321.967
'0:18.020',1326.274
'0:18.023',1330.253
'0:18.027',1333.793
'0:18.031',1336.932
'0:18.035',1339.962
'0:18.039',1343.065
'0:18.043',1346.313
'0:18.047',1349.744
'0:18.051',1353.321
'0:18.055',1357.081
'0:18.059',1361.023
'0:18.063',1365.257
'0:18.066',1369.747
'0:18.070',1374.346
'0:18.074',1378.909
'0:18.078',1383.143
'0:18.082',1386.757
'0:18.086',1389.677
'0:18.090',1391.757
'0:18.094',1392.925
'0:18.098',1393.108
'0:18.102',1392.487
'0:18.105',1391.319
'0:18.109',1389.859
'0:18.113',1388.326
'0:18.117',1386.866
'0:18.121',1385.479
'0:18.125',1384.202
'0:18.129',1382.924
'0:18.133',1381.537
'0:18.137',1379.821
'0:18.141',1377.741
'0:18.145',1375.259
'0:18.148',1372.594
'0:18.152',1370.003
'0:18.156',1367.630
'0:18.160',1365.586
'0:18.164',1363.651
'0:18.168',1361.388
'0:18.172',1358.359
'0:18.176',1354.234
'0:18.180',1348.905
'0:18.184',1342.590
'0:18.188',1335.618
'0:18.191',1328.245
'0:18.195',1320.470
'0:18.199',1312.330
'0:18.203',1303.680
'0:18.207',1294.554
'0:18.211',1285.174
'0:18.215',1275.866
'0:18.219',1266.959
'0:18.223',1258.528
'0:18.227',1250.607
'0:18.230',1243.015
'0:18.234',1235.422
'0:18.238',1227.538
'0:18.242',1219.252
'0:18.246',1210.674
'0:18.250',1201.987
'0:18.254',1193.446
'0:18.258',1185.124
'0:18.262',1177.093
'0:18.266',1169.318
'0:18.270',1161.836
'0:18.273',1154.900
'0:18.277',1148.695
'0:18.281',1143.512
'0:18.285',1139.533
'0:18.289',1136.723
'0:18.293',1134.898
'0:18.297',1133.839
'0:18.301',1133.328
'0:18.305',1133.255
'0:18.309',1133.547
'0:18.313',1134.204
'0:18.316',1135.117
'0:18.320',1136.248
'0:18.324',1137.416
'0:18.328',1138.548
'0:18.332',1139.570
'0:18.336',1140.592
'0:18.340',1141.578
'0:18.344',1142.636
'0:18.348',1143.841
'0:18.352',1145.155
'0:18.355',1146.578
'0:18.359',1148.075
'0:18.363',1149.498
'0:18.367',1150.812
'0:18.371',1152.017
'0:18.375',1153.258
'0:18.379',1154.572
'0:18.383',1155.923
'0:18.387',1157.200
'0:18.391',1158.441
'0:18.395',1159.755
'0:18.398',1161.325
'0:18.402',1163.259
'0:18.406',1165.705
'0:18.410',1168.698
'0:18.414',1172.166
'0:18.418',1176.035
'0:18.422',1180.269
'0:18.426',1184.905
'0:18.430',1190.051
'0:18.434',1195.745
'0:18.438',1201.805
'0:18.441',1208.010
'0:18.445',1214.325
'0:18.449',1220.858
'0:18.453',1227.757
'0:18.457',1235.130
'0:18.461',1243.015
'0:18.465',1251.300
'0:18.469',1259.805
'0:18.473',1268.456
'0:18.477',1276.924
'0:18.480',1285.064
'0:18.484',1292.656
'0:18.488',1299.482
'0:18.492',1305.578
'0:18.496',1310.980
'0:18.500',1315.871
'0:18.504',1320.361
'0:18.508',1324.449
'0:18.512',1328.099
'0:18.516',1331.275
'0:18.520',1333.866
'0:18.523',1335.910
'0:18.527',1337.553
'0:18.531',1338.940
'0:18.535',1340.327
'0:18.539',1341.970
'0:18.543',1344.160
'0:18.547',1347.043
'0:18.551',1350.657
'0:18.555',1354.927
'0:18.559',1359.819
'0:18.563',1365.330
'0:18.566',1371.280
'0:18.570',1377.631
'0:18.574',1384.238
'0:18.578',1390.991
'0:18.582',1397.816
'0:18.586',1404.496
'0:18.590',1411.030
'0:18.594',1417.491
'0:18.598',1424.061
'0:18.602',1430.777
'0:18.605',1437.712
'0:18.609',1444.721
'0:18.613',1451.875
'0:18.617',1458.993
'0:18.621',1466.110
'0:18.625',1473.192
'0:18.629',1480.236
'0:18.633',1487.245
'0:18.637',1494.216
'0:18.641',1501.225
'0:18.645',1508.269
'0:18.648',1515.278
'0:18.652',1521.921
'0:18.656',1528.017
'0:18.660',1533.273
'0:18.664',1537.762
'0:18.668',1541.632
'0:18.672',1545.172
'0:18.676',1548.676
'0:18.680',1552.363
'0:18.684',1556.159
'0:18.688',1560.028
'0:18.691',1563.824
'0:18.695',1567.584
'0:18.699',1571.380
'0:18.703',1575.468
'0:18.707',1579.885
'0:18.711',1584.630
'0:18.715',1589.594
'0:18.719',1594.668
'0:18.723',1599.705
'0:18.727',1604.596
'0:18.730',1609.378
'0:18.734',1614.087
'0:18.738',1618.868
'0:18.742',1623.723
'0:18.746',1628.614
'0:18.750',1633.250
'0:18.754',1637.301
'0:18.758',1640.623
'0:18.762',1643.178
'0:18.766',1645.113
'0:18.770',1646.646
'0:18.773',1647.741
'0:18.777',1648.179
'0:18.781',1647.741
'0:18.785',1646.281
'0:18.789',1644.018
'0:18.793',1641.353
'0:18.797',1638.652
'0:18.801',1636.133
'0:18.805',1633.761
'0:18.809',1631.315
'0:18.813',1628.468
'0:18.816',1624.818
'0:18.820',1620.219
'0:18.824',1614.780
'0:18.828',1608.757
'0:18.832',1602.516
'0:18.836',1596.420
'0:18.840',1590.653
'0:18.844',1585.360
'0:18.848',1580.651
'0:18.852',1576.344
'0:18.855',1572.256
'0:18.859',1568.241
'0:18.863',1564.080
'0:18.867',1559.846
'0:18.871',1555.575
'0:18.875',1551.341
'0:18.879',1547.289
'0:18.883',1543.493
'0:18.887',1539.843
'0:18.891',1536.339
'0:18.895',1532.798
'0:18.898',1529.258
'0:18.902',1525.717
'0:18.906',1522.140
'0:18.910',1518.563
'0:18.914',1514.986
'0:18.918',1511.335
'0:18.922',1507.576
'0:18.926',1503.488
'0:18.930',1498.889
'0:18.934',1493.669
'0:18.938',1487.756
'0:18.941',1481.185
'0:18.945',1474.031
'0:18.949',1466.402
'0:18.953',1458.409
'0:18.957',1450.159
'0:18.961',1441.618
'0:18.965',1432.967
'0:18.969',1424.426
'0:18.973',1416.213
'0:18.977',1408.511
'0:18.980',1401.321
'0:18.984',1394.568
'0:18.988',1388.290
'0:18.992',1382.376
'0:18.996',1376.646
'0:19.000',1370.879
'0:19.004',1365.002
'0:19.008',1359.089
'0:19.012',1353.248
'0:19.016',1347.810
'0:19.020',1342.955
'0:19.023',1338.757
'0:19.027',1335.217
'0:19.031',1332.187
'0:19.035',1329.669
'0:19.039',1327.698
'0:19.043',1326.310
'0:19.047',1325.763
'0:19.051',1326.274
'0:19.055',1328.063
'0:19.059',1331.202
'0:19.063',1335.618
'0:19.066',1341.130
'0:19.070',1347.773
'0:19.074',1355.512
'0:19.078',1364.272
'0:19.082',1373.689
'0:19.086',1383.289
'0:19.090',1392.633
'0:19.094',1401.540
'0:19.098',1410.008
'0:19.102',1418.184
'0:19.105',1425.922
'0:19.109',1432.967
'0:19.113',1439.063
'0:19.117',1444.027
'0:19.121',1447.896
'0:19.125',1450.926
'0:19.129',1453.408
'0:19.133',1455.781
'0:19.137',1458.190
'0:19.141',1460.854
'0:19.145',1463.774
'0:19.148',1466.986
'0:19.152',1470.345
'0:19.156',1473.703
'0:19.160',1476.696
'0:19.164',1479.105
'0:19.168',1480.747
'0:19.172',1481.623
'0:19.176',1481.806
'0:19.180',1481.514
'0:19.184',1480.820
'0:19.188',1480.017
'0:19.191',1479.141
'0:19.195',1478.302
'0:19.199',1477.316
'0:19.203',1476.075
'0:19.207',1474.360
'0:19.211',1471.914
'0:19.215',1468.592
'0:19.219',1464.212
'0:19.223',1458.847
'0:19.227',1452.678
'0:19.230',1445.852
'0:19.234',1438.406
'0:19.238',1430.376
'0:19.242',1421.688
'0:19.246',1412.417
'0:19.250',1402.781
'0:19.254',1392.998
'0:19.258',1383.216
'0:19.262',1373.470
'0:19.266',1363.615
'0:19.270',1353.431
'0:19.273',1342.809
'0:19.277',1331.859
'0:19.281',1320.762
'0:19.285',1309.739
'0:19.289',1298.898
'0:19.293',1288.130
'0:19.297',1277.216
'0:19.301',1266.010
'0:19.305',1254.439
'0:19.309',1242.759
'0:19.313',1231.261
'0:19.316',1220.128
'0:19.320',1209.470
'0:19.324',1199.250
'0:19.328',1189.431
'0:19.332',1179.831
'0:19.336',1170.304
'0:19.340',1160.814
'0:19.344',1151.542
'0:19.348',1142.782
'0:19.352',1134.898
'0:19.355',1127.999
'0:19.359',1122.013
'0:19.363',1116.793
'0:19.367',1112.303
'0:19.371',1108.507
'0:19.375',1105.368
'0:19.379',1102.886
'0:19.383',1101.098
'0:19.387',1099.930
'0:19.391',1099.419
'0:19.395',1099.528
'0:19.398',1100.185
'0:19.402',1101.244
'0:19.406',1102.485
'0:19.410',1103.653
'0:19.414',1104.456
'0:19.418',1104.748
'0:19.422',1104.492
'0:19.426',1103.945
'0:19.430',1103.324
'0:19.434',1102.850
'0:19.438',1102.667
'0:19.441',1102.850
'0:19.445',1103.616
'0:19.449',1105.186
'0:19.453',1107.485
'0:19.457',1110.551
'0:19.461',1114.348
'0:19.465',1119.093
'0:19.469',1124.860
'0:19.473',1131.759
'0:19.477',1139.971
'0:19.480',1149.498
'0:19.484',1160.193
'0:19.488',1171.618
'0:19.492',1183.335
'0:19.496',1194.979
'0:19.500',1206.586
'0:19.504',1218.267
'0:19.508',1230.130
'0:19.512',1242.066
'0:19.516',1253.928
'0:19.520',1265.645
'0:19.523',1277.107
'0:19.527',1288.094
'0:19.531',1298.314
'0:19.535',1307.585
'0:19.539',1315.652
'0:19.543',1322.514
'0:19.547',1328.391
'0:19.551',1333.428
'0:19.555',1337.662
'0:19.559',1341.167
'0:19.563',1344.087
'0:19.566',1346.532
'0:19.570',1348.759
'0:19.574',1350.803
'0:19.578',1352.701
'0:19.582',1354.562
'0:19.586',1356.424
'0:19.590',1358.322
'0:19.594',1360.439
'0:19.598',1362.812
'0:19.602',1365.549
'0:19.605',1368.615
'0:19.609',1372.010
'0:19.613',1375.697
'0:19.617',1379.493
'0:19.621',1383.362
'0:19.625',1387.158
'0:19.629',1390.881
'0:19.633',1394.495
'0:19.637',1398.036
'0:19.641',1401.394
'0:19.645',1404.423
'0:19.648',1407.051
'0:19.652',1409.278
'0:19.656',1411.212
'0:19.660',1413.038
'0:19.664',1414.863
'0:19.668',1416.870
'0:19.672',1419.170
'0:19.676',1421.980
'0:19.680',1425.448
'0:19.684',1429.573
'0:19.688',1434.281
'0:19.691',1439.501
'0:19.695',1445.232
'0:19.699',1451.546
'0:19.703',1458.591
'0:19.707',1466.256
'0:19.711',1474.506
'0:19.715',1483.193
'0:19.719',1492.245
'0:19.723',1501.553
'0:19.727',1510.934
'0:19.730',1520.169
'0:19.734',1529.112
'0:19.738',1537.689
'0:19.742',1545.683
'0:19.746',1553.056
'0:19.750',1559.955
'0:19.754',1566.671
'0:19.758',1573.461
'0:19.762',1580.359
'0:19.766',1587.258
'0:19.770',1594.266
'0:19.773',1601.457
'0:19.777',1608.976
'0:19.781',1616.751
'0:19.785',1624.708
'0:19.789',1632.812
'0:19.793',1641.061
'0:19.797',1649.347
'0:19.801',1657.706
'0:19.805',1666.064
'0:19.809',1674.277
'0:19.813',1682.234
'0:19.816',1689.827
'0:19.820',1697.017
'0:19.824',1703.880
'0:19.828',1710.413
'0:19.832',1716.473
'0:19.836',1721.948
'0:19.840',1726.584
'0:19.844',1730.124
'0:19.848',1732.424
'0:19.852',1733.263
'0:19.855',1732.497
'0:19.859',1730.161
'0:19.863',1726.292
'0:19.867',1721.218
'0:19.871',1715.159
'0:19.875',1708.369
'0:19.879',1700.923
'0:19.883',1693.002
'0:19.887',1684.607
'0:19.891',1675.810
'0:19.895',1666.612
'0:19.898',1656.903
'0:19.902',1646.719
'0:19.906',1636.024
'0:19.910',1624.964
'0:19.914',1613.758
'0:19.918',1602.516
'0:19.922',1591.346
'0:19.926',1580.250
'0:19.930',1569.336
'0:19.934',1558.714
'0:19.938',1548.384
'0:19.941',1538.237
'0:19.945',1528.163
'0:19.949',1518.088
'0:19.953',1508.123
'0:19.957',1498.414
'0:19.961',1488.997
'0:19.965',1480.090
'0:19.969',1471.695
'0:19.973',1463.701
'0:19.977',1455.963
'0:19.980',1448.444
'0:19.984',1441.180
'0:19.988',1434.318
'0:19.992',1427.930
'0:19.996',1422.053
'0:20.000',1416.724
'0:20.004',1411.833
'0:20.008',1407.270
'0:20.012',1402.963
'0:20.016',1398.948
'0:20.020',1395.298
'0:20.023',1392.049
'0:20.027',1389.166
'0:20.031',1386.574
'0:20.035',1384.165
'0:20.039',1381.938
'0:20.043',1379.821
'0:20.047',1377.850
'0:20.051',1375.916
'0:20.055',1373.981
'0:20.059',1372.010
'0:20.063',1370.039
'0:20.066',1368.104
'0:20.070',1366.279
'0:20.074',1364.673
'0:20.078',1363.505
'0:20.082',1362.848
'0:20.086',1362.848
'0:20.090',1363.396
'0:20.094',1364.345
'0:20.098',1365.513
'0:20.102',1366.754
'0:20.105',1368.177
'0:20.109',1370.003
'0:20.113',1372.375
'0:20.117',1375.441
'0:20.121',1379.201
'0:20.125',1383.508
'0:20.129',1388.290
'0:20.133',1393.290
'0:20.137',1398.328
'0:20.141',1403.328
'0:20.145',1408.329
'0:20.148',1413.366
'0:20.152',1418.549
'0:20.156',1423.842
'0:20.160',1429.244
'0:20.164',1434.719
'0:20.168',1440.194
'0:20.172',1445.779
'0:20.176',1451.327
'0:20.180',1456.876
'0:20.184',1462.278
'0:20.188',1467.570
'0:20.191',1472.644
'0:20.195',1477.572
'0:20.199',1482.426
'0:20.203',1487.172
'0:20.207',1491.771
'0:20.211',1496.297
'0:20.215',1500.969
'0:20.219',1505.787
'0:20.223',1510.751
'0:20.227',1515.570
'0:20.230',1519.950
'0:20.234',1523.746
'0:20.238',1526.849
'0:20.242',1529.367
'0:20.246',1531.448
'0:20.250',1533.017
'0:20.254',1534.112
'0:20.258',1534.587
'0:20.262',1534.222
'0:20.266',1532.944
'0:20.270',1530.535
'0:20.273',1526.885
'0:20.277',1521.994
'0:20.281',1515.898
'0:20.285',1508.671
'0:20.289',1500.495
'0:20.293',1491.552
'0:20.297',1482.171
'0:20.301',1472.389
'0:20.305',1462.168
'0:20.309',1451.291
'0:20.313',1439.902
'0:20.316',1428.186
'0:20.320',1416.469
'0:20.324',1404.971
'0:20.328',1393.655
'0:20.332',1382.376
'0:20.336',1370.952
'0:20.340',1359.308
'0:20.344',1347.481
'0:20.348',1335.618
'0:20.352',1323.646
'0:20.355',1311.673
'0:20.359',1299.884
'0:20.363',1288.532
'0:20.367',1277.654
'0:20.371',1267.069
'0:20.375',1256.557
'0:20.379',1245.935
'0:20.383',1235.422
'0:20.387',1225.202
'0:20.391',1215.566
'0:20.395',1206.367
'0:20.398',1197.534
'0:20.402',1189.066
'0:20.406',1181.145
'0:20.410',1173.918
'0:20.414',1167.603
'0:20.418',1162.128
'0:20.422',1157.419
'0:20.426',1153.221
'0:20.430',1149.316
'0:20.434',1145.447
'0:20.438',1141.468
'0:20.441',1137.197
'0:20.445',1132.379
'0:20.449',1126.794
'0:20.453',1120.480
'0:20.457',1113.326
'0:20.461',1105.405
'0:20.465',1096.863
'0:20.469',1087.957
'0:20.473',1078.941
'0:20.477',1069.999
'0:20.480',1061.238
'0:20.484',1052.843
'0:20.488',1045.032
'0:20.492',1037.841
'0:20.496',1031.453
'0:20.500',1026.087
'0:20.504',1021.963
'0:20.508',1019.189
'0:20.512',1017.729
'0:20.516',1017.437
'0:20.520',1018.203
'0:20.523',1020.028
'0:20.527',1022.912
'0:20.531',1026.817
'0:20.535',1031.672
'0:20.539',1037.403
'0:20.543',1043.827
'0:20.547',1050.908
'0:20.551',1058.683
'0:20.555',1067.115
'0:20.559',1076.277
'0:20.563',1086.351
'0:20.566',1097.520
'0:20.570',1109.894
'0:20.574',1123.400
'0:20.578',1137.489
'0:20.582',1151.652
'0:20.586',1165.376
'0:20.590',1178.444
'0:20.594',1190.854
'0:20.598',1202.681
'0:20.602',1214.069
'0:20.605',1225.202
'0:20.609',1236.225
'0:20.613',1247.176
'0:20.617',1257.944
'0:20.621',1268.273
'0:20.625',1277.837
'0:20.629',1286.342
'0:20.633',1293.715
'0:20.637',1300.176
'0:20.641',1306.162
'0:20.645',1312.111
'0:20.648',1318.353
'0:20.652',1324.814
'0:20.656',1331.092
'0:20.660',1336.567
'0:20.664',1340.728
'0:20.668',1343.320
'0:20.672',1344.415
'0:20.676',1344.342
'0:20.680',1343.576
'0:20.684',1342.736
'0:20.688',1342.152
'0:20.691',1342.152
'0:20.695',1342.773
'0:20.699',1344.050
'0:20.703',1345.948
'0:20.707',1348.467
'0:20.711',1351.569
'0:20.715',1355.293
'0:20.719',1359.709
'0:20.723',1364.856
'0:20.727',1370.696
'0:20.730',1377.120
'0:20.734',1384.019
'0:20.738',1391.100
'0:20.742',1398.218
'0:20.746',1405.299
'0:20.750',1412.161
'0:20.754',1418.841
'0:20.758',1425.375
'0:20.762',1431.909
'0:20.766',1438.552
'0:20.770',1445.378
'0:20.773',1452.386
'0:20.777',1459.577
'0:20.781',1467.132
'0:20.785',1475.236
'0:20.789',1483.850
'0:20.793',1492.793
'0:20.797',1501.809
'0:20.801',1510.569
'0:20.805',1518.855
'0:20.809',1526.520
'0:20.813',1533.528
'0:20.816',1540.135
'0:20.820',1546.523
'0:20.824',1553.020
'0:20.828',1559.809
'0:20.832',1566.927
'0:20.836',1574.556
'0:20.840',1582.805
'0:20.844',1591.675
'0:20.848',1601.202
'0:20.852',1611.385
'0:20.855',1622.190
'0:20.859',1633.505
'0:20.863',1645.186
'0:20.867',1657.231
'0:20.871',1669.496
'0:20.875',1681.942
'0:20.879',1694.462
'0:20.883',1706.982
'0:20.887',1719.283
'0:20.891',1731.219
'0:20.895',1742.608
'0:20.898',1753.302
'0:20.902',1763.340
'0:20.906',1772.758
'0:20.910',1781.591
'0:20.914',1789.840
'0:20.918',1797.323
'0:20.922',1803.857
'0:20.926',1809.149
'0:20.930',1813.165
'0:20.934',1815.902
'0:20.938',1817.362
'0:20.941',1817.581
'0:20.945',1816.559
'0:20.949',1814.442
'0:20.953',1811.376
'0:20.957',1807.507
'0:20.961',1802.835
'0:20.965',1797.542
'0:20.969',1791.665
'0:20.973',1785.132
'0:20.977',1777.868
'0:20.980',1769.838
'0:20.984',1761.077
'0:20.988',1751.733
'0:20.992',1741.805
'0:20.996',1731.219
'0:21.000',1719.831
'0:21.004',1707.603
'0:21.008',1694.353
'0:21.012',1680.117
'0:21.016',1665.115
'0:21.020',1649.602
'0:21.023',1633.797
'0:21.027',1617.773
'0:21.031',1601.603
'0:21.035',1585.324
'0:21.039',1568.861
'0:21.043',1552.144
'0:21.047',1534.915
'0:21.051',1517.176
'0:21.055',1498.925
'0:21.059',1480.236
'0:21.063',1461.219
'0:21.066',1442.093
'0:21.070',1423.039
'0:21.074',1404.314
'0:21.078',1386.173
'0:21.082',1368.798
'0:21.086',1352.299
'0:21.090',1336.713
'0:21.094',1322.149
'0:21.098',1308.607
'0:21.102',1296.306
'0:21.105',1285.210
'0:21.109',1275.318
'0:21.113',1266.375
'0:21.117',1258.090
'0:21.121',1250.205
'0:21.125',1242.796
'0:21.129',1236.006
'0:21.133',1229.911
'0:21.137',1224.691
'0:21.141',1220.493
'0:21.145',1217.172
'0:21.148',1214.471
'0:21.152',1212.134
'0:21.156',1210.163
'0:21.160',1208.630
'0:21.164',1207.791
'0:21.168',1207.718
'0:21.172',1208.448
'0:21.176',1210.127
'0:21.180',1212.938
'0:21.184',1217.026
'0:21.188',1222.355
'0:21.191',1228.743
'0:21.195',1235.933
'0:21.199',1243.672
'0:21.203',1251.848
'0:21.207',1260.462
'0:21.211',1269.478
'0:21.215',1279.005
'0:21.219',1289.298
'0:21.223',1300.650
'0:21.227',1313.535
'0:21.230',1328.391
'0:21.234',1345.474
'0:21.238',1364.746
'0:21.242',1385.954
'0:21.246',1408.621
'0:21.250',1432.310
'0:21.254',1456.730
'0:21.258',1481.806
'0:21.262',1507.466
'0:21.266',1533.601
'0:21.270',1559.809
'0:21.273',1585.616
'0:21.277',1610.546
'0:21.281',1634.272
'0:21.285',1656.574
'0:21.289',1677.197
'0:21.293',1695.740
'0:21.297',1711.837
'0:21.301',1725.123
'0:21.305',1735.234
'0:21.309',1741.987
'0:21.313',1745.309
'0:21.316',1745.309
'0:21.320',1742.170
'0:21.324',1736.147
'0:21.328',1727.460
'0:21.332',1716.509
'0:21.336',1703.770
'0:21.340',1689.754
'0:21.344',1674.788
'0:21.348',1659.239
'0:21.352',1643.288
'0:21.355',1627.045
'0:21.359',1610.546
'0:21.363',1593.901
'0:21.367',1577.111
'0:21.371',1560.211
'0:21.375',1543.274
'0:21.379',1526.447
'0:21.383',1509.766
'0:21.387',1493.121
'0:21.391',1476.367
'0:21.395',1459.248
'0:21.398',1441.618
'0:21.402',1423.623
'0:21.406',1405.409
'0:21.410',1387.304
'0:21.414',1369.418
'0:21.418',1351.752
'0:21.422',1334.122
'0:21.426',1316.492
'0:21.430',1298.643
'0:21.434',1280.392
'0:21.438',1261.667
'0:21.441',1242.321
'0:21.445',1222.464
'0:21.449',1202.352
'0:21.453',1182.130
'0:21.457',1161.945
'0:21.461',1141.760
'0:21.465',1121.465
'0:21.469',1100.842
'0:21.473',1079.781
'0:21.477',1058.464
'0:21.480',1037.220
'0:21.484',1016.488
'0:21.488',996.667
'0:21.492',978.161
'0:21.496',961.334
'0:21.500',946.624
'0:21.504',934.141
'0:21.508',923.811
'0:21.512',915.416
'0:21.516',908.626
'0:21.520',903.188
'0:21.523',898.990
'0:21.527',895.997
'0:21.531',894.208
'0:21.535',893.661
'0:21.539',894.500
'0:21.543',896.836
'0:21.547',900.815
'0:21.551',906.400
'0:21.555',913.591
'0:21.559',922.314
'0:21.563',932.243
'0:21.566',943.047
'0:21.570',954.326
'0:21.574',965.787
'0:21.578',977.322
'0:21.582',988.893
'0:21.586',1000.646
'0:21.590',1012.801
'0:21.594',1025.540
'0:21.598',1038.863
'0:21.602',1052.697
'0:21.605',1066.823
'0:21.609',1080.839
'0:21.613',1094.454
'0:21.617',1107.266
'0:21.621',1119.056
'0:21.625',1129.861
'0:21.629',1139.898
'0:21.633',1149.535
'0:21.637',1159.062
'0:21.641',1168.625
'0:21.645',1178.261
'0:21.648',1187.861
'0:21.652',1197.388
'0:21.656',1206.842
'0:21.660',1216.040
'0:21.664',1225.019
'0:21.668',1233.853
'0:21.672',1242.540
'0:21.676',1251.081
'0:21.680',1259.367
'0:21.684',1267.251
'0:21.688',1274.734
'0:21.691',1281.779
'0:21.695',1288.459
'0:21.699',1294.883
'0:21.703',1301.161
'0:21.707',1307.439
'0:21.711',1313.754
'0:21.715',1320.069
'0:21.719',1326.347
'0:21.723',1332.479
'0:21.727',1338.246
'0:21.730',1343.466
'0:21.734',1348.175
'0:21.738',1352.482
'0:21.742',1356.753
'0:21.746',1361.206
'0:21.750',1366.060
'0:21.754',1371.353
'0:21.758',1377.084
'0:21.762',1383.106
'0:21.766',1389.275
'0:21.770',1395.407
'0:21.773',1401.357
'0:21.777',1406.942
'0:21.781',1412.271
'0:21.785',1417.527
'0:21.789',1422.966
'0:21.793',1428.697
'0:21.797',1434.719
'0:21.801',1440.998
'0:21.805',1447.604
'0:21.809',1454.503
'0:21.813',1461.657
'0:21.816',1469.140
'0:21.820',1476.915
'0:21.824',1484.982
'0:21.828',1493.340
'0:21.832',1501.991
'0:21.836',1511.043
'0:21.840',1520.570
'0:21.844',1530.645
'0:21.848',1541.303
'0:21.852',1552.728
'0:21.855',1565.029
'0:21.859',1578.133
'0:21.863',1591.748
'0:21.867',1605.509
'0:21.871',1619.160
'0:21.875',1632.556
'0:21.879',1645.660
'0:21.883',1658.472
'0:21.887',1670.919
'0:21.891',1683.037
'0:21.895',1694.791
'0:21.898',1706.179
'0:21.902',1717.093
'0:21.906',1727.350
'0:21.910',1736.950
'0:21.914',1745.747
'0:21.918',1753.923
'0:21.922',1761.442
'0:21.926',1768.268
'0:21.930',1774.437
'0:21.934',1779.985
'0:21.938',1784.986
'0:21.941',1789.694
'0:21.945',1794.330
'0:21.949',1799.148
'0:21.953',1804.295
'0:21.957',1809.879
'0:21.961',1816.048
'0:21.965',1822.874
'0:21.969',1830.320
'0:21.973',1838.241
'0:21.977',1846.308
'0:21.980',1854.228
'0:21.984',1861.529
'0:21.988',1867.843
'0:21.992',1872.917
'0:21.996',1876.713
'0:22.000',1879.195
'0:22.004',1880.290
'0:22.008',1879.852
'0:22.012',1877.626
'0:22.016',1873.501
'0:22.020',1867.515
'0:22.023',1859.923
'0:22.027',1851.016
'0:22.031',1840.979
'0:22.035',1829.955
'0:22.039',1817.983
'0:22.043',1805.061
'0:22.047',1791.045
'0:22.051',1775.824
'0:22.055',1759.325
'0:22.059',1741.549
'0:22.063',1722.641
'0:22.066',1702.712
'0:22.070',1681.833
'0:22.074',1660.078
'0:22.078',1637.411
'0:22.082',1614.087
'0:22.086',1590.397
'0:22.090',1566.781
'0:22.094',1543.530
'0:22.098',1520.789
'0:22.102',1498.524
'0:22.105',1476.878
'0:22.109',1455.890
'0:22.113',1435.668
'0:22.117',1416.213
'0:22.121',1397.488
'0:22.125',1379.602
'0:22.129',1362.520
'0:22.133',1346.386
'0:22.137',1331.238
'0:22.141',1317.258
'0:22.145',1304.483
'0:22.148',1292.839
'0:22.152',1282.290
'0:22.156',1272.654
'0:22.160',1263.674
'0:22.164',1255.206
'0:22.168',1247.103
'0:22.172',1239.255
'0:22.176',1231.699
'0:22.180',1224.508
'0:22.184',1218.048
'0:22.188',1212.463
'0:22.191',1208.010
'0:22.195',1204.688
'0:22.199',1202.608
'0:22.203',1201.805
'0:22.207',1202.462
'0:22.211',1204.761
'0:22.215',1208.557
'0:22.219',1213.631
'0:22.223',1219.800
'0:22.227',1227.100
'0:22.230',1235.422
'0:22.234',1244.657
'0:22.238',1254.585
'0:22.242',1264.988
'0:22.246',1275.829
'0:22.250',1287.145
'0:22.254',1299.044
'0:22.258',1311.418
'0:22.262',1324.193
'0:22.266',1337.188
'0:22.270',1350.182
'0:22.273',1362.994
'0:22.277',1375.441
'0:22.281',1387.450
'0:22.285',1399.021
'0:22.289',1410.081
'0:22.293',1420.520
'0:22.297',1430.157
'0:22.301',1438.807
'0:22.305',1446.400
'0:22.309',1452.860
'0:22.313',1458.263
'0:22.316',1462.679
'0:22.320',1466.110
'0:22.324',1468.629
'0:22.328',1470.345
'0:22.332',1471.403
'0:22.336',1472.097
'0:22.340',1472.571
'0:22.344',1472.827
'0:22.348',1472.790
'0:22.352',1472.535
'0:22.355',1472.024
'0:22.359',1471.294
'0:22.363',1470.162
'0:22.367',1468.410
'0:22.371',1465.891
'0:22.375',1462.643
'0:22.379',1458.774
'0:22.383',1454.466
'0:22.387',1450.013
'0:22.391',1445.816
'0:22.395',1442.056
'0:22.398',1438.698
'0:22.402',1435.668
'0:22.406',1432.748
'0:22.410',1429.901
'0:22.414',1426.872
'0:22.418',1423.404
'0:22.422',1419.352
'0:22.426',1414.571
'0:22.430',1408.986
'0:22.434',1402.562
'0:22.438',1395.480
'0:22.441',1387.998
'0:22.445',1380.478
'0:22.449',1373.288
'0:22.453',1366.608
'0:22.457',1360.476
'0:22.461',1354.781
'0:22.465',1349.416
'0:22.469',1344.306
'0:22.473',1339.378
'0:22.477',1334.633
'0:22.480',1330.034
'0:22.484',1325.580
'0:22.488',1321.200
'0:22.492',1316.857
'0:22.496',1312.659
'0:22.500',1308.607
'0:22.504',1304.702
'0:22.508',1300.979
'0:22.512',1297.657
'0:22.516',1294.846
'0:22.520',1292.766
'0:22.523',1291.488
'0:22.527',1291.050
'0:22.531',1291.160
'0:22.535',1291.707
'0:22.539',1292.583
'0:22.543',1293.751
'0:22.547',1295.175
'0:22.551',1296.708
'0:22.555',1298.168
'0:22.559',1299.446
'0:22.563',1300.431
'0:22.566',1301.198
'0:22.570',1301.818
'0:22.574',1302.512
'0:22.578',1303.424
'0:22.582',1304.519
'0:22.586',1305.651
'0:22.590',1306.600
'0:22.594',1307.293
'0:22.598',1307.549
'0:22.602',1307.403
'0:22.605',1306.673
'0:22.609',1305.286
'0:22.613',1303.169
'0:22.617',1300.212
'0:22.621',1296.197
'0:22.625',1290.904
'0:22.629',1284.152
'0:22.633',1275.939
'0:22.637',1266.375
'0:22.641',1255.535
'0:22.645',1243.526
'0:22.648',1230.641
'0:22.652',1217.391
'0:22.656',1204.287
'0:22.660',1191.913
'0:22.664',1180.488
'0:22.668',1170.268
'0:22.672',1161.434
'0:22.676',1154.389
'0:22.680',1149.316
'0:22.684',1146.286
'0:22.688',1145.228
'0:22.691',1145.994
'0:22.695',1148.403
'0:22.699',1152.345
'0:22.703',1157.638
'0:22.707',1164.062
'0:22.711',1171.290
'0:22.715',1178.955
'0:22.719',1186.438
'0:22.723',1193.263
'0:22.727',1198.958
'0:22.730',1203.374
'0:22.734',1206.513
'0:22.738',1208.557
'0:22.742',1209.908
'0:22.746',1210.820
'0:22.750',1211.295
'0:22.754',1211.258
'0:22.758',1210.346
'0:22.762',1208.594
'0:22.766',1206.331
'0:22.770',1204.104
'0:22.773',1202.498
'0:22.777',1202.060
'0:22.781',1203.009
'0:22.785',1205.418
'0:22.789',1209.178
'0:22.793',1213.887
'0:22.797',1219.216
'0:22.801',1225.019
'0:22.805',1231.371
'0:22.809',1238.306
'0:22.813',1245.935
'0:22.816',1254.220
'0:22.820',1263.090
'0:22.824',1272.435
'0:22.828',1282.253
'0:22.832',1292.364
'0:22.836',1302.694
'0:22.840',1313.024
'0:22.844',1323.317
'0:22.848',1333.465
'0:22.852',1343.539
'0:22.855',1353.759
'0:22.859',1364.454
'0:22.863',1375.843
'0:22.867',1388.034
'0:22.871',1400.919
'0:22.875',1414.133
'0:22.879',1427.273
'0:22.883',1439.939
'0:22.887',1451.984
'0:22.891',1463.446
'0:22.895',1474.615
'0:22.898',1485.493
'0:22.902',1496.005
'0:22.906',1506.152
'0:22.910',1515.971
'0:22.914',1525.498
'0:22.918',1534.696
'0:22.922',1543.676
'0:22.926',1552.436
'0:22.930',1561.196
'0:22.934',1569.957
'0:22.938',1578.826
'0:22.941',1587.769
'0:22.945',1596.675
'0:22.949',1605.436
'0:22.953',1613.758
'0:22.957',1621.314
'0:22.961',1627.738
'0:22.965',1632.629
'0:22.969',1635.622
'0:22.973',1636.462
'0:22.977',1635.038
'0:22.980',1631.352
'0:22.984',1625.548
'0:22.988',1617.919
'0:22.992',1608.721
'0:22.996',1598.099
'0:23.000',1586.273
'0:23.004',1573.570
'0:23.008',1560.393
'0:23.012',1547.034
'0:23.016',1533.820
'0:23.020',1521.008
'0:23.023',1508.744
'0:23.027',1497.136
'0:23.031',1486.223
'0:23.035',1476.039
'0:23.039',1466.694
'0:23.043',1458.226
'0:23.047',1450.670
'0:23.051',1444.100
'0:23.055',1438.442
'0:23.059',1433.770
'0:23.063',1430.011
'0:23.066',1427.237
'0:23.070',1425.448
'0:23.074',1424.499
'0:23.078',1424.243
'0:23.082',1424.608
'0:23.086',1425.557
'0:23.090',1427.127
'0:23.094',1429.317
'0:23.098',1432.055
'0:23.102',1435.157
'0:23.105',1438.479
'0:23.109',1441.947
'0:23.113',1445.341
'0:23.117',1448.444
'0:23.121',1451.145
'0:23.125',1453.444
'0:23.129',1455.452
'0:23.133',1457.387
'0:23.137',1459.431
'0:23.141',1461.548
'0:23.145',1463.592
'0:23.148',1465.453
'0:23.152',1466.986
'0:23.156',1468.045
'0:23.160',1468.592
'0:23.164',1468.519
'0:23.168',1467.680
'0:23.172',1465.891
'0:23.176',1463.044
'0:23.180',1458.920
'0:23.184',1453.408
'0:23.188',1446.655
'0:23.191',1438.917
'0:23.195',1430.704
'0:23.199',1422.309
'0:23.203',1413.987
'0:23.207',1405.883
'0:23.211',1397.962
'0:23.215',1390.297
'0:23.219',1383.033
'0:23.223',1376.208
'0:23.227',1369.820
'0:23.230',1363.688
'0:23.234',1357.884
'0:23.238',1352.518
'0:23.242',1347.883
'0:23.246',1344.306
'0:23.250',1341.970
'0:23.254',1340.692
'0:23.258',1340.217
'0:23.262',1340.108
'0:23.266',1340.254
'0:23.270',1340.582
'0:23.273',1341.276
'0:23.277',1342.408
'0:23.281',1344.050
'0:23.285',1346.094
'0:23.289',1348.357
'0:23.293',1350.365
'0:23.297',1351.715
'0:23.301',1352.299
'0:23.305',1352.226
'0:23.309',1351.898
'0:23.313',1351.788
'0:23.316',1352.190
'0:23.320',1353.321
'0:23.324',1355.256
'0:23.328',1357.921
'0:23.332',1361.023
'0:23.336',1364.235
'0:23.340',1367.374
'0:23.344',1370.514
'0:23.348',1373.726
'0:23.352',1377.157
'0:23.355',1380.734
'0:23.359',1384.275
'0:23.363',1387.414
'0:23.367',1389.859
'0:23.371',1391.538
'0:23.375',1392.670
'0:23.379',1393.509
'0:23.383',1394.312
'0:23.387',1395.225
'0:23.391',1396.466
'0:23.395',1398.364
'0:23.398',1401.175
'0:23.402',1405.080
'0:23.406',1410.008
'0:23.410',1415.702
'0:23.414',1421.834
'0:23.418',1428.003
'0:23.422',1433.880
'0:23.426',1439.099
'0:23.430',1443.480
'0:23.434',1446.984
'0:23.438',1449.539
'0:23.441',1451.145
