'sample interval','wrist_ppg'
'0.00390625 sec','mV'
0,1375.573
1,1376.376
2,1376.881
3,1376.892
4,1376.511
5,1375.990
6,1375.558
7,1375.349
8,1375.407
9,1375.735
10,1376.345
11,1377.215
12,1378.263
13,1379.399
14,1380.545
15,1381.650
16,1382.682
17,1383.589
18,1384.293
19,1384.782
20,1385.106
21,1385.319
22,1385.439
23,1385.397
24,1385.085
25,1384.355
26,1383.146
27,1381.546
28,1379.779
29,1378.148
30,1376.918
31,1376.339
32,1376.621
33,1377.809
34,1379.722
35,1381.942
36,1383.933
37,1385.231
38,1385.543
39,1384.876
40,1383.500
41,1381.869
42,1380.441
43,1379.550
44,1379.253
45,1379.456
46,1379.977
47,1380.618
48,1381.228
49,1381.765
50,1382.244
51,1382.599
52,1382.750
53,1382.724
54,1382.656
55,1382.640
56,1382.750
57,1383.037
58,1383.495
59,1384.084
60,1384.720
61,1385.283
62,1385.710
63,1386.091
64,1386.544
65,1387.180
66,1388.102
67,1389.452
68,1391.422
69,1394.200
70,1397.833
71,1402.179
72,1406.885
73,1411.477
74,1415.459
75,1418.440
76,1420.264
77,1421.093
78,1421.270
79,1421.119
80,1420.848
81,1420.723
82,1421.098
83,1422.359
84,1424.777
85,1428.472
86,1433.413
87,1439.506
88,1446.740
89,1455.130
90,1464.605
91,1474.935
92,1485.895
93,1497.299
94,1508.962
95,1520.605
96,1531.904
97,1542.510
98,1552.100
99,1560.402
100,1567.292
101,1572.691
102,1576.574
103,1578.998
104,1580.102
105,1580.019
106,1578.836
107,1576.652
108,1573.635
109,1569.976
110,1565.869
111,1561.502
112,1557.020
113,1552.527
114,1547.962
115,1543.078
116,1537.596
117,1531.373
118,1524.452
119,1516.863
120,1508.545
121,1499.487
122,1489.846
123,1479.891
124,1469.947
125,1460.389
126,1451.534
127,1443.524
128,1436.306
129,1429.734
130,1423.662
131,1418.007
132,1412.749
133,1407.886
134,1403.435
135,1399.433
136,1395.873
137,1392.720
138,1389.932
139,1387.456
140,1385.215
141,1383.125
142,1381.108
143,1379.107
144,1377.153
145,1375.261
146,1373.395
147,1371.508
148,1369.569
149,1367.563
150,1365.609
151,1364.050
152,1363.227
153,1363.331
154,1364.353
155,1366.083
156,1368.131
157,1370.054
158,1371.566
159,1372.676
160,1373.567
161,1374.411
162,1375.339
163,1376.475
164,1377.835
165,1379.279
166,1380.665
167,1381.900
168,1382.922
169,1383.761
170,1384.485
171,1385.100
172,1385.611
173,1386.012
174,1386.362
175,1386.664
176,1386.841
177,1386.758
178,1386.393
179,1385.877
180,1385.314
181,1384.725
182,1384.194
183,1383.855
184,1383.714
185,1383.620
186,1383.422
187,1383.099
188,1382.698
189,1382.317
190,1382.072
191,1381.994
192,1381.994
193,1381.947
194,1381.749
195,1381.332
196,1380.681
197,1379.878
198,1379.076
199,1378.440
200,1378.080
201,1377.986
202,1378.127
203,1378.487
204,1379.091
205,1379.941
206,1380.999
207,1382.255
208,1383.641
209,1385.064
210,1386.440
211,1387.607
212,1388.363
213,1388.493
214,1387.847
215,1386.429
216,1384.423
217,1382.052
218,1379.550
219,1377.215
220,1375.459
221,1374.583
222,1374.609
223,1375.302
224,1376.324
225,1377.476
226,1378.758
227,1380.160
228,1381.447
229,1382.270
230,1382.396
231,1381.947
232,1381.296
233,1380.764
234,1380.483
235,1380.363
236,1380.238
237,1380.014
238,1379.722
239,1379.451
240,1379.284
241,1379.232
242,1379.258
243,1379.336
244,1379.477
245,1379.764
246,1380.347
247,1381.410
248,1382.969
249,1384.840
250,1386.680
251,1388.154
252,1389.056
253,1389.358
254,1389.259
255,1389.067
256,1388.973
257,1389.051
258,1389.410
259,1390.260
260,1391.756
261,1393.804
262,1396.108
263,1398.406
264,1400.564
265,1402.409
266,1403.727
267,1404.311
268,1404.014
269,1402.784
270,1400.637
271,1397.760
272,1394.534
273,1391.474
274,1389.077
275,1387.670
276,1387.326
277,1387.863
278,1388.884
279,1389.999
280,1390.995
281,1391.813
282,1392.433
283,1392.887
284,1393.220
285,1393.507
286,1393.794
287,1394.007
288,1394.033
289,1393.872
290,1393.679
291,1393.559
292,1393.460
293,1393.205
294,1392.683
295,1391.969
296,1391.250
297,1390.614
298,1389.979
299,1389.244
300,1388.436
301,1387.659
302,1386.977
303,1386.539
304,1386.607
305,1387.409
306,1388.978
307,1391.089
308,1393.288
309,1395.050
310,1396.014
311,1396.071
312,1395.352
313,1394.122
314,1392.678
315,1391.282
316,1390.125
317,1389.285
318,1388.733
319,1388.431
320,1388.384
321,1388.530
322,1388.775
323,1389.124
324,1389.676
325,1390.411
326,1391.083
327,1391.448
328,1391.386
329,1390.932
330,1390.192
331,1389.275
332,1388.274
333,1387.216
334,1386.117
335,1385.048
336,1384.178
337,1383.631
338,1383.396
339,1383.370
340,1383.448
341,1383.573
342,1383.704
343,1383.844
344,1384.032
345,1384.303
346,1384.642
347,1384.902
348,1384.908
349,1384.543
350,1383.865
351,1383.073
352,1382.369
353,1381.885
354,1381.635
355,1381.666
356,1381.999
357,1382.557
358,1383.198
359,1383.824
360,1384.376
361,1384.845
362,1385.199
363,1385.397
364,1385.444
365,1385.335
366,1385.064
367,1384.642
368,1384.058
369,1383.360
370,1382.698
371,1382.203
372,1381.895
373,1381.687
374,1381.457
375,1381.150
376,1380.764
377,1380.389
378,1380.102
379,1379.941
380,1379.868
381,1379.810
382,1379.659
383,1379.373
384,1378.997
385,1378.617
386,1378.221
387,1377.710
388,1376.934
389,1375.860
390,1374.635
391,1373.489
392,1372.472
393,1371.435
394,1370.205
395,1368.829
396,1367.631
397,1366.969
398,1367.104
399,1368.115
400,1369.919
401,1372.217
402,1374.526
403,1376.319
404,1377.283
405,1377.470
406,1377.225
407,1376.975
408,1377.038
409,1377.528
410,1378.440
411,1379.722
412,1381.239
413,1382.802
414,1384.194
415,1385.132
416,1385.387
417,1384.908
418,1383.886
419,1382.656
420,1381.478
421,1380.436
422,1379.519
423,1378.768
424,1378.184
425,1377.757
426,1377.528
427,1377.523
428,1377.695
429,1377.929
430,1378.153
431,1378.362
432,1378.648
433,1379.169
434,1380.014
435,1381.082
436,1382.224
437,1383.328
438,1384.303
439,1385.069
440,1385.523
441,1385.616
442,1385.345
443,1384.777
444,1384.032
445,1383.287
446,1382.729
447,1382.531
448,1382.755
449,1383.375
450,1384.256
451,1385.199
452,1386.039
453,1386.685
454,1387.086
455,1387.253
456,1387.274
457,1387.201
458,1387.039
459,1386.753
460,1386.346
461,1385.877
462,1385.408
463,1384.892
464,1384.267
465,1383.573
466,1383.010
467,1382.776
468,1382.875
469,1383.115
470,1383.292
471,1383.354
472,1383.417
473,1383.636
474,1384.079
475,1384.699
476,1385.382
477,1386.018
478,1386.544
479,1386.867
480,1386.872
481,1386.544
482,1385.934
483,1385.080
484,1384.042
485,1382.948
486,1381.942
487,1381.119
488,1380.524
489,1380.170
490,1380.076
491,1380.217
492,1380.535
493,1380.947
494,1381.275
495,1381.384
496,1381.228
497,1380.858
498,1380.358
499,1379.790
500,1379.175
501,1378.508
502,1377.893
503,1377.533
504,1377.569
505,1377.955
506,1378.508
507,1379.034
508,1379.388
509,1379.498
510,1379.367
511,1379.091
512,1378.742
513,1378.382
514,1378.153
515,1378.158
516,1378.320
517,1378.445
518,1378.398
519,1378.226
520,1378.085
521,1378.049
522,1378.101
523,1378.190
524,1378.273
525,1378.351
526,1378.466
527,1378.659
528,1378.961
529,1379.347
530,1379.732
531,1380.024
532,1380.154
533,1380.113
534,1379.951
535,1379.722
536,1379.477
537,1379.227
538,1378.935
539,1378.581
540,1378.221
541,1377.919
542,1377.684
543,1377.460
544,1377.231
545,1376.949
546,1376.590
547,1376.188
548,1375.818
549,1375.568
550,1375.433
551,1375.401
552,1375.500
553,1375.751
554,1376.022
555,1376.131
556,1376.032
557,1375.839
558,1375.719
559,1375.824
560,1376.188
561,1376.730
562,1377.371
563,1378.085
564,1378.742
565,1379.096
566,1378.987
567,1378.508
568,1377.955
569,1377.523
570,1377.205
571,1376.918
572,1376.699
573,1376.657
574,1376.824
575,1377.059
576,1377.121
577,1376.876
578,1376.402
579,1375.907
580,1375.490
581,1375.099
582,1374.713
583,1374.453
584,1374.495
585,1374.911
586,1375.646
587,1376.584
588,1377.674
589,1378.992
590,1380.613
591,1382.411
592,1384.121
593,1385.361
594,1385.788
595,1385.210
596,1383.730
597,1381.692
598,1379.555
599,1377.705
600,1376.386
601,1375.740
602,1375.834
603,1376.663
604,1378.179
605,1380.259
606,1382.729
607,1385.429
608,1388.300
609,1391.276
610,1394.169
611,1396.676
612,1398.625
613,1400.100
614,1401.377
615,1402.680
616,1403.998
617,1405.093
618,1405.655
619,1405.489
620,1404.566
621,1403.044
622,1401.168
623,1399.115
624,1396.842
625,1394.184
626,1391.141
627,1387.982
628,1385.095
629,1382.818
630,1381.374
631,1380.858
632,1381.218
633,1382.250
634,1383.657
635,1385.116
636,1386.289
637,1386.799
638,1386.325
639,1384.704
640,1382.057
641,1378.799
642,1375.495
643,1372.660
644,1370.607
645,1369.424
646,1369.001
647,1369.069
648,1369.293
649,1369.418
650,1369.377
651,1369.189
652,1368.960
653,1368.881
654,1369.215
655,1370.190
656,1371.889
657,1374.260
658,1377.095
659,1380.123
660,1383.130
661,1386.044
662,1388.801
663,1391.287
664,1393.382
665,1395.024
666,1396.134
667,1396.644
668,1396.644
669,1396.368
670,1396.108
671,1396.055
672,1396.248
673,1396.608
674,1397.051
675,1397.520
676,1397.953
677,1398.307
678,1398.630
679,1398.911
680,1398.984
681,1398.719
682,1398.145
683,1397.421
684,1396.613
685,1395.680
686,1394.659
687,1393.731
688,1393.137
689,1393.012
690,1393.444
691,1394.419
692,1395.889
693,1397.796
694,1400.089
695,1402.669
696,1405.379
697,1408.006
698,1410.294
699,1412.029
700,1413.051
701,1413.223
702,1412.368
703,1410.393
704,1407.308
705,1403.310
706,1398.755
707,1394.132
708,1389.953
709,1386.586
710,1384.178
711,1382.729
712,1382.140
713,1382.265
714,1382.880
715,1383.678
716,1384.313
717,1384.454
718,1383.954
719,1382.932
720,1381.739
721,1380.759
722,1380.269
723,1380.405
724,1381.166
725,1382.531
726,1384.454
727,1386.789
728,1389.254
729,1391.526
730,1393.330
731,1394.549
732,1395.242
733,1395.654
734,1395.972
735,1396.191
736,1396.071
737,1395.378
738,1394.044
739,1392.209
740,1390.093
741,1387.899
742,1385.840
743,1384.173
744,1383.182
745,1383.063
746,1383.818
747,1385.272
748,1387.091
749,1388.863
750,1390.265
751,1391.219
752,1391.850
753,1392.282
754,1392.522
755,1392.553
756,1392.392
757,1392.001
758,1391.318
759,1390.437
760,1389.572
761,1388.936
762,1388.597
763,1388.462
764,1388.337
765,1387.982
766,1387.284
767,1386.367
768,1385.543
769,1385.085
770,1385.017
771,1385.168
772,1385.257
773,1385.059
774,1384.475
775,1383.506
776,1382.239
777,1380.738
778,1379.107
779,1377.549
780,1376.345
781,1375.704
782,1375.657
783,1376.131
784,1377.001
785,1378.190
786,1379.748
787,1381.781
788,1384.319
789,1387.206
790,1390.109
791,1392.616
792,1394.356
793,1395.190
794,1395.206
795,1394.591
796,1393.564
797,1392.324
798,1391.026
799,1389.786
800,1388.702
801,1387.868
802,1387.326
803,1387.149
804,1387.341
805,1387.748
806,1388.050
807,1387.936
808,1387.237
809,1385.929
810,1384.032
811,1381.582
812,1378.747
813,1375.876
814,1373.410
815,1371.691
816,1370.768
817,1370.461
818,1370.424
819,1370.325
820,1369.945
821,1369.252
822,1368.355
823,1367.495
824,1366.958
825,1366.906
826,1367.349
827,1368.199
828,1369.293
829,1370.346
830,1371.029
831,1371.232
832,1371.154
833,1371.138
834,1371.373
835,1371.685
836,1371.659
837,1370.940
838,1369.418
839,1367.245
840,1364.801
841,1362.570
842,1360.881
843,1359.751
844,1358.938
845,1358.119
846,1357.113
847,1356.019
848,1355.091
849,1354.622
850,1354.779
851,1355.508
852,1356.498
853,1357.265
854,1357.301
855,1356.337
856,1354.419
857,1351.902
858,1349.306
859,1347.143
860,1345.794
861,1345.496
862,1346.346
863,1348.306
864,1351.235
865,1354.836
866,1358.672
867,1362.153
868,1364.691
869,1365.911
870,1365.791
871,1364.702
872,1363.232
873,1361.976
874,1361.304
875,1361.309
876,1361.788
877,1362.346
878,1362.596
879,1362.419
880,1361.934
881,1361.366
882,1360.908
883,1360.657
884,1360.579
885,1360.428
886,1359.896
887,1358.833
888,1357.343
889,1355.586
890,1353.684
891,1351.714
892,1349.791
893,1348.019
894,1346.508
895,1345.319
896,1344.475
897,1343.995
898,1343.949
899,1344.423
900,1345.538
901,1347.388
902,1349.973
903,1353.173
904,1356.723
905,1360.287
906,1363.612
907,1366.640
908,1369.450
909,1372.066
910,1374.484
911,1376.746
912,1378.898
913,1380.926
914,1382.739
915,1384.251
916,1385.517
917,1386.659
918,1387.738
919,1388.759
920,1389.697
921,1390.505
922,1391.089
923,1391.375
924,1391.297
925,1390.859
926,1390.156
927,1389.301
928,1388.420
929,1387.597
930,1386.831
931,1386.080
932,1385.288
933,1384.402
934,1383.469
935,1382.578
936,1381.812
937,1381.306
938,1381.150
939,1381.275
940,1381.478
941,1381.650
942,1381.833
943,1382.025
944,1382.130
945,1382.046
946,1381.770
947,1381.259
948,1380.483
949,1379.555
950,1378.784
951,1378.445
952,1378.601
953,1379.216
954,1380.290
955,1381.807
956,1383.662
957,1385.637
958,1387.482
959,1388.967
960,1389.900
961,1390.187
962,1389.921
963,1389.343
964,1388.691
965,1388.113
966,1387.670
967,1387.347
968,1387.117
969,1386.992
970,1386.956
971,1386.966
972,1387.008
973,1387.039
974,1387.013
975,1386.862
976,1386.586
977,1386.315
978,1386.247
979,1386.476
980,1386.987
981,1387.696
982,1388.540
983,1389.405
984,1390.197
985,1390.854
986,1391.323
987,1391.589
988,1391.698
989,1391.808
990,1392.089
991,1392.610
992,1393.272
993,1393.908
994,1394.341
995,1394.435
996,1394.127
997,1393.455
998,1392.527
999,1391.495
1000,1390.510
1001,1389.676
1002,1389.093
1003,1388.827
1004,1388.905
1005,1389.228
1006,1389.640
1007,1389.953
1008,1389.994
1009,1389.692
1010,1389.160
1011,1388.624
1012,1388.238
1013,1388.024
1014,1387.894
1015,1387.706
1016,1387.279
1017,1386.455
1018,1385.132
1019,1383.235
1020,1380.811
1021,1378.039
1022,1375.182
1023,1372.504
1024,1370.278
1025,1368.720
1026,1367.954
1027,1367.923
1028,1368.412
1029,1369.153
1030,1369.924
1031,1370.633
1032,1371.268
1033,1371.878
1034,1372.488
1035,1373.061
1036,1373.510
1037,1373.786
1038,1373.906
1039,1373.973
1040,1374.098
1041,1374.349
1042,1374.729
1043,1375.167
1044,1375.579
1045,1375.896
1046,1376.121
1047,1376.298
1048,1376.470
1049,1376.715
1050,1377.173
1051,1377.966
1052,1379.060
1053,1380.274
1054,1381.405
1055,1382.432
1056,1383.506
1057,1384.793
1058,1386.341
1059,1388.003
1060,1389.530
1061,1390.739
1062,1391.511
1063,1391.657
1064,1390.911
1065,1389.176
1066,1386.633
1067,1383.704
1068,1380.863
1069,1378.497
1070,1376.814
1071,1375.917
1072,1375.824
1073,1376.506
1074,1377.887
1075,1379.863
1076,1382.296
1077,1385.022
1078,1387.826
1079,1390.474
1080,1392.746
1081,1394.502
1082,1395.706
1083,1396.457
1084,1396.973
1085,1397.551
1086,1398.479
1087,1399.860
1088,1401.601
1089,1403.508
1090,1405.504
1091,1407.610
1092,1409.757
1093,1411.717
1094,1413.202
1095,1414.109
1096,1414.557
1097,1414.724
1098,1414.703
1099,1414.578
1100,1414.422
1101,1414.218
1102,1413.864
1103,1413.244
1104,1412.280
1105,1410.909
1106,1409.121
1107,1407.037
1108,1404.842
1109,1402.758
1110,1400.954
1111,1399.521
1112,1398.468
1113,1397.775
1114,1397.431
1115,1397.395
1116,1397.541
1117,1397.629
1118,1397.327
1119,1396.347
1120,1394.581
1121,1392.157
1122,1389.405
1123,1386.706
1124,1384.355
1125,1382.510
1126,1381.239
1127,1380.545
1128,1380.410
1129,1380.790
1130,1381.609
1131,1382.786
1132,1384.209
1133,1385.752
1134,1387.258
1135,1388.530
1136,1389.364
1137,1389.718
1138,1389.718
1139,1389.499
1140,1389.087
1141,1388.457
1142,1387.539
1143,1386.315
1144,1384.850
1145,1383.391
1146,1382.187
1147,1381.390
1148,1381.061
1149,1381.265
1150,1381.989
1151,1383.110
1152,1384.428
1153,1385.741
1154,1386.893
1155,1387.837
1156,1388.624
1157,1389.301
1158,1389.801
1159,1390.088
1160,1390.187
1161,1390.098
1162,1389.781
1163,1389.332
1164,1388.952
1165,1388.712
1166,1388.457
1167,1387.951
1168,1387.138
1169,1386.184
1170,1385.371
1171,1384.944
1172,1384.944
1173,1385.179
1174,1385.413
1175,1385.569
1176,1385.773
1177,1386.091
1178,1386.419
1179,1386.622
1180,1386.700
1181,1386.862
1182,1387.352
1183,1388.243
1184,1389.374
1185,1390.521
1186,1391.563
1187,1392.496
1188,1393.314
1189,1393.851
1190,1393.846
1191,1393.173
1192,1391.985
1193,1390.620
1194,1389.338
1195,1388.118
1196,1386.695
1197,1384.824
1198,1382.505
1199,1380.040
1200,1377.814
1201,1376.126
1202,1375.104
1203,1374.755
1204,1375.016
1205,1375.761
1206,1376.793
1207,1377.861
1208,1378.815
1209,1379.670
1210,1380.540
1211,1381.499
1212,1382.453
1213,1383.214
1214,1383.667
1215,1383.813
1216,1383.662
1217,1383.115
1218,1382.124
1219,1380.863
1220,1379.670
1221,1378.794
1222,1378.315
1223,1378.138
1224,1378.179
1225,1378.393
1226,1378.820
1227,1379.529
1228,1380.597
1229,1381.958
1230,1383.412
1231,1384.730
1232,1385.840
1233,1386.872
1234,1387.930
1235,1388.921
1236,1389.567
1237,1389.609
1238,1388.988
1239,1387.904
1240,1386.653
1241,1385.403
1242,1384.121
1243,1382.656
1244,1380.952
1245,1379.133
1246,1377.455
1247,1376.167
1248,1375.474
1249,1375.542
1250,1376.423
1251,1378.080
1252,1380.420
1253,1383.339
1254,1386.726
1255,1390.364
1256,1393.851
1257,1396.702
1258,1398.552
1259,1399.282
1260,1398.984
1261,1397.947
1262,1396.561
1263,1395.050
1264,1393.444
1265,1391.766
1266,1390.109
1267,1388.535
1268,1387.044
1269,1385.674
1270,1384.454
1271,1383.438
1272,1382.604
1273,1381.864
1274,1381.124
1275,1380.337
1276,1379.550
1277,1378.846
1278,1378.242
1279,1377.700
1280,1377.153
1281,1376.538
1282,1375.797
1283,1375.000
1284,1374.296
1285,1373.760
1286,1373.395
1287,1373.166
1288,1372.926
1289,1372.353
1290,1371.154
1291,1369.278
1292,1366.964
1293,1364.566
1294,1362.367
1295,1360.564
1296,1359.255
1297,1358.484
1298,1358.229
1299,1358.416
1300,1358.964
1301,1359.782
1302,1360.819
1303,1362.101
1304,1363.706
1305,1365.749
1306,1368.303
1307,1371.378
1308,1374.922
1309,1378.784
1310,1382.766
1311,1386.539
1312,1389.734
1313,1392.022
1314,1393.278
1315,1393.668
1316,1393.596
1317,1393.429
1318,1393.246
1319,1392.829
1320,1391.808
1321,1389.937
1322,1387.274
1323,1384.157
1324,1381.134
1325,1378.753
1326,1377.424
1327,1377.382
1328,1378.674
1329,1381.186
1330,1384.605
1331,1388.394
1332,1391.907
1333,1394.586
1334,1396.175
1335,1396.723
1336,1396.399
1337,1395.352
1338,1393.773
1339,1392.027
1340,1390.541
1341,1389.572
1342,1389.134
1343,1389.108
1344,1389.384
1345,1389.953
1346,1390.797
1347,1391.761
1348,1392.652
1349,1393.288
1350,1393.502
1351,1393.236
1352,1392.663
1353,1392.089
1354,1391.719
1355,1391.631
1356,1391.844
1357,1392.329
1358,1392.960
1359,1393.606
1360,1394.138
1361,1394.403
1362,1394.315
1363,1393.893
1364,1393.257
1365,1392.543
1366,1391.829
1367,1391.151
1368,1390.521
1369,1389.942
1370,1389.410
1371,1388.921
1372,1388.493
1373,1388.144
1374,1387.889
1375,1387.717
1376,1387.623
1377,1387.560
1378,1387.446
1379,1387.180
1380,1386.732
1381,1386.164
1382,1385.590
1383,1385.111
1384,1384.793
1385,1384.746
1386,1385.017
1387,1385.533
1388,1386.184
1389,1386.872
1390,1387.456
1391,1387.748
1392,1387.654
1393,1387.274
1394,1386.784
1395,1386.377
1396,1386.190
1397,1386.294
1398,1386.732
1399,1387.362
1400,1387.857
1401,1387.889
1402,1387.315
1403,1386.158
1404,1384.496
1405,1382.536
1406,1380.634
1407,1379.164
1408,1378.409
1409,1378.560
1410,1379.685
1411,1381.718
1412,1384.465
1413,1387.639
1414,1390.901
1415,1393.903
1416,1396.337
1417,1398.010
1418,1398.875
1419,1399.068
1420,1398.755
1421,1398.052
1422,1397.040
1423,1395.873
1424,1394.664
1425,1393.418
1426,1392.074
1427,1390.687
1428,1389.374
1429,1388.212
1430,1387.253
1431,1386.596
1432,1386.289
1433,1386.268
1434,1386.414
1435,1386.638
1436,1386.862
1437,1387.034
1438,1387.196
1439,1387.487
1440,1388.014
1441,1388.707
1442,1389.421
1443,1390.062
1444,1390.573
1445,1390.833
1446,1390.703
1447,1390.244
1448,1389.723
1449,1389.421
1450,1389.426
1451,1389.645
1452,1389.926
1453,1390.078
1454,1389.937
1455,1389.447
1456,1388.676
1457,1387.727
1458,1386.779
1459,1386.091
1460,1385.856
1461,1386.007
1462,1386.377
1463,1386.852
1464,1387.420
1465,1388.092
1466,1388.801
1467,1389.463
1468,1390.031
1469,1390.604
1470,1391.297
1471,1392.121
1472,1393.012
1473,1393.882
1474,1394.653
1475,1395.331
1476,1395.951
1477,1396.488
1478,1396.816
1479,1396.931
1480,1397.020
1481,1397.343
1482,1397.999
1483,1398.823
1484,1399.584
1485,1400.204
1486,1400.741
1487,1401.225
1488,1401.627
1489,1401.913
1490,1402.002
1491,1401.783
1492,1401.225
1493,1400.439
1494,1399.589
1495,1398.797
1496,1398.171
1497,1397.754
1498,1397.556
1499,1397.582
1500,1397.869
1501,1398.448
1502,1399.250
1503,1400.220
1504,1401.267
1505,1402.268
1506,1403.133
1507,1403.930
1508,1404.723
1509,1405.452
1510,1405.921
1511,1405.973
1512,1405.650
1513,1405.192
1514,1404.816
1515,1404.561
1516,1404.233
1517,1403.467
1518,1401.882
1519,1399.344
1520,1396.009
1521,1392.261
1522,1388.603
1523,1385.455
1524,1383.120
1525,1381.687
1526,1381.093
1527,1381.176
1528,1381.640
1529,1382.119
1530,1382.307
1531,1382.005
1532,1381.155
1533,1379.956
1534,1378.768
1535,1377.893
1536,1377.387
1537,1377.121
1538,1377.033
1539,1377.168
1540,1377.590
1541,1378.268
1542,1379.112
1543,1380.009
1544,1380.806
1545,1381.431
1546,1381.895
1547,1382.317
1548,1382.802
1549,1383.334
1550,1383.787
1551,1384.053
1552,1384.042
1553,1383.652
1554,1382.818
1555,1381.525
1556,1379.805
1557,1377.757
1558,1375.553
1559,1373.395
1560,1371.498
1561,1370.065
1562,1369.272
1563,1369.194
1564,1369.788
1565,1370.893
1566,1372.264
1567,1373.671
1568,1374.974
1569,1376.079
1570,1376.913
1571,1377.476
1572,1377.830
1573,1378.111
1574,1378.461
1575,1379.039
1576,1379.967
1577,1381.270
1578,1382.807
1579,1384.428
1580,1386.007
1581,1387.472
1582,1388.702
1583,1389.562
1584,1390.015
1585,1390.208
1586,1390.265
1587,1390.177
1588,1389.848
1589,1389.239
1590,1388.441
1591,1387.503
1592,1386.341
1593,1384.782
1594,1382.818
1595,1380.592
1596,1378.403
1597,1376.621
1598,1375.589
1599,1375.480
1600,1376.204
1601,1377.424
1602,1378.747
1603,1379.998
1604,1381.259
1605,1382.667
1606,1384.152
1607,1385.366
1608,1385.872
1609,1385.408
1610,1384.100
1611,1382.380
1612,1380.785
1613,1379.711
1614,1379.310
1615,1379.467
1616,1379.925
1617,1380.441
1618,1380.889
1619,1381.171
1620,1381.093
1621,1380.551
1622,1379.670
1623,1378.810
1624,1378.315
1625,1378.336
1626,1378.857
1627,1379.852
1628,1381.291
1629,1383.005
1630,1384.590
1631,1385.512
1632,1385.377
1633,1384.053
1634,1381.697
1635,1378.747
1636,1375.787
1637,1373.275
1638,1371.373
1639,1369.966
1640,1368.819
1641,1367.808
1642,1367.083
1643,1366.880
1644,1367.365
1645,1368.538
1646,1370.273
1647,1372.368
1648,1374.630
1649,1376.939
1650,1379.164
1651,1381.160
1652,1382.844
1653,1384.209
1654,1385.304
1655,1386.205
1656,1386.992
1657,1387.738
1658,1388.504
1659,1389.301
1660,1390.057
1661,1390.682
1662,1391.162
1663,1391.526
1664,1391.766
1665,1391.818
1666,1391.652
1667,1391.287
1668,1390.729
1669,1390.104
1670,1389.562
1671,1389.207
1672,1389.150
1673,1389.520
1674,1390.375
1675,1391.589
1676,1392.986
1677,1394.476
1678,1395.951
1679,1397.223
1680,1398.083
1681,1398.406
1682,1398.166
1683,1397.483
1684,1396.571
1685,1395.586
1686,1394.539
1687,1393.418
1688,1392.334
1689,1391.443
1690,1390.854
1691,1390.687
1692,1391.099
1693,1392.183
1694,1393.840
1695,1395.784
1696,1397.650
1697,1399.167
1698,1400.319
1699,1401.215
1700,1401.919
1701,1402.320
1702,1402.299
1703,1401.913
1704,1401.356
1705,1400.772
1706,1400.173
1707,1399.553
1708,1399.011
1709,1398.635
1710,1398.333
1711,1397.874
1712,1397.093
1713,1396.014
1714,1394.810
1715,1393.710
1716,1392.824
1717,1392.110
1718,1391.485
1719,1390.828
1720,1390.041
1721,1389.040
1722,1387.821
1723,1386.409
1724,1384.829
1725,1383.083
1726,1381.072
1727,1378.747
1728,1376.319
1729,1374.208
1730,1372.806
1731,1372.337
1732,1372.811
1733,1374.098
1734,1375.990
1735,1378.216
1736,1380.425
1737,1382.192
1738,1383.089
1739,1382.786
1740,1381.166
1741,1378.377
1742,1374.781
1743,1370.893
1744,1367.203
1745,1364.092
1746,1361.783
1747,1360.366
1748,1359.855
1749,1360.225
1750,1361.408
1751,1363.310
1752,1365.817
1753,1368.814
1754,1372.118
1755,1375.485
1756,1378.659
1757,1381.322
1758,1383.172
1759,1384.126
1760,1384.428
1761,1384.475
1762,1384.538
1763,1384.668
1764,1384.767
1765,1384.652
1766,1384.048
1767,1382.698
1768,1380.634
1769,1378.221
1770,1375.949
1771,1374.192
1772,1373.072
1773,1372.467
1774,1372.227
1775,1372.379
1776,1373.067
1777,1374.338
1778,1376.016
1779,1377.747
1780,1379.164
1781,1380.165
1782,1380.848
1783,1381.254
1784,1381.207
1785,1380.425
1786,1378.763
1787,1376.366
1788,1373.671
1789,1371.248
1790,1369.679
1791,1369.345
1792,1370.435
1793,1372.900
1794,1376.412
1795,1380.353
1796,1383.943
1797,1386.513
1798,1387.644
1799,1387.258
1800,1385.569
1801,1383.031
1802,1380.123
1803,1377.184
1804,1374.401
1805,1371.977
1806,1370.195
1807,1369.283
1808,1369.335
1809,1370.283
1810,1371.920
1811,1373.953
1812,1376.167
1813,1378.471
1814,1380.842
1815,1383.250
1816,1385.648
1817,1387.993
1818,1390.192
1819,1392.136
1820,1393.794
1821,1395.190
1822,1396.342
1823,1397.202
1824,1397.807
1825,1398.291
1826,1398.828
1827,1399.448
1828,1400.001
1829,1400.345
1830,1400.454
1831,1400.433
1832,1400.428
1833,1400.522
1834,1400.710
1835,1400.918
1836,1401.007
1837,1400.923
1838,1400.741
1839,1400.590
1840,1400.496
1841,1400.397
1842,1400.261
1843,1400.110
1844,1399.969
1845,1399.876
1846,1399.777
1847,1399.553
1848,1399.099
1849,1398.369
1850,1397.416
1851,1396.316
1852,1395.159
1853,1394.002
1854,1392.975
1855,1392.282
1856,1392.147
1857,1392.657
1858,1393.741
1859,1395.143
1860,1396.582
1861,1397.890
1862,1398.938
1863,1399.605
1864,1399.891
1865,1399.907
1866,1399.855
1867,1399.891
1868,1400.089
1869,1400.423
1870,1400.835
1871,1401.272
1872,1401.569
1873,1401.481
1874,1400.840
1875,1399.646
1876,1397.921
1877,1395.623
1878,1392.824
1879,1389.859
1880,1387.175
1881,1385.153
1882,1383.980
1883,1383.657
1884,1384.027
1885,1384.814
1886,1385.752
1887,1386.721
1888,1387.722
1889,1388.681
1890,1389.494
1891,1390.104
1892,1390.448
1893,1390.422
1894,1389.963
1895,1389.207
1896,1388.415
1897,1387.779
1898,1387.321
1899,1387.013
1900,1386.909
1901,1387.076
1902,1387.404
1903,1387.618
1904,1387.430
1905,1386.732
1906,1385.637
1907,1384.339
1908,1383.047
1909,1381.895
1910,1380.931
1911,1380.170
1912,1379.649
1913,1379.420
1914,1379.467
1915,1379.685
1916,1379.842
1917,1379.701
1918,1379.185
1919,1378.429
1920,1377.658
1921,1377.100
1922,1376.902
1923,1377.173
1924,1377.945
1925,1379.128
1926,1380.467
1927,1381.629
1928,1382.296
1929,1382.260
1930,1381.546
1931,1380.405
1932,1379.086
1933,1377.757
1934,1376.558
1935,1375.589
1936,1374.854
1937,1374.323
1938,1373.937
1939,1373.661
1940,1373.520
1941,1373.468
1942,1373.421
1943,1373.306
1944,1373.103
1945,1372.827
1946,1372.540
1947,1372.363
1948,1372.394
1949,1372.670
1950,1373.171
1951,1373.838
1952,1374.562
1953,1375.162
1954,1375.433
1955,1375.302
1956,1374.823
1957,1374.151
1958,1373.473
1959,1372.967
1960,1372.712
1961,1372.597
1962,1372.358
1963,1371.764
1964,1370.815
1965,1369.731
1966,1368.741
1967,1367.912
1968,1367.162
1969,1366.396
1970,1365.624
1971,1364.952
1972,1364.467
1973,1364.207
1974,1364.134
1975,1364.201
1976,1364.337
1977,1364.524
1978,1364.832
1979,1365.332
1980,1366.098
1981,1367.167
1982,1368.532
1983,1370.190
1984,1372.139
1985,1374.380
1986,1376.897
1987,1379.659
1988,1382.588
1989,1385.580
1990,1388.545
1991,1391.370
1992,1393.825
1993,1395.696
1994,1397.014
1995,1398.072
1996,1399.209
1997,1400.558
1998,1402.007
1999,1403.326
2000,1404.368
2001,1405.103
2002,1405.494
2003,1405.457
2004,1405.035
2005,1404.410
2006,1403.774
2007,1403.253
2008,1402.935
2009,1402.831
2010,1402.904
2011,1403.065
2012,1403.201
2013,1403.201
2014,1403.024
2015,1402.674
2016,1402.117
2017,1401.246
2018,1400.011
2019,1398.573
2020,1397.233
2021,1396.269
2022,1395.748
2023,1395.612
2024,1395.790
2025,1396.243
2026,1396.957
2027,1397.869
2028,1398.865
2029,1399.844
2030,1400.814
2031,1401.861
2032,1403.018
2033,1404.311
2034,1405.843
2035,1407.719
2036,1409.783
2037,1411.633
2038,1412.863
2039,1413.259
2040,1412.816
2041,1411.670
2042,1409.981
2043,1407.886
2044,1405.562
2045,1403.206
2046,1401.012
2047,1399.057
2048,1397.327
2049,1395.821
2050,1394.653
2051,1393.945
2052,1393.674
2053,1393.783
2054,1394.231
2055,1394.966
2056,1395.790
2057,1396.504
2058,1397.035
2059,1397.384
2060,1397.452
2061,1397.025
2062,1395.998
2063,1394.539
2064,1392.996
2065,1391.693
2066,1390.766
2067,1390.255
2068,1390.270
2069,1390.927
2070,1392.157
2071,1393.747
2072,1395.440
2073,1397.030
2074,1398.302
2075,1399.073
2076,1399.235
2077,1398.875
2078,1398.218
2079,1397.442
2080,1396.618
2081,1395.852
2082,1395.227
2083,1394.784
2084,1394.539
2085,1394.450
2086,1394.377
2087,1394.174
2088,1393.747
2089,1393.111
2090,1392.501
2091,1392.366
2092,1393.095
2093,1394.789
2094,1397.124
2095,1399.521
2096,1401.403
2097,1402.372
2098,1402.304
2099,1401.267
2100,1399.526
2101,1397.478
2102,1395.461
2103,1393.585
2104,1391.756
2105,1389.848
2106,1387.842
2107,1385.840
2108,1384.058
2109,1382.667
2110,1381.754
2111,1381.228
2112,1380.921
2113,1380.691
2114,1380.504
2115,1380.405
2116,1380.441
2117,1380.665
2118,1381.082
2119,1381.598
2120,1382.093
2121,1382.531
2122,1382.922
2123,1383.271
2124,1383.568
2125,1383.709
2126,1383.558
2127,1383.042
2128,1382.203
2129,1381.223
2130,1380.300
2131,1379.508
2132,1378.836
2133,1378.310
2134,1377.945
2135,1377.721
2136,1377.705
2137,1377.971
2138,1378.461
2139,1379.060
2140,1379.727
2141,1380.478
2142,1381.275
2143,1382.031
2144,1382.739
2145,1383.469
2146,1384.178
2147,1384.642
2148,1384.548
2149,1383.771
2150,1382.468
2151,1380.978
2152,1379.566
2153,1378.351
2154,1377.356
2155,1376.590
2156,1376.053
2157,1375.771
2158,1375.792
2159,1376.141
2160,1376.772
2161,1377.538
2162,1378.237
2163,1378.669
2164,1378.706
2165,1378.336
2166,1377.762
2167,1377.288
2168,1377.220
2169,1377.747
2170,1378.924
2171,1380.670
2172,1382.776
2173,1384.887
2174,1386.617
2175,1387.727
2176,1388.248
2177,1388.342
2178,1388.108
2179,1387.529
2180,1386.669
2181,1385.794
2182,1385.210
2183,1385.116
2184,1385.528
2185,1386.341
2186,1387.409
2187,1388.519
2188,1389.405
2189,1389.728
2190,1389.197
2191,1387.732
2192,1385.528
2193,1382.990
2194,1380.493
2195,1378.273
2196,1376.412
2197,1374.938
2198,1373.916
2199,1373.468
2200,1373.687
2201,1374.620
2202,1376.194
2203,1378.237
2204,1380.462
2205,1382.557
2206,1384.267
2207,1385.465
2208,1386.101
2209,1386.169
2210,1385.773
2211,1385.111
2212,1384.366
2213,1383.610
2214,1382.906
2215,1382.375
2216,1382.057
2217,1381.817
2218,1381.395
2219,1380.670
2220,1379.826
2221,1379.242
2222,1379.242
2223,1379.925
2224,1381.134
2225,1382.573
2226,1383.933
2227,1384.986
2228,1385.648
2229,1385.986
2230,1386.174
2231,1386.320
2232,1386.482
2233,1386.695
2234,1386.940
2235,1387.185
2236,1387.404
2237,1387.607
2238,1387.831
2239,1388.024
2240,1388.061
2241,1387.873
2242,1387.498
2243,1387.034
2244,1386.612
2245,1386.304
2246,1386.059
2247,1385.830
2248,1385.668
2249,1385.715
2250,1386.065
2251,1386.737
2252,1387.586
2253,1388.399
2254,1388.952
2255,1389.139
2256,1388.988
2257,1388.535
2258,1387.779
2259,1386.768
2260,1385.622
2261,1384.496
2262,1383.469
2263,1382.557
2264,1381.734
2265,1381.009
2266,1380.368
2267,1379.784
2268,1379.237
2269,1378.747
2270,1378.330
2271,1378.023
2272,1377.903
2273,1378.018
2274,1378.330
2275,1378.747
2276,1379.128
2277,1379.310
2278,1379.232
2279,1378.867
2280,1378.242
2281,1377.481
2282,1376.777
2283,1376.277
2284,1376.084
2285,1376.199
2286,1376.579
2287,1377.158
2288,1377.825
2289,1378.419
2290,1378.940
2291,1379.560
2292,1380.379
2293,1381.311
2294,1382.192
2295,1382.922
2296,1383.474
2297,1383.870
2298,1384.100
2299,1384.167
2300,1384.048
2301,1383.683
2302,1383.010
2303,1382.020
2304,1380.759
2305,1379.341
2306,1377.893
2307,1376.600
2308,1375.735
2309,1375.547
2310,1376.147
2311,1377.460
2312,1379.274
2313,1381.311
2314,1383.375
2315,1385.450
2316,1387.581
2317,1389.765
2318,1391.954
2319,1394.085
2320,1396.165
2321,1398.192
2322,1400.105
2323,1401.804
2324,1403.169
2325,1404.071
2326,1404.373
2327,1404.055
2328,1403.248
2329,1402.132
2330,1400.913
2331,1399.834
2332,1399.057
2333,1398.635
2334,1398.604
2335,1399.026
2336,1399.855
2337,1400.814
2338,1401.465
2339,1401.392
2340,1400.329
2341,1398.317
2342,1395.680
2343,1392.934
2344,1390.594
2345,1389.020
2346,1388.384
2347,1388.712
2348,1389.885
2349,1391.599
2350,1393.481
2351,1395.222
2352,1396.639
2353,1397.556
2354,1397.838
2355,1397.588
2356,1397.087
2357,1396.545
2358,1395.977
2359,1395.352
2360,1394.711
2361,1394.143
2362,1393.752
2363,1393.575
2364,1393.580
2365,1393.668
2366,1393.653
2367,1393.314
2368,1392.558
2369,1391.490
2370,1390.406
2371,1389.619
2372,1389.233
2373,1389.155
2374,1389.212
2375,1389.374
2376,1389.655
2377,1389.963
2378,1390.166
2379,1390.234
2380,1390.234
2381,1390.229
2382,1390.333
2383,1390.677
2384,1391.318
2385,1392.214
2386,1393.382
2387,1394.867
2388,1396.545
2389,1398.078
2390,1399.078
2391,1399.334
2392,1398.943
2393,1398.234
2394,1397.546
2395,1397.056
2396,1396.811
2397,1396.790
2398,1396.853
2399,1396.754
2400,1396.274
2401,1395.310
2402,1393.825
2403,1391.902
2404,1389.817
2405,1387.993
2406,1386.810
2407,1386.476
2408,1386.961
2409,1388.009
2410,1389.223
2411,1390.302
2412,1391.172
2413,1391.912
2414,1392.517
2415,1392.855
2416,1392.850
2417,1392.538
2418,1391.964
2419,1391.167
2420,1390.307
2421,1389.619
2422,1389.296
2423,1389.447
2424,1390.130
2425,1391.261
2426,1392.595
2427,1393.924
2428,1395.175
2429,1396.321
2430,1397.134
2431,1397.233
2432,1396.326
2433,1394.393
2434,1391.678
2435,1388.613
2436,1385.731
2437,1383.412
2438,1381.744
2439,1380.556
2440,1379.576
2441,1378.659
2442,1377.794
2443,1376.986
2444,1376.199
2445,1375.386
2446,1374.567
2447,1373.843
2448,1373.275
2449,1372.832
2450,1372.509
2451,1372.368
2452,1372.483
2453,1372.853
2454,1373.400
2455,1373.999
2456,1374.521
2457,1374.917
2458,1375.146
2459,1375.209
2460,1375.156
2461,1375.094
2462,1375.125
2463,1375.344
2464,1375.787
2465,1376.397
2466,1377.090
2467,1377.741
2468,1378.174
2469,1378.205
2470,1377.757
2471,1376.829
2472,1375.469
2473,1373.895
2474,1372.509
2475,1371.706
2476,1371.691
2477,1372.478
2478,1373.932
2479,1375.803
2480,1377.778
2481,1379.534
2482,1380.853
2483,1381.812
2484,1382.724
2485,1383.964
2486,1385.705
2487,1387.863
2488,1390.109
2489,1392.022
2490,1393.278
2491,1393.794
2492,1393.726
2493,1393.314
2494,1392.746
2495,1392.079
2496,1391.229
2497,1390.125
2498,1388.863
2499,1387.738
2500,1387.076
2501,1387.086
2502,1387.904
2503,1389.556
2504,1391.959
2505,1394.909
2506,1398.072
2507,1401.080
2508,1403.670
2509,1405.723
2510,1407.198
2511,1408.074
2512,1408.324
2513,1407.870
2514,1406.568
2515,1404.295
2516,1401.095
2517,1397.259
2518,1393.304
2519,1389.812
2520,1387.196
2521,1385.559
2522,1384.704
2523,1384.251
2524,1383.829
2525,1383.214
2526,1382.286
2527,1380.994
2528,1379.310
2529,1377.382
2530,1375.537
2531,1374.151
2532,1373.499
2533,1373.749
2534,1374.948
2535,1376.991
2536,1379.586
2537,1382.265
2538,1384.475
2539,1385.778
2540,1385.976
2541,1385.100
2542,1383.308
2543,1380.853
2544,1378.106
2545,1375.500
2546,1373.379
2547,1371.972
2548,1371.383
2549,1371.680
2550,1372.900
2551,1375.068
2552,1378.111
2553,1381.812
2554,1385.767
2555,1389.400
2556,1392.147
2557,1393.648
2558,1393.898
2559,1393.231
2560,1392.141
2561,1391.063
2562,1390.302
2563,1390.083
2564,1390.510
2565,1391.464
2566,1392.631
2567,1393.695
2568,1394.497
2569,1395.029
2570,1395.315
2571,1395.414
2572,1395.409
2573,1395.373
2574,1395.409
2575,1395.628
2576,1396.050
2577,1396.540
2578,1396.941
2579,1397.176
2580,1397.223
2581,1397.155
2582,1397.093
2583,1397.129
2584,1397.322
2585,1397.718
2586,1398.359
2587,1399.203
2588,1400.022
2589,1400.412
2590,1400.032
2591,1398.750
2592,1396.650
2593,1394.012
2594,1391.323
2595,1389.061
2596,1387.477
2597,1386.513
2598,1385.903
2599,1385.403
2600,1384.923
2601,1384.439
2602,1383.928
2603,1383.328
2604,1382.557
2605,1381.556
2606,1380.321
2607,1378.924
2608,1377.512
2609,1376.199
2610,1374.979
2611,1373.765
2612,1372.545
2613,1371.435
2614,1370.581
2615,1370.070
2616,1369.929
2617,1370.132
2618,1370.617
2619,1371.284
2620,1371.972
2621,1372.519
2622,1372.801
2623,1372.723
2624,1372.253
2625,1371.493
2626,1370.617
2627,1369.757
2628,1368.991
2629,1368.371
2630,1367.891
2631,1367.553
2632,1367.412
2633,1367.516
2634,1367.876
2635,1368.438
2636,1369.147
2637,1369.986
2638,1371.102
2639,1372.780
2640,1375.229
2641,1378.372
2642,1381.817
2643,1385.064
2644,1387.743
2645,1389.692
2646,1390.854
2647,1391.261
2648,1391.010
2649,1390.229
2650,1389.129
2651,1388.014
2652,1387.070
2653,1386.268
2654,1385.444
2655,1384.553
2656,1383.745
2657,1383.240
2658,1383.172
2659,1383.579
2660,1384.444
2661,1385.585
2662,1386.607
2663,1387.029
2664,1386.476
2665,1384.835
2666,1382.312
2667,1379.399
2668,1376.720
2669,1374.802
2670,1373.994
2671,1374.427
2672,1376.100
2673,1378.857
2674,1382.375
2675,1386.184
2676,1389.713
2677,1392.470
2678,1394.122
2679,1394.575
2680,1393.929
2681,1392.465
2682,1390.573
2683,1388.681
2684,1387.050
2685,1385.762
2686,1384.855
2687,1384.319
2688,1384.042
2689,1383.844
2690,1383.589
2691,1383.177
2692,1382.557
2693,1381.708
2694,1380.717
2695,1379.732
2696,1378.930
2697,1378.409
2698,1378.226
2699,1378.367
2700,1378.805
2701,1379.513
2702,1380.420
2703,1381.421
2704,1382.349
2705,1382.969
2706,1383.057
2707,1382.547
2708,1381.546
2709,1380.274
2710,1378.898
2711,1377.476
2712,1376.089
2713,1375.026
2714,1374.713
2715,1375.474
2716,1377.397
2717,1380.358
2718,1384.053
2719,1388.009
2720,1391.662
2721,1394.502
2722,1396.165
2723,1396.535
2724,1395.706
2725,1393.939
2726,1391.568
2727,1388.936
2728,1386.377
2729,1384.095
2730,1382.130
2731,1380.472
2732,1379.159
2733,1378.221
2734,1377.528
2735,1376.819
2736,1375.902
2737,1374.708
2738,1373.322
2739,1371.941
2740,1370.836
2741,1370.268
2742,1370.409
2743,1371.289
2744,1372.822
2745,1374.766
2746,1376.751
2747,1378.388
2748,1379.414
2749,1379.790
2750,1379.685
2751,1379.263
2752,1378.700
2753,1378.190
2754,1377.867
2755,1377.731
2756,1377.747
2757,1377.919
2758,1378.231
2759,1378.627
2760,1379.070
2761,1379.482
2762,1379.696
2763,1379.633
2764,1379.336
2765,1378.878
2766,1378.320
2767,1377.767
2768,1377.324
2769,1376.996
2770,1376.610
2771,1376.016
2772,1375.281
2773,1374.620
2774,1374.124
2775,1373.713
2776,1373.311
2777,1372.983
2778,1372.801
2779,1372.769
2780,1372.816
2781,1372.796
2782,1372.582
2783,1372.238
2784,1372.014
2785,1372.102
2786,1372.436
2787,1372.759
2788,1372.868
2789,1372.811
2790,1372.785
2791,1372.931
2792,1373.239
2793,1373.661
2794,1374.218
2795,1375.047
2796,1376.240
2797,1377.705
2798,1379.232
2799,1380.691
2800,1382.156
2801,1383.709
2802,1385.304
2803,1386.883
2804,1388.478
2805,1390.151
2806,1391.891
2807,1393.611
2808,1395.185
2809,1396.446
2810,1397.218
2811,1397.374
2812,1396.863
2813,1395.727
2814,1394.143
2815,1392.319
2816,1390.495
2817,1388.915
2818,1387.753
2819,1387.102
2820,1386.914
2821,1387.008
2822,1387.143
2823,1387.117
2824,1386.789
2825,1386.111
2826,1385.106
2827,1383.766
2828,1381.999
2829,1379.696
2830,1376.876
2831,1373.770
2832,1370.747
2833,1368.162
2834,1366.156
2835,1364.634
2836,1363.331
2837,1362.002
2838,1360.433
2839,1358.375
2840,1355.560
2841,1351.834
2842,1347.138
2843,1341.525
2844,1335.125
2845,1327.980
2846,1320.048
2847,1311.412
2848,1302.323
2849,1293.098
2850,1284.024
2851,1275.357
2852,1267.274
2853,1259.857
2854,1253.218
2855,1247.558
2856,1243.159
2857,1240.261
2858,1238.838
2859,1238.557
2860,1238.927
2861,1239.625
2862,1240.506
2863,1241.502
2864,1242.706
2865,1244.373
2866,1246.745
2867,1249.830
2868,1253.509
2869,1257.642
2870,1262.093
2871,1266.690
2872,1271.208
2873,1275.446
2874,1279.271
2875,1282.653
2876,1285.608
2877,1288.188
2878,1290.497
2879,1292.780
2880,1295.297
2881,1298.247
2882,1301.718
2883,1305.726
2884,1310.208
2885,1315.044
2886,1320.006
2887,1324.754
2888,1328.970
2889,1332.452
2890,1335.182
2891,1337.231
2892,1338.732
2893,1339.889
2894,1340.967
2895,1342.140
2896,1343.365
2897,1344.501
2898,1345.424
2899,1346.075
2900,1346.424
2901,1346.450
2902,1346.132
2903,1345.491
2904,1344.631
2905,1343.740
2906,1343.073
2907,1342.870
2908,1343.229
2909,1344.105
2910,1345.335
2911,1346.794
2912,1348.462
2913,1350.260
2914,1351.980
2915,1353.382
2916,1354.367
2917,1354.971
2918,1355.268
2919,1355.268
2920,1354.878
2921,1353.992
2922,1352.715
2923,1351.339
2924,1350.161
2925,1349.358
2926,1349.004
2927,1349.171
2928,1350.005
2929,1351.573
2930,1353.830
2931,1356.519
2932,1359.198
2933,1361.262
2934,1362.184
2935,1361.741
2936,1360.074
2937,1357.603
2938,1354.799
2939,1352.105
2940,1349.963
2941,1348.764
2942,1348.743
2943,1349.890
2944,1351.964
2945,1354.601
2946,1357.431
2947,1360.178
2948,1362.638
2949,1364.717
2950,1366.411
2951,1367.667
2952,1368.397
2953,1368.631
2954,1368.558
2955,1368.438
2956,1368.506
2957,1368.913
2958,1369.721
2959,1370.924
2960,1372.519
2961,1374.411
2962,1376.491
2963,1378.659
2964,1380.775
2965,1382.567
2966,1383.824
2967,1384.532
2968,1384.824
2969,1384.939
2970,1385.090
2971,1385.434
2972,1386.039
2973,1386.992
2974,1388.300
2975,1389.864
2976,1391.553
2977,1393.267
2978,1394.820
2979,1395.977
2980,1396.634
2981,1396.879
2982,1396.931
2983,1397.004
2984,1397.265
2985,1397.682
2986,1398.010
2987,1397.895
2988,1397.124
2989,1395.764
2990,1394.143
2991,1392.642
2992,1391.511
2993,1390.875
2994,1390.755
2995,1391.094
2996,1391.766
2997,1392.647
2998,1393.695
2999,1394.982
3000,1396.717
3001,1399.110
3002,1402.211
3003,1405.911
3004,1410.012
3005,1414.359
3006,1418.794
3007,1423.151
3008,1427.331
3009,1431.407
3010,1435.529
3011,1439.844
3012,1444.394
3013,1449.158
3014,1454.031
3015,1458.794
3016,1463.188
3017,1467.081
3018,1470.495
3019,1473.481
3020,1476.024
3021,1478.109
3022,1479.782
3023,1481.080
3024,1481.971
3025,1482.341
3026,1482.153
3027,1481.491
3028,1480.470
3029,1479.167
3030,1477.619
3031,1475.852
3032,1473.929
3033,1471.990
3034,1470.177
3035,1468.530
3036,1466.951
3037,1465.241
3038,1463.198
3039,1460.665
3040,1457.575
3041,1454.026
3042,1450.289
3043,1446.729
3044,1443.670
3045,1441.309
3046,1439.678
3047,1438.609
3048,1437.760
3049,1436.733
3050,1435.263
3051,1433.314
3052,1430.922
3053,1428.108
3054,1424.960
3055,1421.650
3056,1418.440
3057,1415.667
3058,1413.629
3059,1412.498
3060,1412.259
3061,1412.754
3062,1413.702
3063,1414.870
3064,1416.141
3065,1417.450
3066,1418.758
3067,1420.050
3068,1421.265
3069,1422.276
3070,1422.859
3071,1422.823
3072,1422.109
3073,1420.905
3074,1419.524
3075,1418.111
3076,1416.532
3077,1414.510
3078,1411.941
3079,1409.012
3080,1406.140
3081,1403.732
3082,1401.992
3083,1400.861
3084,1400.027
3085,1399.011
3086,1397.411
3087,1395.138
3088,1392.475
3089,1389.869
3090,1387.717
3091,1386.237
3092,1385.507
3093,1385.549
3094,1386.304
3095,1387.639
3096,1389.322
3097,1391.052
3098,1392.527
3099,1393.601
3100,1394.289
3101,1394.711
3102,1394.945
3103,1394.992
3104,1394.825
3105,1394.398
3106,1393.700
3107,1392.736
3108,1391.599
3109,1390.380
3110,1389.113
3111,1387.680
3112,1385.960
3113,1383.980
3114,1381.859
3115,1379.753
3116,1377.840
3117,1376.313
3118,1375.297
3119,1374.844
3120,1374.922
3121,1375.526
3122,1376.683
3123,1378.398
3124,1380.577
3125,1382.995
3126,1385.298
3127,1387.044
3128,1387.826
3129,1387.487
3130,1386.252
3131,1384.642
3132,1383.198
3133,1382.343
3134,1382.323
3135,1383.182
3136,1384.814
3137,1386.951
3138,1389.306
3139,1391.683
3140,1394.059
3141,1396.399
3142,1398.489
3143,1400.027
3144,1400.829
3145,1400.908
3146,1400.350
3147,1399.203
3148,1397.551
3149,1395.597
3150,1393.575
3151,1391.688
3152,1390.010
3153,1388.446
3154,1386.872
3155,1385.215
3156,1383.526
3157,1381.921
3158,1380.509
3159,1379.373
3160,1378.565
3161,1378.127
3162,1378.054
3163,1378.356
3164,1379.008
3165,1380.003
3166,1381.317
3167,1382.938
3168,1384.782
3169,1386.680
3170,1388.353
3171,1389.546
3172,1390.151
3173,1390.229
3174,1389.906
3175,1389.223
3176,1388.222
3177,1387.003
3178,1385.684
3179,1384.339
3180,1383.031
3181,1381.775
3182,1380.571
3183,1379.425
3184,1378.257
3185,1376.835
3186,1374.906
3187,1372.394
3188,1369.434
3189,1366.323
3190,1363.404
3191,1360.845
3192,1358.682
3193,1356.848
3194,1355.201
3195,1353.559
3196,1351.766
3197,1349.801
3198,1347.753
3199,1345.799
3200,1344.027
3201,1342.359
3202,1340.618
3203,1338.659
3204,1336.522
3205,1334.422
3206,1332.551
3207,1330.893
3208,1329.205
3209,1327.104
3210,1324.217
3211,1320.345
3212,1315.487
3213,1309.775
3214,1303.354
3215,1296.345
3216,1288.887
3217,1281.225
3218,1273.731
3219,1266.846
3220,1260.926
3221,1256.162
3222,1252.639
3223,1250.388
3224,1249.298
3225,1249.142
3226,1249.674
3227,1250.690
3228,1252.045
3229,1253.754
3230,1255.896
3231,1258.481
3232,1261.473
3233,1264.975
3234,1269.202
3235,1274.231
3236,1279.891
3237,1285.843
3238,1291.717
3239,1297.236
3240,1302.187
3241,1306.408
3242,1309.796
3243,1312.392
3244,1314.320
3245,1315.711
3246,1316.676
3247,1317.311
3248,1317.744
3249,1318.213
3250,1319.021
3251,1320.381
3252,1322.346
3253,1324.879
3254,1327.896
3255,1331.248
3256,1334.677
3257,1337.924
3258,1340.816
3259,1343.203
3260,1344.981
3261,1346.153
3262,1346.820
3263,1347.117
3264,1347.159
3265,1346.977
3266,1346.481
3267,1345.627
3268,1344.444
3269,1342.995
3270,1341.306
3271,1339.347
3272,1337.095
3273,1334.703
3274,1332.436
3275,1330.534
3276,1329.158
3277,1328.360
3278,1328.147
3279,1328.438
3280,1329.106
3281,1329.986
3282,1330.982
3283,1332.170
3284,1333.692
3285,1335.667
3286,1338.122
3287,1340.999
3288,1344.095
3289,1347.070
3290,1349.598
3291,1351.584
3292,1353.215
3293,1354.706
3294,1356.081
3295,1357.197
3296,1357.958
3297,1358.416
3298,1358.687
3299,1358.891
3300,1359.073
3301,1359.235
3302,1359.349
3303,1359.407
3304,1359.401
3305,1359.417
3306,1359.594
3307,1360.089
3308,1360.960
3309,1362.101
3310,1363.347
3311,1364.551
3312,1365.572
3313,1366.281
3314,1366.588
3315,1366.484
3316,1366.067
3317,1365.483
3318,1364.806
3319,1364.045
3320,1363.248
3321,1362.523
3322,1362.002
3323,1361.747
3324,1361.715
3325,1361.840
3326,1362.028
3327,1362.169
3328,1362.200
3329,1362.153
3330,1362.138
3331,1362.320
3332,1362.836
3333,1363.696
3334,1364.816
3335,1366.083
3336,1367.391
3337,1368.637
3338,1369.773
3339,1370.810
3340,1371.711
3341,1372.389
3342,1372.754
3343,1372.728
3344,1372.326
3345,1371.644
3346,1370.799
3347,1369.872
3348,1368.918
3349,1368.001
3350,1367.167
3351,1366.458
3352,1365.880
3353,1365.358
3354,1364.827
3355,1364.233
3356,1363.467
3357,1362.471
3358,1361.361
3359,1360.449
3360,1360.006
3361,1360.131
3362,1360.710
3363,1361.585
3364,1362.690
3365,1363.967
3366,1365.338
3367,1366.672
3368,1367.808
3369,1368.564
3370,1368.876
3371,1368.835
3372,1368.584
3373,1368.246
3374,1367.902
3375,1367.636
3376,1367.490
3377,1367.480
3378,1367.579
3379,1367.719
3380,1367.782
3381,1367.740
3382,1367.657
3383,1367.693
3384,1367.933
3385,1368.366
3386,1368.960
3387,1369.684
3388,1370.414
3389,1370.982
3390,1371.321
3391,1371.477
3392,1371.550
3393,1371.602
3394,1371.597
3395,1371.456
3396,1371.237
3397,1371.091
3398,1371.164
3399,1371.566
3400,1372.405
3401,1373.812
3402,1375.797
3403,1378.132
3404,1380.431
3405,1382.343
3406,1383.652
3407,1384.246
3408,1384.048
3409,1383.021
3410,1381.265
3411,1379.175
3412,1377.293
3413,1376.042
3414,1375.547
3415,1375.678
3416,1376.121
3417,1376.600
3418,1376.975
3419,1377.257
3420,1377.424
3421,1377.470
3422,1377.429
3423,1377.335
3424,1377.111
3425,1376.647
3426,1375.761
3427,1374.369
3428,1372.592
3429,1370.716
3430,1369.074
3431,1367.912
3432,1367.339
3433,1367.302
3434,1367.610
3435,1367.923
3436,1367.902
3437,1367.396
3438,1366.526
3439,1365.556
3440,1364.754
3441,1364.337
3442,1364.452
3443,1365.124
3444,1366.312
3445,1367.891
3446,1369.658
3447,1371.409
3448,1373.040
3449,1374.526
3450,1375.782
3451,1376.689
3452,1377.184
3453,1377.262
3454,1376.881
3455,1376.016
3456,1374.818
3457,1373.624
3458,1372.769
3459,1372.467
3460,1372.842
3461,1373.916
3462,1375.631
3463,1377.799
3464,1380.233
3465,1382.781
3466,1385.356
3467,1387.837
3468,1390.005
3469,1391.558
3470,1392.324
3471,1392.256
3472,1391.318
3473,1389.510
3474,1387.044
3475,1384.360
3476,1381.926
3477,1380.050
3478,1378.810
3479,1378.143
3480,1377.955
3481,1378.190
3482,1378.753
3483,1379.529
3484,1380.384
3485,1381.155
3486,1381.593
3487,1381.452
3488,1380.702
3489,1379.607
3490,1378.674
3491,1378.403
3492,1379.076
3493,1380.660
3494,1382.833
3495,1385.111
3496,1387.107
3497,1388.660
3498,1389.734
3499,1390.338
3500,1390.484
3501,1390.166
3502,1389.374
3503,1388.113
3504,1386.539
3505,1384.871
3506,1383.240
3507,1381.593
3508,1379.831
3509,1377.997
3510,1376.272
3511,1374.745
3512,1373.327
3513,1371.982
3514,1370.799
3515,1369.840
3516,1369.043
3517,1368.319
3518,1367.657
3519,1367.083
3520,1366.656
3521,1366.463
3522,1366.484
3523,1366.547
3524,1366.500
3525,1366.270
3526,1365.853
3527,1365.249
3528,1364.530
3529,1363.831
3530,1363.237
3531,1362.779
3532,1362.419
3533,1362.101
3534,1361.825
3535,1361.658
3536,1361.684
3537,1361.919
3538,1362.315
3539,1362.794
3540,1363.321
3541,1363.878
3542,1364.478
3543,1365.129
3544,1365.822
3545,1366.531
3546,1367.240
3547,1367.923
3548,1368.569
3549,1369.205
3550,1369.856
3551,1370.492
3552,1371.029
3553,1371.425
3554,1371.774
3555,1372.175
3556,1372.545
3557,1372.712
3558,1372.587
3559,1372.201
3560,1371.659
3561,1371.107
3562,1370.659
3563,1370.372
3564,1370.252
3565,1370.195
3566,1370.038
3567,1369.689
3568,1369.090
3569,1368.230
3570,1367.188
3571,1366.093
3572,1365.061
3573,1364.186
3574,1363.576
3575,1363.321
3576,1363.373
3577,1363.638
3578,1364.092
3579,1364.759
3580,1365.624
3581,1366.578
3582,1367.474
3583,1368.095
3584,1368.110
3585,1367.276
3586,1365.635
3587,1363.539
3588,1361.528
3589,1360.063
3590,1359.365
3591,1359.344
3592,1359.751
3593,1360.355
3594,1361.116
3595,1362.007
3596,1362.857
3597,1363.399
3598,1363.508
3599,1363.175
3600,1362.429
3601,1361.439
3602,1360.652
3603,1360.631
3604,1361.767
3605,1364.092
3606,1367.266
3607,1370.779
3608,1374.182
3609,1377.215
3610,1379.738
3611,1381.723
3612,1383.172
3613,1384.079
3614,1384.402
3615,1384.058
3616,1382.948
3617,1380.973
3618,1378.075
3619,1374.255
3620,1369.632
3621,1364.504
3622,1359.375
3623,1354.852
3624,1351.412
3625,1349.291
3626,1348.478
3627,1348.780
3628,1349.843
3629,1351.313
3630,1352.923
3631,1354.554
3632,1356.165
3633,1357.760
3634,1359.276
3635,1360.642
3636,1361.887
3637,1363.123
3638,1364.353
3639,1365.504
3640,1366.521
3641,1367.401
3642,1368.152
3643,1368.814
3644,1369.455
3645,1370.138
3646,1370.914
3647,1371.769
3648,1372.681
3649,1373.650
3650,1374.594
3651,1375.339
3652,1375.782
3653,1375.881
3654,1375.704
3655,1375.349
3656,1374.911
3657,1374.442
3658,1373.942
3659,1373.390
3660,1372.764
3661,1372.097
3662,1371.472
3663,1370.919
3664,1370.403
3665,1370.059
3666,1370.164
3667,1370.888
3668,1372.123
3669,1373.510
3670,1374.552
3671,1374.906
3672,1374.583
3673,1373.906
3674,1373.343
3675,1373.291
3676,1373.911
3677,1375.104
3678,1376.511
3679,1377.663
3680,1378.242
3681,1378.237
3682,1377.867
3683,1377.340
3684,1376.678
3685,1375.787
3686,1374.682
3687,1373.556
3688,1372.592
3689,1371.826
3690,1371.190
3691,1370.601
3692,1370.018
3693,1369.523
3694,1369.220
3695,1369.137
3696,1369.246
3697,1369.502
3698,1369.846
3699,1370.190
3700,1370.471
3701,1370.664
3702,1370.779
3703,1370.872
3704,1371.008
3705,1371.227
3706,1371.597
3707,1372.128
3708,1372.723
3709,1373.249
3710,1373.556
3711,1373.546
3712,1373.212
3713,1372.650
3714,1371.998
3715,1371.383
3716,1370.924
3717,1370.706
3718,1370.742
3719,1370.977
3720,1371.284
3721,1371.519
3722,1371.566
3723,1371.409
3724,1371.039
3725,1370.450
3726,1369.648
3727,1368.683
3728,1367.698
3729,1366.927
3730,1366.536
3731,1366.609
3732,1367.115
3733,1367.928
3734,1368.798
3735,1369.476
3736,1369.882
3737,1370.091
3738,1370.153
3739,1370.148
3740,1370.205
3741,1370.435
3742,1370.872
3743,1371.576
3744,1372.509
3745,1373.468
3746,1374.166
3747,1374.437
3748,1374.296
3749,1373.827
3750,1373.166
3751,1372.462
3752,1371.826
3753,1371.284
3754,1370.820
3755,1370.487
3756,1370.398
3757,1370.607
3758,1371.055
3759,1371.644
3760,1372.253
3761,1372.754
3762,1373.051
3763,1373.139
3764,1373.046
3765,1372.764
3766,1372.217
3767,1371.409
3768,1370.450
3769,1369.444
3770,1368.402
3771,1367.427
3772,1366.792
3773,1366.776
3774,1367.474
3775,1368.736
3776,1370.304
3777,1371.894
3778,1373.332
3779,1374.536
3780,1375.422
3781,1375.891
3782,1375.933
3783,1375.631
3784,1375.042
3785,1374.250
3786,1373.442
3787,1372.775
3788,1372.222
3789,1371.597
3790,1370.789
3791,1369.893
3792,1369.027
3793,1368.319
3794,1367.917
3795,1368.032
3796,1368.793
3797,1370.216
3798,1372.134
3799,1374.250
3800,1376.188
3801,1377.601
3802,1378.294
3803,1378.226
3804,1377.601
3805,1376.736
3806,1375.954
3807,1375.469
3808,1375.396
3809,1375.782
3810,1376.558
3811,1377.601
3812,1378.680
3813,1379.513
3814,1379.894
3815,1379.847
3816,1379.644
3817,1379.639
3818,1380.087
3819,1381.051
3820,1382.422
3821,1384.100
3822,1386.096
3823,1388.446
3824,1391.125
3825,1394.012
3826,1396.895
3827,1399.464
3828,1401.340
3829,1402.143
3830,1401.632
3831,1399.808
3832,1396.968
3833,1393.611
3834,1390.286
3835,1387.435
3836,1385.345
3837,1384.084
3838,1383.526
3839,1383.407
3840,1383.563
3841,1383.949
3842,1384.517
3843,1385.121
3844,1385.637
3845,1386.018
3846,1386.263
3847,1386.310
3848,1386.085
3849,1385.637
3850,1385.064
3851,1384.485
3852,1384.037
3853,1383.771
3854,1383.568
3855,1383.271
3856,1382.844
3857,1382.380
3858,1382.052
3859,1382.046
3860,1382.500
3861,1383.422
3862,1384.631
3863,1385.835
3864,1386.779
3865,1387.394
3866,1387.774
3867,1387.993
3868,1388.061
3869,1387.988
3870,1387.805
3871,1387.566
3872,1387.300
3873,1387.060
3874,1386.852
3875,1386.638
3876,1386.367
3877,1386.111
3878,1386.023
3879,1386.184
3880,1386.560
3881,1387.091
3882,1387.706
3883,1388.259
3884,1388.509
3885,1388.295
3886,1387.618
3887,1386.581
3888,1385.345
3889,1384.167
3890,1383.255
3891,1382.729
3892,1382.599
3893,1382.844
3894,1383.375
3895,1384.027
3896,1384.595
3897,1384.949
3898,1385.106
3899,1385.179
3900,1385.137
3901,1384.756
3902,1383.855
3903,1382.479
3904,1380.827
3905,1379.013
3906,1377.017
3907,1374.839
3908,1372.603
3909,1370.523
3910,1368.772
3911,1367.422
3912,1366.442
3913,1365.744
3914,1365.244
3915,1364.827
3916,1364.431
3917,1364.186
3918,1364.368
3919,1365.244
3920,1366.901
3921,1369.153
3922,1371.638
3923,1374.015
3924,1375.985
3925,1377.267
3926,1377.663
3927,1377.126
3928,1375.766
3929,1373.827
3930,1371.654
3931,1369.507
3932,1367.349
3933,1364.952
3934,1362.205
3935,1359.281
3936,1356.639
3937,1354.726
3938,1353.778
3939,1353.705
3940,1354.216
3941,1355.003
3942,1355.831
3943,1356.514
3944,1356.811
3945,1356.592
3946,1356.029
3947,1355.508
3948,1355.352
3949,1355.649
3950,1356.342
3951,1357.327
3952,1358.442
3953,1359.506
3954,1360.402
3955,1361.043
3956,1361.345
3957,1361.324
3958,1361.033
3959,1360.371
3960,1359.120
3961,1357.134
3962,1354.554
3963,1351.787
3964,1349.353
3965,1347.665
3966,1346.867
3967,1346.815
3968,1347.128
3969,1347.367
3970,1347.315
3971,1347.086
3972,1346.992
3973,1347.279
3974,1348.014
3975,1349.061
3976,1350.109
3977,1350.859
3978,1351.177
3979,1351.167
3980,1350.984
3981,1350.750
3982,1350.484
3983,1350.119
3984,1349.483
3985,1348.478
3986,1347.227
3987,1346.023
3988,1345.111
3989,1344.511
3990,1344.126
3991,1343.912
3992,1343.980
3993,1344.418
3994,1345.205
3995,1346.216
3996,1347.394
3997,1348.848
3998,1350.802
3999,1353.481
4000,1356.941
4001,1361.022
4002,1365.332
4003,1369.319
4004,1372.535
4005,1374.703
4006,1375.683
4007,1375.339
4008,1373.624
4009,1370.685
4010,1366.844
4011,1362.612
4012,1358.640
4013,1355.592
4014,1353.887
4015,1353.622
4016,1354.549
4017,1356.285
4018,1358.495
4019,1360.965
4020,1363.440
4021,1365.577
4022,1367.094
4023,1367.797
4024,1367.641
4025,1366.687
4026,1365.093
4027,1363.091
4028,1360.965
4029,1358.990
4030,1357.405
4031,1356.436
4032,1356.128
4033,1356.274
4034,1356.524
4035,1356.665
4036,1356.717
4037,1356.775
4038,1356.915
4039,1357.160
4040,1357.483
4041,1357.827
4042,1358.093
4043,1358.140
4044,1357.838
4045,1357.129
4046,1356.029
4047,1354.476
4048,1352.407
4049,1349.942
4050,1347.451
4051,1345.403
4052,1344.167
4053,1343.902
4054,1344.532
4055,1345.794
4056,1347.352
4057,1349.030
4058,1350.786
4059,1352.511
4060,1353.893
4061,1354.581
4062,1354.377
4063,1353.392
4064,1352.027
4065,1350.865
4066,1350.422
4067,1350.938
4068,1352.261
4069,1353.877
4070,1355.081
4071,1355.326
4072,1354.419
4073,1352.538
4074,1350.151
4075,1347.753
4076,1345.684
4077,1344.053
4078,1342.880
4079,1342.145
4080,1341.859
4081,1342.041
4082,1342.666
4083,1343.610
4084,1344.683
4085,1345.741
4086,1346.732
4087,1347.576
4088,1348.196
4089,1348.639
4090,1349.061
4091,1349.541
4092,1350.072
4093,1350.651
4094,1351.318
4095,1352.037
4096,1352.709
4097,1353.267
4098,1353.747
4099,1354.273
4100,1354.893
4101,1355.529
4102,1356.128
4103,1356.676
4104,1357.171
4105,1357.609
4106,1358.010
4107,1358.406
4108,1358.797
4109,1359.209
4110,1359.704
4111,1360.319
4112,1361.027
4113,1361.767
4114,1362.591
4115,1363.722
4116,1365.379
4117,1367.532
4118,1369.835
4119,1371.701
4120,1372.551
4121,1372.035
4122,1370.231
4123,1367.594
4124,1364.780
4125,1362.377
4126,1360.762
4127,1360.126
4128,1360.511
4129,1361.794
4130,1363.743
4131,1366.130
4132,1368.829
4133,1371.727
4134,1374.630
4135,1377.262
4136,1379.300
4137,1380.488
4138,1380.780
4139,1380.358
4140,1379.612
4141,1378.977
4142,1378.805
4143,1379.279
4144,1380.425
4145,1382.130
4146,1384.188
4147,1386.429
4148,1388.780
4149,1391.156
4150,1393.335
4151,1395.018
4152,1396.055
4153,1396.597
4154,1396.952
4155,1397.358
4156,1397.859
4157,1398.390
4158,1398.927
4159,1399.412
4160,1399.698
4161,1399.594
4162,1399.115
4163,1398.468
4164,1397.900
4165,1397.536
4166,1397.317
4167,1397.082
4168,1396.806
4169,1396.582
4170,1396.478
4171,1396.431
4172,1396.384
4173,1396.311
4174,1396.186
4175,1395.951
4176,1395.602
4177,1395.190
4178,1394.758
4179,1394.268
4180,1393.637
4181,1392.819
4182,1391.829
4183,1390.828
4184,1390.109
4185,1389.984
4186,1390.651
4187,1392.121
4188,1394.179
4189,1396.353
4190,1398.036
4191,1398.750
4192,1398.343
4193,1397.061
4194,1395.373
4195,1393.747
4196,1392.511
4197,1391.855
4198,1391.954
4199,1392.949
4200,1394.857
4201,1397.442
4202,1400.298
4203,1402.951
4204,1404.999
4205,1406.156
4206,1406.281
4207,1405.358
4208,1403.534
4209,1401.163
4210,1398.766
4211,1396.863
4212,1395.805
4213,1395.774
4214,1396.822
4215,1398.854
4216,1401.528
4217,1404.290
4218,1406.547
4219,1407.844
4220,1407.980
4221,1406.948
4222,1404.941
4223,1402.403
4224,1399.860
4225,1397.770
4226,1396.389
4227,1395.784
4228,1395.816
4229,1396.175
4230,1396.519
4231,1396.670
4232,1396.551
4233,1396.087
4234,1395.201
4235,1393.960
4236,1392.506
4237,1390.974
4238,1389.483
4239,1388.108
4240,1386.867
4241,1385.762
4242,1384.809
4243,1384.042
4244,1383.526
4245,1383.443
4246,1383.964
4247,1385.199
4248,1387.123
4249,1389.551
4250,1392.074
4251,1394.158
4252,1395.268
4253,1395.096
4254,1393.580
4255,1390.979
4256,1387.810
4257,1384.689
4258,1382.124
4259,1380.425
4260,1379.680
4261,1379.790
4262,1380.509
4263,1381.515
4264,1382.463
4265,1383.031
4266,1383.052
4267,1382.536
4268,1381.598
4269,1380.363
4270,1378.987
4271,1377.642
4272,1376.491
4273,1375.589
4274,1374.979
4275,1374.719
4276,1374.833
4277,1375.209
4278,1375.709
4279,1376.220
4280,1376.610
4281,1376.657
4282,1376.199
4283,1375.339
4284,1374.396
4285,1373.655
4286,1373.254
4287,1373.181
4288,1373.353
4289,1373.598
4290,1373.760
4291,1373.765
4292,1373.562
4293,1373.155
4294,1372.723
4295,1372.483
4296,1372.556
4297,1373.009
4298,1373.953
4299,1375.381
4300,1377.038
4301,1378.560
4302,1379.790
4303,1380.759
4304,1381.530
4305,1382.114
4306,1382.510
4307,1382.713
4308,1382.729
4309,1382.573
4310,1382.328
4311,1382.109
4312,1381.979
4313,1381.900
4314,1381.827
4315,1381.754
4316,1381.697
4317,1381.645
4318,1381.624
4319,1381.739
4320,1382.145
4321,1383.031
4322,1384.522
4323,1386.617
4324,1389.098
4325,1391.573
4326,1393.596
4327,1394.878
4328,1395.347
4329,1395.024
4330,1394.018
4331,1392.480
4332,1390.640
4333,1388.790
4334,1387.227
4335,1386.122
4336,1385.413
4337,1384.902
4338,1384.350
4339,1383.662
4340,1382.854
4341,1381.968
4342,1380.967
4343,1379.816
4344,1378.513
4345,1377.116
4346,1375.740
4347,1374.562
4348,1373.692
4349,1373.113
4350,1372.696
4351,1372.290
4352,1371.795
4353,1371.190
4354,1370.560
4355,1370.007
4356,1369.596
4357,1369.330
4358,1369.168
4359,1369.132
4360,1369.304
4361,1369.752
4362,1370.471
4363,1371.550
4364,1373.082
4365,1374.958
4366,1376.798
4367,1378.096
4368,1378.497
4369,1377.934
4370,1376.678
4371,1375.177
4372,1373.822
4373,1372.749
4374,1371.753
4375,1370.466
4376,1368.652
4377,1366.422
4378,1364.076
4379,1361.908
4380,1360.068
4381,1358.667
4382,1357.859
4383,1357.817
4384,1358.635
4385,1360.287
4386,1362.612
4387,1365.285
4388,1367.912
4389,1370.117
4390,1371.607
4391,1372.243
4392,1372.144
4393,1371.612
4394,1370.909
4395,1370.179
4396,1369.486
4397,1368.871
4398,1368.371
4399,1368.016
4400,1367.771
4401,1367.532
4402,1367.177
4403,1366.625
4404,1365.734
4405,1364.353
4406,1362.523
4407,1360.496
4408,1358.614
4409,1357.145
4410,1356.227
4411,1355.810
4412,1355.711
4413,1355.774
4414,1355.894
4415,1355.956
4416,1355.743
4417,1355.096
4418,1354.127
4419,1353.163
4420,1352.564
4421,1352.522
4422,1353.095
4423,1354.205
4424,1355.701
4425,1357.410
4426,1359.177
4427,1360.861
4428,1362.268
4429,1363.284
4430,1363.910
4431,1364.217
4432,1364.238
4433,1364.024
4434,1363.633
4435,1363.044
4436,1362.184
4437,1361.027
4438,1359.672
4439,1358.276
4440,1357.067
4441,1356.306
4442,1356.212
4443,1356.879
4444,1358.255
4445,1360.183
4446,1362.419
4447,1364.691
4448,1366.693
4449,1368.183
4450,1369.038
4451,1369.340
4452,1369.257
4453,1368.965
4454,1368.595
4455,1368.199
4456,1367.709
4457,1367.089
4458,1366.526
4459,1366.354
4460,1366.833
4461,1368.011
4462,1369.632
4463,1371.164
4464,1372.024
4465,1371.816
4466,1370.440
4467,1368.089
4468,1365.186
4469,1362.247
4470,1359.719
4471,1357.926
4472,1357.056
4473,1357.192
4474,1358.286
4475,1360.167
4476,1362.581
4477,1365.186
4478,1367.688
4479,1369.908
4480,1371.810
4481,1373.431
4482,1374.739
4483,1375.719
4484,1376.465
4485,1377.147
4486,1377.929
4487,1378.893
4488,1379.977
4489,1380.962
4490,1381.546
4491,1381.525
4492,1380.910
4493,1379.920
4494,1378.852
4495,1377.924
4496,1377.173
4497,1376.470
4498,1375.636
4499,1374.599
4500,1373.384
4501,1372.009
4502,1370.481
4503,1368.876
4504,1367.360
4505,1366.213
4506,1365.718
4507,1365.973
4508,1366.875
4509,1368.214
4510,1369.731
4511,1371.211
4512,1372.452
4513,1373.296
4514,1373.697
4515,1373.702
4516,1373.317
4517,1372.540
4518,1371.545
4519,1370.617
4520,1369.960
4521,1369.632
4522,1369.627
4523,1369.877
4524,1370.299
4525,1370.852
4526,1371.612
4527,1372.639
4528,1373.953
4529,1375.485
4530,1377.100
4531,1378.643
4532,1379.941
4533,1380.868
4534,1381.348
4535,1381.431
4536,1381.317
4537,1381.322
4538,1381.734
4539,1382.630
4540,1383.813
4541,1384.913
4542,1385.533
4543,1385.481
4544,1384.850
4545,1383.834
4546,1382.468
4547,1380.597
4548,1378.111
4549,1375.099
4550,1371.899
4551,1368.918
4552,1366.479
4553,1364.754
4554,1363.738
4555,1363.305
4556,1363.253
4557,1363.414
4558,1363.743
4559,1364.353
4560,1365.421
4561,1367.089
4562,1369.418
4563,1372.389
4564,1375.855
4565,1379.576
4566,1383.214
4567,1386.424
4568,1388.988
4569,1390.760
4570,1391.636
4571,1391.594
4572,1390.609
4573,1388.696
4574,1386.080
4575,1383.250
4576,1380.785
4577,1379.107
4578,1378.393
4579,1378.617
4580,1379.592
4581,1381.014
4582,1382.515
4583,1383.735
4584,1384.392
4585,1384.407
4586,1383.964
4587,1383.339
4588,1382.776
4589,1382.489
4590,1382.739
4591,1383.745
4592,1385.512
4593,1387.816
4594,1390.192
4595,1392.084
4596,1393.038
4597,1392.855
4598,1391.709
4599,1390.093
4600,1388.634
4601,1387.790
4602,1387.711
4603,1388.227
4604,1389.020
4605,1389.791
4606,1390.411
4607,1390.839
4608,1390.979
4609,1390.708
4610,1390.067
4611,1389.275
4612,1388.540
4613,1388.040
4614,1387.972
4615,1388.472
4616,1389.489
4617,1390.812
4618,1392.272
4619,1393.825
4620,1395.461
4621,1397.014
4622,1398.250
4623,1399.026
4624,1399.354
4625,1399.323
4626,1399.037
4627,1398.588
4628,1398.083
4629,1397.635
4630,1397.364
4631,1397.332
4632,1397.504
4633,1397.713
4634,1397.676
4635,1397.124
4636,1395.925
4637,1394.039
4638,1391.427
4639,1388.175
4640,1384.543
4641,1380.900
4642,1377.585
4643,1374.812
4644,1372.655
4645,1371.112
4646,1370.179
4647,1369.851
4648,1370.106
4649,1370.867
4650,1372.040
4651,1373.530
4652,1375.198
4653,1376.861
4654,1378.289
4655,1379.300
4656,1379.847
4657,1380.024
4658,1379.967
4659,1379.758
4660,1379.461
4661,1379.055
4662,1378.482
4663,1377.778
4664,1377.106
4665,1376.616
4666,1376.386
4667,1376.412
4668,1376.574
4669,1376.704
4670,1376.710
4671,1376.673
4672,1376.762
4673,1377.027
4674,1377.335
4675,1377.465
4676,1377.257
4677,1376.689
4678,1375.933
4679,1375.182
4680,1374.422
4681,1373.473
4682,1372.181
4683,1370.596
4684,1368.908
4685,1367.266
4686,1365.817
4687,1364.775
4688,1364.368
4689,1364.670
4690,1365.551
4691,1366.703
4692,1367.829
4693,1368.767
4694,1369.512
4695,1370.085
4696,1370.445
4697,1370.565
4698,1370.382
4699,1369.882
4700,1369.147
4701,1368.277
4702,1367.396
4703,1366.766
4704,1366.687
4705,1367.370
4706,1368.814
4707,1370.815
4708,1372.983
4709,1374.917
4710,1376.360
4711,1377.210
4712,1377.377
4713,1376.829
4714,1375.657
4715,1374.093
4716,1372.467
4717,1371.024
4718,1369.861
4719,1368.960
4720,1368.282
4721,1367.745
4722,1367.281
4723,1366.844
4724,1366.437
4725,1366.140
4726,1366.005
4727,1366.083
4728,1366.343
4729,1366.724
4730,1367.167
4731,1367.620
4732,1368.027
4733,1368.449
4734,1369.048
4735,1369.898
4736,1370.872
4737,1371.738
4738,1372.420
4739,1372.983
4740,1373.431
4741,1373.582
4742,1373.280
4743,1372.603
4744,1371.790
4745,1371.034
4746,1370.341
4747,1369.622
4748,1368.855
4749,1368.053
4750,1367.245
4751,1366.515
4752,1365.968
4753,1365.614
4754,1365.405
4755,1365.270
4756,1365.103
4757,1364.764
4758,1364.128
4759,1363.159
4760,1361.955
4761,1360.730
4762,1359.824
4763,1359.500
4764,1359.808
4765,1360.532
4766,1361.283
4767,1361.668
4768,1361.528
4769,1361.069
4770,1360.762
4771,1361.069
4772,1362.304
4773,1364.571
4774,1367.756
4775,1371.524
4776,1375.370
4777,1378.742
4778,1381.197
4779,1382.479
4780,1382.552
4781,1381.551
4782,1379.732
4783,1377.429
4784,1374.995
4785,1372.769
4786,1370.951
4787,1369.637
4788,1368.788
4789,1368.230
4790,1367.709
4791,1367.083
4792,1366.396
4793,1365.734
4794,1365.108
4795,1364.483
4796,1363.904
4797,1363.467
4798,1363.248
4799,1363.279
4800,1363.440
4801,1363.571
4802,1363.534
4803,1363.315
4804,1363.039
4805,1362.867
4806,1362.904
4807,1363.143
4808,1363.451
4809,1363.696
4810,1363.769
4811,1363.586
4812,1363.070
4813,1362.200
4814,1361.017
4815,1359.646
4816,1358.296
4817,1357.171
4818,1356.389
4819,1355.977
4820,1355.878
4821,1355.993
4822,1356.186
4823,1356.326
4824,1356.431
4825,1356.592
4826,1356.884
4827,1357.311
4828,1357.822
4829,1358.343
4830,1358.828
4831,1359.276
4832,1359.657
4833,1359.917
4834,1360.131
4835,1360.433
4836,1360.902
4837,1361.502
4838,1362.127
4839,1362.607
4840,1362.825
4841,1362.789
4842,1362.607
4843,1362.403
4844,1362.216
4845,1361.986
4846,1361.653
4847,1361.298
4848,1361.059
4849,1361.043
4850,1361.283
4851,1361.726
4852,1362.210
4853,1362.560
4854,1362.685
4855,1362.653
4856,1362.638
4857,1362.763
4858,1363.070
4859,1363.560
4860,1364.222
4861,1364.983
4862,1365.718
4863,1366.296
4864,1366.614
4865,1366.708
4866,1366.693
4867,1366.609
4868,1366.411
4869,1366.052
4870,1365.536
4871,1364.921
4872,1364.311
4873,1363.831
4874,1363.586
4875,1363.654
4876,1364.071
4877,1364.853
4878,1366.010
4879,1367.438
4880,1368.861
4881,1369.924
4882,1370.336
4883,1370.049
4884,1369.278
4885,1368.366
4886,1367.579
4887,1366.953
4888,1366.396
4889,1365.895
4890,1365.551
4891,1365.494
4892,1365.822
4893,1366.640
4894,1367.959
4895,1369.616
4896,1371.367
4897,1372.978
4898,1374.218
4899,1374.885
4900,1374.932
4901,1374.406
4902,1373.457
4903,1372.410
4904,1371.644
4905,1371.472
4906,1371.993
4907,1373.113
4908,1374.588
4909,1376.079
4910,1377.361
4911,1378.429
4912,1379.430
4913,1380.431
4914,1381.390
4915,1382.255
4916,1382.964
4917,1383.526
4918,1384.110
4919,1384.923
4920,1386.018
4921,1387.289
4922,1388.603
4923,1389.822
4924,1390.828
4925,1391.558
4926,1392.022
4927,1392.277
4928,1392.412
4929,1392.538
4930,1392.725
4931,1392.991
4932,1393.356
4933,1393.809
4934,1394.294
4935,1394.779
4936,1395.248
4937,1395.711
4938,1396.207
4939,1396.749
4940,1397.280
4941,1397.718
4942,1397.999
4943,1398.083
4944,1398.010
4945,1397.864
4946,1397.728
4947,1397.744
4948,1398.078
4949,1398.729
4950,1399.594
4951,1400.496
4952,1401.137
4953,1401.126
4954,1400.214
4955,1398.411
4956,1395.915
4957,1393.001
4958,1389.984
4959,1387.128
4960,1384.678
4961,1382.844
4962,1381.801
4963,1381.650
4964,1382.396
4965,1383.985
4966,1386.278
4967,1389.046
4968,1391.912
4969,1394.398
4970,1396.102
4971,1396.842
4972,1396.769
4973,1396.274
4974,1395.868
4975,1395.956
4976,1396.691
4977,1397.916
4978,1399.255
4979,1400.329
4980,1400.981
4981,1401.262
4982,1401.241
4983,1400.928
4984,1400.407
4985,1399.787
4986,1399.089
4987,1398.260
4988,1397.374
4989,1396.587
4990,1395.967
4991,1395.513
4992,1395.222
4993,1395.107
4994,1395.185
4995,1395.477
4996,1395.941
4997,1396.493
4998,1397.113
4999,1397.754
5000,1398.255
5001,1398.385
5002,1397.958
5003,1396.853
5004,1395.159
5005,1393.220
5006,1391.506
5007,1390.364
5008,1389.984
5009,1390.354
5010,1391.349
5011,1392.809
5012,1394.581
5013,1396.452
5014,1398.072
5015,1399.078
5016,1399.266
5017,1398.698
5018,1397.702
5019,1396.686
5020,1395.883
5021,1395.237
5022,1394.565
5023,1393.768
5024,1392.887
5025,1392.016
5026,1391.172
5027,1390.307
5028,1389.457
5029,1388.749
5030,1388.264
5031,1387.899
5032,1387.482
5033,1386.982
5034,1386.560
5035,1386.398
5036,1386.482
5037,1386.643
5038,1386.758
5039,1386.841
5040,1386.893
5041,1386.841
5042,1386.622
5043,1386.221
5044,1385.632
5045,1384.824
5046,1383.787
5047,1382.578
5048,1381.358
5049,1380.347
5050,1379.685
5051,1379.409
5052,1379.446
5053,1379.654
5054,1379.910
5055,1380.087
5056,1380.134
5057,1380.113
5058,1380.149
5059,1380.259
5060,1380.316
5061,1380.186
5062,1379.784
5063,1379.117
5064,1378.242
5065,1377.283
5066,1376.397
5067,1375.756
5068,1375.511
5069,1375.735
5070,1376.397
5071,1377.356
5072,1378.440
5073,1379.560
5074,1380.676
5075,1381.749
5076,1382.687
5077,1383.438
5078,1383.980
5079,1384.350
5080,1384.579
5081,1384.657
5082,1384.626
5083,1384.631
5084,1384.710
5085,1384.772
5086,1384.720
5087,1384.579
5088,1384.511
5089,1384.652
5090,1384.996
5091,1385.392
5092,1385.736
5093,1386.039
5094,1386.330
5095,1386.601
5096,1386.789
5097,1386.888
5098,1386.997
5099,1387.227
5100,1387.628
5101,1388.212
5102,1388.858
5103,1389.364
5104,1389.582
5105,1389.468
5106,1388.973
5107,1388.024
5108,1386.664
5109,1385.095
5110,1383.594
5111,1382.323
5112,1381.233
5113,1380.290
5114,1379.508
5115,1378.867
5116,1378.356
5117,1378.070
5118,1378.138
5119,1378.575
5120,1379.216
5121,1379.769
5122,1380.009
5123,1379.857
5124,1379.352
5125,1378.575
5126,1377.637
5127,1376.668
5128,1375.844
5129,1375.224
5130,1374.823
5131,1374.739
5132,1375.104
5133,1375.891
5134,1376.855
5135,1377.674
5136,1378.080
5137,1378.002
5138,1377.596
5139,1377.241
5140,1377.293
5141,1377.846
5142,1378.721
5143,1379.597
5144,1380.154
5145,1380.170
5146,1379.566
5147,1378.409
5148,1376.902
5149,1375.281
5150,1373.765
5151,1372.509
5152,1371.623
5153,1371.112
5154,1370.919
5155,1370.919
5156,1370.966
5157,1370.951
5158,1370.810
5159,1370.518
5160,1370.028
5161,1369.356
5162,1368.532
5163,1367.615
5164,1366.604
5165,1365.390
5166,1363.842
5167,1361.981
5168,1360.001
5169,1358.072
5170,1356.300
5171,1354.779
5172,1353.627
5173,1352.902
5174,1352.584
5175,1352.683
5176,1353.309
5177,1354.601
5178,1356.519
5179,1358.729
5180,1360.673
5181,1361.783
5182,1361.642
5183,1360.126
5184,1357.410
5185,1354.018
5186,1350.672
5187,1348.035
5188,1346.534
5189,1346.320
5190,1347.326
5191,1349.249
5192,1351.584
5193,1353.820
5194,1355.649
5195,1356.988
5196,1357.749
5197,1357.807
5198,1357.166
5199,1356.045
5200,1354.732
5201,1353.371
5202,1352.006
5203,1350.729
5204,1349.734
5205,1349.181
5206,1349.108
5207,1349.442
5208,1349.984
5209,1350.458
5210,1350.703
5211,1350.823
5212,1351.104
5213,1351.740
5214,1352.673
5215,1353.559
5216,1353.945
5217,1353.585
5218,1352.600
5219,1351.433
5220,1350.599
5221,1350.432
5222,1350.969
5223,1352.011
5224,1353.246
5225,1354.377
5226,1355.295
5227,1356.071
5228,1356.801
5229,1357.416
5230,1357.749
5231,1357.760
5232,1357.655
5233,1357.807
5234,1358.463
5235,1359.625
5236,1361.064
5237,1362.481
5238,1363.659
5239,1364.566
5240,1365.233
5241,1365.718
5242,1366.046
5243,1366.218
5244,1366.213
5245,1366.046
5246,1365.697
5247,1365.166
5248,1364.514
5249,1363.899
5250,1363.508
5251,1363.493
5252,1363.920
5253,1364.775
5254,1366.025
5255,1367.573
5256,1369.288
5257,1371.055
5258,1372.733
5259,1374.187
5260,1375.401
5261,1376.459
5262,1377.424
5263,1378.268
5264,1378.977
5265,1379.607
5266,1380.253
5267,1380.931
5268,1381.510
5269,1381.885
5270,1382.031
5271,1382.057
5272,1382.114
5273,1382.349
5274,1382.833
5275,1383.594
5276,1384.543
5277,1385.424
5278,1385.981
5279,1386.080
5280,1385.757
5281,1385.116
5282,1384.261
5283,1383.323
5284,1382.510
5285,1381.958
5286,1381.682
5287,1381.702
5288,1382.057
5289,1382.646
5290,1383.271
5291,1383.761
5292,1383.996
5293,1383.844
5294,1383.219
5295,1382.229
5296,1381.150
5297,1380.264
5298,1379.748
5299,1379.644
5300,1379.821
5301,1379.967
5302,1379.837
5303,1379.456
5304,1379.081
5305,1378.956
5306,1379.185
5307,1379.680
5308,1380.285
5309,1380.874
5310,1381.410
5311,1381.890
5312,1382.317
5313,1382.661
5314,1382.875
5315,1383.057
5316,1383.370
5317,1383.797
5318,1384.235
5319,1384.610
5320,1384.918
5321,1385.121
5322,1385.241
5323,1385.366
5324,1385.585
5325,1385.997
5326,1386.711
5327,1387.680
5328,1388.712
5329,1389.546
5330,1390.031
5331,1390.140
5332,1389.947
5333,1389.546
5334,1388.931
5335,1388.045
5336,1386.846
5337,1385.460
5338,1384.115
5339,1382.979
5340,1381.994
5341,1381.014
5342,1380.045
5343,1379.347
5344,1379.237
5345,1379.863
5346,1381.072
5347,1382.474
5348,1383.657
5349,1384.371
5350,1384.673
5351,1384.819
5352,1385.038
5353,1385.371
5354,1385.783
5355,1386.242
5356,1386.633
5357,1386.737
5358,1386.419
5359,1385.731
5360,1384.840
5361,1383.839
5362,1382.724
5363,1381.473
5364,1380.181
5365,1378.992
5366,1377.976
5367,1377.147
5368,1376.569
5369,1376.313
5370,1376.439
5371,1376.928
5372,1377.700
5373,1378.664
5374,1379.722
5375,1380.827
5376,1381.999
5377,1383.313
5378,1384.788
5379,1386.388
5380,1388.102
5381,1389.968
5382,1391.980
5383,1394.065
5384,1396.118
5385,1397.994
5386,1399.485
5387,1400.350
5388,1400.459
5389,1399.870
5390,1398.844
5391,1397.671
5392,1396.509
5393,1395.425
5394,1394.429
5395,1393.486
5396,1392.553
5397,1391.730
5398,1391.276
5399,1391.386
5400,1392.032
5401,1392.975
5402,1393.966
5403,1394.893
5404,1395.795
5405,1396.790
5406,1397.926
5407,1399.162
5408,1400.366
5409,1401.335
5410,1401.814
5411,1401.512
5412,1400.246
5413,1398.057
5414,1395.326
5415,1392.616
5416,1390.442
5417,1389.160
5418,1388.889
5419,1389.541
5420,1390.839
5421,1392.465
5422,1394.231
5423,1396.066
5424,1397.989
5425,1400.022
5426,1402.033
5427,1403.727
5428,1404.759
5429,1404.921
5430,1404.102
5431,1402.304
5432,1399.683
5433,1396.504
5434,1393.126
5435,1389.890
5436,1387.060
5437,1384.788
5438,1383.182
5439,1382.328
5440,1382.260
5441,1382.953
5442,1384.350
5443,1386.294
5444,1388.504
5445,1390.588
5446,1392.194
5447,1393.085
5448,1393.173
5449,1392.553
5450,1391.453
5451,1390.046
5452,1388.457
5453,1386.815
5454,1385.267
5455,1384.011
5456,1383.255
5457,1383.104
5458,1383.453
5459,1384.105
5460,1384.845
5461,1385.512
5462,1385.992
5463,1386.268
5464,1386.351
5465,1386.226
5466,1385.820
5467,1385.137
5468,1384.282
5469,1383.360
5470,1382.495
5471,1381.853
5472,1381.473
5473,1381.218
5474,1380.905
5475,1380.436
5476,1379.753
5477,1378.919
5478,1378.117
5479,1377.476
5480,1376.975
5481,1376.569
5482,1376.339
5483,1376.449
5484,1377.095
5485,1378.445
5486,1380.493
5487,1383.104
5488,1386.075
5489,1389.202
5490,1392.251
5491,1394.956
5492,1397.046
5493,1398.375
5494,1398.917
5495,1398.708
5496,1397.812
5497,1396.280
5498,1394.195
5499,1391.730
5500,1389.223
5501,1387.060
5502,1385.486
5503,1384.480
5504,1383.870
5505,1383.542
5506,1383.464
5507,1383.568
5508,1383.657
5509,1383.521
5510,1383.099
5511,1382.495
5512,1381.812
5513,1381.108
5514,1380.379
5515,1379.571
5516,1378.617
5517,1377.481
5518,1376.188
5519,1374.771
5520,1373.311
5521,1371.899
5522,1370.607
5523,1369.481
5524,1368.532
5525,1367.709
5526,1367.010
5527,1366.495
5528,1366.250
5529,1366.323
5530,1366.677
5531,1367.167
5532,1367.605
5533,1367.834
5534,1367.829
5535,1367.672
5536,1367.474
5537,1367.360
5538,1367.401
5539,1367.605
5540,1367.886
5541,1368.141
5542,1368.329
5543,1368.564
5544,1368.939
5545,1369.392
5546,1369.783
5547,1370.049
5548,1370.195
5549,1370.273
5550,1370.310
5551,1370.273
5552,1370.117
5553,1369.809
5554,1369.387
5555,1368.944
5556,1368.600
5557,1368.449
5558,1368.595
5559,1369.100
5560,1369.861
5561,1370.560
5562,1370.898
5563,1370.815
5564,1370.502
5565,1370.268
5566,1370.341
5567,1370.810
5568,1371.623
5569,1372.665
5570,1373.671
5571,1374.250
5572,1374.020
5573,1372.827
5574,1370.841
5575,1368.491
5576,1366.234
5577,1364.436
5578,1363.274
5579,1362.789
5580,1362.930
5581,1363.607
5582,1364.785
5583,1366.437
5584,1368.449
5585,1370.601
5586,1372.597
5587,1374.140
5588,1375.068
5589,1375.480
5590,1375.678
5591,1375.891
5592,1376.162
5593,1376.491
5594,1377.022
5595,1377.992
5596,1379.571
5597,1381.728
5598,1384.261
5599,1386.836
5600,1389.181
5601,1391.229
5602,1393.069
5603,1394.773
5604,1396.373
5605,1397.900
5606,1399.427
5607,1401.007
5608,1402.581
5609,1403.972
5610,1405.030
5611,1405.791
5612,1406.484
5613,1407.292
5614,1408.225
5615,1409.137
5616,1409.934
5617,1410.622
5618,1411.196
5619,1411.612
5620,1411.842
5621,1411.873
5622,1411.685
5623,1411.258
5624,1410.549
5625,1409.512
5626,1408.037
5627,1406.015
5628,1403.498
5629,1400.699
5630,1397.885
5631,1395.263
5632,1392.970
5633,1391.156
5634,1389.937
5635,1389.259
5636,1388.931
5637,1388.712
5638,1388.504
5639,1388.306
5640,1388.139
5641,1387.956
5642,1387.706
5643,1387.388
5644,1386.971
5645,1386.388
5646,1385.606
5647,1384.715
5648,1383.797
5649,1382.891
5650,1381.999
5651,1381.155
5652,1380.472
5653,1380.055
5654,1379.941
5655,1380.087
5656,1380.321
5657,1380.379
5658,1380.019
5659,1379.149
5660,1377.846
5661,1376.402
5662,1375.141
5663,1374.255
5664,1373.728
5665,1373.468
5666,1373.405
5667,1373.494
5668,1373.619
5669,1373.635
5670,1373.494
5671,1373.249
5672,1372.936
5673,1372.577
5674,1372.191
5675,1371.831
5676,1371.555
5677,1371.352
5678,1371.154
5679,1370.914
5680,1370.617
5681,1370.237
5682,1369.762
5683,1369.272
5684,1368.908
5685,1368.777
5686,1368.923
5687,1369.267
5688,1369.710
5689,1370.242
5690,1370.878
5691,1371.566
5692,1372.181
5693,1372.624
5694,1372.832
5695,1372.806
5696,1372.644
5697,1372.498
5698,1372.420
5699,1372.410
5700,1372.509
5701,1372.723
5702,1373.009
5703,1373.275
5704,1373.452
5705,1373.494
5706,1373.384
5707,1373.207
5708,1373.067
5709,1373.087
5710,1373.364
5711,1374.020
5712,1375.141
5713,1376.631
5714,1378.164
5715,1379.305
5716,1379.732
5717,1379.315
5718,1378.143
5719,1376.428
5720,1374.536
5721,1372.900
5722,1371.894
5723,1371.701
5724,1372.300
5725,1373.551
5726,1375.229
5727,1377.048
5728,1378.742
5729,1380.108
5730,1381.072
5731,1381.781
5732,1382.526
5733,1383.495
5734,1384.610
5735,1385.596
5736,1386.278
5737,1386.669
5738,1386.841
5739,1386.711
5740,1386.070
5741,1384.829
5742,1383.172
5743,1381.457
5744,1379.977
5745,1378.904
5746,1378.377
5747,1378.539
5748,1379.472
5749,1381.082
5750,1383.099
5751,1385.147
5752,1386.945
5753,1388.425
5754,1389.671
5755,1390.781
5756,1391.652
5757,1391.985
5758,1391.427
5759,1389.822
5760,1387.341
5761,1384.392
5762,1381.452
5763,1378.935
5764,1377.142
5765,1376.246
5766,1376.298
5767,1377.215
5768,1378.815
5769,1380.827
5770,1382.844
5771,1384.345
5772,1384.892
5773,1384.423
5774,1383.255
5775,1381.848
5776,1380.577
5777,1379.670
5778,1379.227
5779,1379.258
5780,1379.717
5781,1380.467
5782,1381.358
5783,1382.312
5784,1383.344
5785,1384.501
5786,1385.747
5787,1386.935
5788,1387.883
5789,1388.582
5790,1389.197
5791,1389.869
5792,1390.588
5793,1391.203
5794,1391.542
5795,1391.448
5796,1390.760
5797,1389.431
5798,1387.602
5799,1385.559
5800,1383.589
5801,1381.900
5802,1380.571
5803,1379.670
5804,1379.227
5805,1379.258
5806,1379.727
5807,1380.571
5808,1381.728
5809,1383.146
5810,1384.782
5811,1386.544
5812,1388.300
5813,1389.885
5814,1391.078
5815,1391.693
5816,1391.693
5817,1391.177
5818,1390.255
5819,1388.999
5820,1387.529
5821,1385.966
5822,1384.392
5823,1382.969
5824,1381.874
5825,1381.202
5826,1380.926
5827,1380.962
5828,1381.202
5829,1381.551
5830,1381.885
5831,1382.104
5832,1382.151
5833,1381.958
5834,1381.494
5835,1380.796
5836,1379.993
5837,1379.331
5838,1379.024
5839,1379.138
5840,1379.581
5841,1380.227
5842,1380.978
5843,1381.775
5844,1382.562
5845,1383.235
5846,1383.761
5847,1384.173
5848,1384.558
5849,1384.923
5850,1385.132
5851,1385.022
5852,1384.621
5853,1384.074
5854,1383.469
5855,1382.781
5856,1382.010
5857,1381.192
5858,1380.363
5859,1379.576
5860,1378.836
5861,1378.044
5862,1377.085
5863,1376.022
5864,1375.099
5865,1374.604
5866,1374.588
5867,1374.854
5868,1375.104
5869,1375.214
5870,1375.235
5871,1375.245
5872,1375.276
5873,1375.396
5874,1375.688
5875,1376.199
5876,1376.981
5877,1378.075
5878,1379.498
5879,1381.218
5880,1383.136
5881,1385.132
5882,1387.107
5883,1388.999
5884,1390.792
5885,1392.397
5886,1393.585
5887,1394.075
5888,1393.721
5889,1392.657
5890,1391.282
5891,1390.119
5892,1389.556
5893,1389.728
5894,1390.484
5895,1391.547
5896,1392.621
5897,1393.434
5898,1393.840
5899,1393.887
5900,1393.658
5901,1393.173
5902,1392.381
5903,1391.282
5904,1389.932
5905,1388.452
5906,1387.018
5907,1385.726
5908,1384.538
5909,1383.438
5910,1382.385
5911,1381.296
5912,1380.134
5913,1378.997
5914,1378.023
5915,1377.314
5916,1376.923
5917,1376.809
5918,1376.819
5919,1376.772
5920,1376.553
5921,1376.136
5922,1375.521
5923,1374.745
5924,1373.937
5925,1373.228
5926,1372.644
5927,1372.181
5928,1371.831
5929,1371.592
5930,1371.493
5931,1371.592
5932,1371.821
5933,1371.988
5934,1371.977
5935,1371.831
5936,1371.628
5937,1371.347
5938,1370.940
5939,1370.471
5940,1370.049
5941,1369.788
5942,1369.752
5943,1369.919
5944,1370.226
5945,1370.648
5946,1371.133
5947,1371.612
5948,1372.040
5949,1372.446
5950,1372.832
5951,1373.108
5952,1373.202
5953,1373.119
5954,1372.967
5955,1372.874
5956,1372.936
5957,1373.233
5958,1373.796
5959,1374.557
5960,1375.407
5961,1376.251
5962,1377.038
5963,1377.757
5964,1378.336
5965,1378.695
5966,1378.820
5967,1378.773
5968,1378.622
5969,1378.382
5970,1378.096
5971,1377.788
5972,1377.330
5973,1376.522
5974,1375.308
5975,1373.838
5976,1372.316
5977,1370.904
5978,1369.757
5979,1369.001
5980,1368.652
5981,1368.631
5982,1368.788
5983,1368.923
5984,1368.908
5985,1368.725
5986,1368.423
5987,1368.006
5988,1367.365
5989,1366.260
5990,1364.545
5991,1362.356
5992,1359.980
5993,1357.650
5994,1355.425
5995,1353.241
5996,1351.167
5997,1349.421
5998,1348.212
5999,1347.586
6000,1347.409
6001,1347.461
6002,1347.597
6003,1347.764
6004,1347.842
6005,1347.654
6006,1347.107
6007,1346.325
6008,1345.496
6009,1344.793
6010,1344.386
6011,1344.449
6012,1345.012
6013,1345.929
6014,1347.044
6015,1348.285
6016,1349.603
6017,1351.031
6018,1352.657
6019,1354.633
6020,1357.077
6021,1359.985
6022,1363.112
6023,1366.046
6024,1368.360
6025,1369.799
6026,1370.336
6027,1370.127
6028,1369.366
6029,1368.251
6030,1367.042
6031,1366.036
6032,1365.364
6033,1364.973
6034,1364.816
6035,1364.941
6036,1365.384
6037,1366.145
6038,1367.261
6039,1368.861
6040,1371.044
6041,1373.770
6042,1376.819
6043,1379.774
6044,1382.130
6045,1383.485
6046,1383.740
6047,1383.110
6048,1382.025
6049,1380.868
6050,1379.857
6051,1378.992
6052,1378.122
6053,1377.038
6054,1375.724
6055,1374.401
6056,1373.348
6057,1372.686
6058,1372.321
6059,1372.019
6060,1371.534
6061,1370.700
6062,1369.538
6063,1368.246
6064,1367.120
6065,1366.380
6066,1366.145
6067,1366.463
6068,1367.354
6069,1368.819
6070,1370.831
6071,1373.317
6072,1376.115
6073,1378.909
6074,1381.223
6075,1382.562
6076,1382.682
6077,1381.692
6078,1379.941
6079,1377.861
6080,1375.844
6081,1374.166
6082,1372.947
6083,1372.196
6084,1371.837
6085,1371.758
6086,1371.852
6087,1372.003
6088,1372.118
6089,1372.128
6090,1372.045
6091,1371.920
6092,1371.800
6093,1371.722
6094,1371.691
6095,1371.738
6096,1371.889
6097,1372.149
6098,1372.498
6099,1372.895
6100,1373.296
6101,1373.718
6102,1374.244
6103,1374.990
6104,1376.084
6105,1377.611
6106,1379.576
6107,1381.807
6108,1383.980
6109,1385.721
6110,1386.784
6111,1387.164
6112,1387.055
6113,1386.617
6114,1385.851
6115,1384.751
6116,1383.375
6117,1381.833
6118,1380.316
6119,1379.102
6120,1378.382
6121,1378.158
6122,1378.325
6123,1378.779
6124,1379.388
6125,1380.024
6126,1380.582
6127,1380.941
6128,1380.973
6129,1380.691
6130,1380.222
6131,1379.784
6132,1379.623
6133,1379.910
6134,1380.717
6135,1382.057
6136,1383.844
6137,1385.846
6138,1387.628
6139,1388.655
6140,1388.488
6141,1386.940
6142,1384.220
6143,1380.806
6144,1377.241
6145,1373.926
6146,1371.029
6147,1368.590
6148,1366.573
6149,1364.947
6150,1363.691
6151,1362.820
6152,1362.351
6153,1362.310
6154,1362.742
6155,1363.691
6156,1365.150
6157,1367.073
6158,1369.397
6159,1371.967
6160,1374.541
6161,1376.908
6162,1378.987
6163,1380.712
6164,1381.942
6165,1382.604
6166,1382.766
6167,1382.604
6168,1382.296
6169,1381.916
6170,1381.447
6171,1380.858
6172,1380.154
6173,1379.373
6174,1378.607
6175,1377.939
6176,1377.397
6177,1376.981
6178,1376.715
6179,1376.704
6180,1377.085
6181,1377.903
6182,1379.091
6183,1380.493
6184,1381.848
6185,1382.849
6186,1383.349
6187,1383.453
6188,1383.302
6189,1382.880
6190,1381.994
6191,1380.524
6192,1378.638
6193,1376.767
6194,1375.381
6195,1374.802
6196,1375.146
6197,1376.293
6198,1377.919
6199,1379.607
6200,1380.978
6201,1381.770
6202,1381.864
6203,1381.249
6204,1380.134
6205,1378.971
6206,1378.393
6207,1378.867
6208,1380.582
6209,1383.370
6210,1386.779
6211,1390.187
6212,1392.986
6213,1394.726
6214,1395.201
6215,1394.414
6216,1392.584
6217,1390.119
6218,1387.451
6219,1384.913
6220,1382.625
6221,1380.571
6222,1378.680
6223,1376.881
6224,1375.063
6225,1373.124
6226,1371.008
6227,1368.689
6228,1366.124
6229,1363.284
6230,1360.194
6231,1356.895
6232,1353.397
6233,1349.807
6234,1346.424
6235,1343.594
6236,1341.598
6237,1340.561
6238,1340.457
6239,1341.093
6240,1342.140
6241,1343.255
6242,1344.214
6243,1344.908
6244,1345.241
6245,1345.158
6246,1344.610
6247,1343.610
6248,1342.244
6249,1340.691
6250,1339.076
6251,1337.569
6252,1336.376
6253,1335.688
6254,1335.584
6255,1335.938
6256,1336.543
6257,1337.225
6258,1337.929
6259,1338.653
6260,1339.409
6261,1340.186
6262,1340.988
6263,1341.791
6264,1342.458
6265,1342.838
6266,1342.896
6267,1342.713
6268,1342.432
6269,1342.166
6270,1342.041
6271,1342.140
6272,1342.474
6273,1342.948
6274,1343.500
6275,1344.162
6276,1344.965
6277,1345.856
6278,1346.789
6279,1347.764
6280,1348.759
6281,1349.681
6282,1350.541
6283,1351.469
6284,1352.511
6285,1353.523
6286,1354.330
6287,1354.935
6288,1355.566
6289,1356.425
6290,1357.515
6291,1358.620
6292,1359.542
6293,1360.261
6294,1360.829
6295,1361.215
6296,1361.356
6297,1361.304
6298,1361.189
6299,1361.116
6300,1361.199
6301,1361.523
6302,1362.138
6303,1363.018
6304,1364.061
6305,1365.119
6306,1366.119
6307,1367.151
6308,1368.267
6309,1369.413
6310,1370.461
6311,1371.326
6312,1371.962
6313,1372.363
6314,1372.545
6315,1372.556
6316,1372.530
6317,1372.592
6318,1372.837
6319,1373.296
6320,1373.911
6321,1374.635
6322,1375.412
6323,1376.157
6324,1376.730
6325,1376.923
6326,1376.579
6327,1375.672
6328,1374.291
6329,1372.613
6330,1370.846
6331,1369.210
6332,1367.886
6333,1366.990
6334,1366.515
6335,1366.354
6336,1366.354
6337,1366.369
6338,1366.286
6339,1366.036
6340,1365.567
6341,1364.905
6342,1364.128
6343,1363.289
6344,1362.414
6345,1361.575
6346,1360.928
6347,1360.673
6348,1360.871
6349,1361.465
6350,1362.247
6351,1362.883
6352,1363.128
6353,1362.982
6354,1362.648
6355,1362.351
6356,1362.257
6357,1362.393
6358,1362.680
6359,1363.018
6360,1363.373
6361,1363.722
6362,1364.081
6363,1364.478
6364,1364.842
6365,1365.009
6366,1364.863
6367,1364.431
6368,1363.837
6369,1363.274
6370,1362.956
6371,1362.966
6372,1363.305
6373,1363.883
6374,1364.618
6375,1365.463
6376,1366.396
6377,1367.381
6378,1368.313
6379,1369.048
6380,1369.528
6381,1369.757
6382,1369.726
6383,1369.476
6384,1369.080
6385,1368.626
6386,1368.220
6387,1367.954
6388,1367.876
6389,1368.022
6390,1368.428
6391,1369.126
6392,1370.080
6393,1371.117
6394,1371.941
6395,1372.332
6396,1372.274
6397,1371.930
6398,1371.461
6399,1370.987
6400,1370.549
6401,1370.065
6402,1369.356
6403,1368.267
6404,1366.750
6405,1365.035
6406,1363.513
6407,1362.534
6408,1362.247
6409,1362.633
6410,1363.592
6411,1364.900
6412,1366.218
6413,1367.146
6414,1367.349
6415,1366.724
6416,1365.515
6417,1364.165
6418,1363.117
6419,1362.617
6420,1362.721
6421,1363.289
6422,1364.035
6423,1364.639
6424,1364.926
6425,1365.030
6426,1365.249
6427,1365.853
6428,1366.979
6429,1368.569
6430,1370.429
6431,1372.269
6432,1373.880
6433,1375.266
6434,1376.538
6435,1377.757
6436,1378.914
6437,1379.993
6438,1380.957
6439,1381.713
6440,1382.250
6441,1382.630
6442,1382.948
6443,1383.261
6444,1383.605
6445,1384.053
6446,1384.751
6447,1385.809
6448,1387.128
6449,1388.452
6450,1389.551
6451,1390.427
6452,1391.255
6453,1392.152
6454,1393.080
6455,1393.908
6456,1394.497
6457,1394.763
6458,1394.721
6459,1394.476
6460,1394.143
6461,1393.731
6462,1393.142
6463,1392.220
6464,1390.964
6465,1389.551
6466,1388.233
6467,1387.096
6468,1386.054
6469,1384.986
6470,1383.839
6471,1382.567
6472,1381.155
6473,1379.644
6474,1378.070
6475,1376.470
6476,1374.865
6477,1373.285
6478,1371.831
6479,1370.648
6480,1369.872
6481,1369.559
6482,1369.705
6483,1370.247
6484,1371.076
6485,1372.019
6486,1372.816
6487,1373.265
6488,1373.301
6489,1373.009
6490,1372.504
6491,1371.816
6492,1370.904
6493,1369.762
6494,1368.511
6495,1367.276
6496,1366.140
6497,1365.249
6498,1364.795
6499,1364.863
6500,1365.338
6501,1365.989
6502,1366.604
6503,1367.115
6504,1367.610
6505,1368.230
6506,1369.085
6507,1370.190
6508,1371.487
6509,1372.858
6510,1374.203
6511,1375.469
6512,1376.595
6513,1377.496
6514,1378.138
6515,1378.502
6516,1378.596
6517,1378.492
6518,1378.336
6519,1378.273
6520,1378.388
6521,1378.685
6522,1379.086
6523,1379.529
6524,1380.003
6525,1380.493
6526,1380.962
6527,1381.358
6528,1381.572
6529,1381.468
6530,1380.994
6531,1380.243
6532,1379.357
6533,1378.445
6534,1377.549
6535,1376.678
6536,1375.839
6537,1375.026
6538,1374.276
6539,1373.676
6540,1373.270
6541,1373.004
6542,1372.790
6543,1372.618
6544,1372.493
6545,1372.457
6546,1372.524
6547,1372.655
6548,1372.733
6549,1372.639
6550,1372.264
6551,1371.597
6552,1370.711
6553,1369.741
6554,1368.881
6555,1368.319
6556,1368.188
6557,1368.527
6558,1369.257
6559,1370.237
6560,1371.336
6561,1372.441
6562,1373.457
6563,1374.364
6564,1375.182
6565,1375.980
6566,1376.809
6567,1377.663
6568,1378.502
6569,1379.315
6570,1380.050
6571,1380.670
6572,1381.192
6573,1381.572
6574,1381.708
6575,1381.661
6576,1381.718
6577,1382.187
6578,1383.219
6579,1384.715
6580,1386.367
6581,1387.779
6582,1388.629
6583,1388.848
6584,1388.618
6585,1388.248
6586,1387.889
6587,1387.493
6588,1386.977
6589,1386.367
6590,1385.778
6591,1385.236
6592,1384.616
6593,1383.829
6594,1382.807
6595,1381.536
6596,1380.123
6597,1378.883
6598,1378.169
6599,1378.252
6600,1379.279
6601,1381.233
6602,1383.949
6603,1387.107
6604,1390.255
6605,1392.902
6606,1394.716
6607,1395.649
6608,1395.915
6609,1395.821
6610,1395.560
6611,1395.180
6612,1394.648
6613,1394.028
6614,1393.418
6615,1392.855
6616,1392.345
6617,1391.938
6618,1391.693
6619,1391.516
6620,1391.219
6621,1390.698
6622,1389.926
6623,1388.879
6624,1387.555
6625,1386.132
6626,1384.871
6627,1383.923
6628,1383.250
6629,1382.745
6630,1382.333
6631,1382.052
6632,1381.999
6633,1382.276
6634,1382.938
6635,1383.985
6636,1385.356
6637,1386.971
6638,1388.717
6639,1390.453
6640,1391.954
6641,1392.928
6642,1393.153
6643,1392.558
6644,1391.266
6645,1389.603
6646,1387.925
6647,1386.445
6648,1385.210
6649,1384.214
6650,1383.448
6651,1382.870
6652,1382.432
6653,1382.088
6654,1381.817
6655,1381.598
6656,1381.390
6657,1381.119
6658,1380.723
6659,1380.238
6660,1379.732
6661,1379.232
6662,1378.664
6663,1377.908
6664,1376.991
6665,1376.089
6666,1375.365
6667,1374.818
6668,1374.291
6669,1373.655
6670,1372.947
6671,1372.238
6672,1371.487
6673,1370.539
6674,1369.371
6675,1368.240
6676,1367.605
6677,1367.907
6678,1369.351
6679,1371.816
6680,1374.880
6681,1377.955
6682,1380.436
6683,1381.926
6684,1382.338
6685,1381.838
6686,1380.686
6687,1379.227
6688,1377.893
6689,1377.199
6690,1377.450
6691,1378.627
6692,1380.446
6693,1382.458
6694,1384.173
6695,1385.225
6696,1385.523
6697,1385.288
6698,1384.897
6699,1384.579
6700,1384.251
6701,1383.625
6702,1382.453
6703,1380.691
6704,1378.549
6705,1376.345
6706,1374.270
6707,1372.316
6708,1370.492
6709,1368.939
6710,1367.834
6711,1367.229
6712,1367.104
6713,1367.412
6714,1368.063
6715,1368.928
6716,1369.825
6717,1370.539
6718,1370.893
6719,1370.805
6720,1370.294
6721,1369.517
6722,1368.657
6723,1367.870
6724,1367.292
6725,1366.990
6726,1366.969
6727,1367.198
6728,1367.547
6729,1367.813
6730,1367.844
6731,1367.605
6732,1367.182
6733,1366.739
6734,1366.479
6735,1366.541
6736,1366.943
6737,1367.558
6738,1368.256
6739,1368.965
6740,1369.564
6741,1369.882
6742,1369.804
6743,1369.335
6744,1368.543
6745,1367.594
6746,1366.786
6747,1366.422
6748,1366.630
6749,1367.344
6750,1368.433
6751,1369.710
6752,1370.935
6753,1371.899
6754,1372.488
6755,1372.613
6756,1372.201
6757,1371.300
6758,1370.054
6759,1368.699
6760,1367.568
6761,1366.948
6762,1366.995
6763,1367.672
6764,1368.809
6765,1370.169
6766,1371.545
6767,1372.796
6768,1373.827
6769,1374.594
6770,1375.099
6771,1375.464
6772,1375.724
6773,1375.771
6774,1375.495
6775,1374.990
6776,1374.500
6777,1374.255
6778,1374.369
6779,1374.781
6780,1375.318
6781,1375.782
6782,1376.001
6783,1375.829
6784,1375.209
6785,1374.296
6786,1373.457
6787,1373.072
6788,1373.296
6789,1374.005
6790,1374.823
6791,1375.396
6792,1375.547
6793,1375.287
6794,1374.739
6795,1374.062
6796,1373.358
6797,1372.655
6798,1372.066
6799,1371.779
6800,1371.910
6801,1372.389
6802,1373.030
6803,1373.598
6804,1373.817
6805,1373.489
6806,1372.660
6807,1371.623
6808,1370.685
6809,1369.981
6810,1369.481
6811,1369.116
6812,1368.835
6813,1368.574
6814,1368.345
6815,1368.240
6816,1368.324
6817,1368.527
6818,1368.767
6819,1369.022
6820,1369.351
6821,1369.856
6822,1370.653
6823,1371.711
6824,1372.749
6825,1373.442
6826,1373.556
6827,1373.061
6828,1372.050
6829,1370.669
6830,1369.090
6831,1367.516
6832,1366.145
6833,1365.098
6834,1364.467
6835,1364.259
6836,1364.384
6837,1364.712
6838,1365.155
6839,1365.739
6840,1366.468
6841,1367.276
6842,1368.100
6843,1368.897
6844,1369.564
6845,1369.945
6846,1369.934
6847,1369.564
6848,1368.981
6849,1368.423
6850,1368.058
6851,1367.990
6852,1368.230
6853,1368.756
6854,1369.496
6855,1370.429
6856,1371.649
6857,1373.311
6858,1375.464
6859,1377.945
6860,1380.462
6861,1382.797
6862,1384.928
6863,1387.018
6864,1389.171
6865,1391.292
6866,1393.173
6867,1394.669
6868,1395.706
6869,1396.222
6870,1396.144
6871,1395.472
6872,1394.351
6873,1393.116
6874,1392.199
6875,1391.881
6876,1392.110
6877,1392.532
6878,1392.736
6879,1392.522
6880,1391.975
6881,1391.276
6882,1390.515
6883,1389.723
6884,1389.035
6885,1388.650
6886,1388.644
6887,1388.853
6888,1388.952
6889,1388.702
6890,1388.024
6891,1386.930
6892,1385.351
6893,1383.224
6894,1380.696
6895,1378.153
6896,1375.980
6897,1374.437
6898,1373.676
6899,1373.697
6900,1374.364
6901,1375.453
6902,1376.756
6903,1378.138
6904,1379.529
6905,1380.900
6906,1382.187
6907,1383.209
6908,1383.688
6909,1383.386
6910,1382.213
6911,1380.326
6912,1378.080
6913,1375.839
6914,1373.869
6915,1372.326
6916,1371.295
6917,1370.820
6918,1370.935
6919,1371.586
6920,1372.592
6921,1373.702
6922,1374.766
6923,1375.766
6924,1376.767
6925,1377.741
6926,1378.528
6927,1378.815
6928,1378.377
6929,1377.283
6930,1375.824
6931,1374.323
6932,1372.988
6933,1371.967
6934,1371.399
6935,1371.420
6936,1372.102
6937,1373.369
6938,1374.969
6939,1376.496
6940,1377.523
6941,1377.799
6942,1377.288
6943,1376.032
6944,1374.177
6945,1372.076
6946,1370.237
6947,1369.074
6948,1368.840
6949,1369.601
6950,1371.284
6951,1373.655
6952,1376.350
6953,1378.977
6954,1381.207
6955,1382.797
6956,1383.599
6957,1383.579
6958,1382.859
6959,1381.697
6960,1380.363
6961,1379.159
6962,1378.315
6963,1377.846
6964,1377.622
6965,1377.528
6966,1377.543
6967,1377.564
6968,1377.418
6969,1376.991
6970,1376.313
6971,1375.474
6972,1374.614
6973,1373.812
6974,1373.077
6975,1372.405
6976,1371.868
6977,1371.493
6978,1371.149
6979,1370.669
6980,1369.955
6981,1368.902
6982,1367.495
6983,1365.843
6984,1364.113
6985,1362.367
6986,1360.626
6987,1359.052
6988,1357.911
6989,1357.369
6990,1357.437
6991,1358.046
6992,1359.203
6993,1360.954
6994,1363.222
6995,1365.728
6996,1368.042
6997,1369.752
6998,1370.648
6999,1370.857
7000,1370.721
7001,1370.518
7002,1370.372
7003,1370.226
7004,1369.924
7005,1369.293
7006,1368.256
7007,1367.000
7008,1365.895
7009,1365.265
7010,1365.254
7011,1365.885
7012,1367.037
7013,1368.428
7014,1369.585
7015,1370.070
7016,1369.674
7017,1368.548
7018,1367.000
7019,1365.301
7020,1363.638
7021,1362.158
7022,1360.908
7023,1359.813
7024,1358.687
7025,1357.364
7026,1355.852
7027,1354.403
7028,1353.304
7029,1352.704
7030,1352.631
7031,1353.043
7032,1353.898
7033,1355.143
7034,1356.702
7035,1358.463
7036,1360.334
7037,1362.216
7038,1364.061
7039,1365.880
7040,1367.652
7041,1369.225
7042,1370.257
7043,1370.388
7044,1369.523
7045,1367.923
7046,1366.010
7047,1364.201
7048,1362.815
7049,1362.049
7050,1362.007
7051,1362.659
7052,1363.868
7053,1365.473
7054,1367.318
7055,1369.220
7056,1370.914
7057,1372.113
7058,1372.650
7059,1372.582
7060,1372.024
7061,1371.096
7062,1369.966
7063,1368.928
7064,1368.293
7065,1368.162
7066,1368.381
7067,1368.652
7068,1368.777
7069,1368.720
7070,1368.470
7071,1367.923
7072,1366.932
7073,1365.530
7074,1363.962
7075,1362.601
7076,1361.757
7077,1361.611
7078,1362.210
7079,1363.493
7080,1365.338
7081,1367.532
7082,1369.762
7083,1371.748
7084,1373.353
7085,1374.604
7086,1375.433
7087,1375.672
7088,1375.240
7089,1374.281
7090,1373.035
7091,1371.732
7092,1370.523
7093,1369.496
7094,1368.637
7095,1367.865
7096,1367.057
7097,1366.135
7098,1365.119
7099,1364.118
7100,1363.258
7101,1362.596
7102,1362.075
7103,1361.595
7104,1361.059
7105,1360.345
7106,1359.407
7107,1358.312
7108,1357.202
7109,1356.207
7110,1355.477
7111,1355.180
7112,1355.430
7113,1356.160
7114,1357.129
7115,1358.109
7116,1359.068
7117,1360.100
7118,1361.241
7119,1362.346
7120,1363.195
7121,1363.665
7122,1363.790
7123,1363.691
7124,1363.503
7125,1363.274
7126,1362.940
7127,1362.429
7128,1361.747
7129,1360.928
7130,1360.110
7131,1359.563
7132,1359.500
7133,1359.923
7134,1360.673
7135,1361.559
7136,1362.403
7137,1363.070
7138,1363.539
7139,1363.910
7140,1364.186
7141,1364.269
7142,1364.175
7143,1364.061
7144,1364.154
7145,1364.644
7146,1365.593
7147,1366.943
7148,1368.626
7149,1370.617
7150,1372.785
7151,1374.875
7152,1376.610
7153,1377.773
7154,1378.252
7155,1378.085
7156,1377.496
7157,1376.798
7158,1376.162
7159,1375.480
7160,1374.521
7161,1373.207
7162,1371.722
7163,1370.356
7164,1369.314
7165,1368.637
7166,1368.267
7167,1368.110
7168,1368.053
7169,1368.001
7170,1367.902
7171,1367.787
7172,1367.724
7173,1367.724
7174,1367.761
7175,1367.824
7176,1367.938
7177,1368.053
7178,1368.063
7179,1367.959
7180,1367.808
7181,1367.641
7182,1367.433
7183,1367.182
7184,1366.870
7185,1366.484
7186,1366.072
7187,1365.671
7188,1365.338
7189,1365.218
7190,1365.442
7191,1366.140
7192,1367.433
7193,1369.330
7194,1371.638
7195,1374.020
7196,1376.188
7197,1378.044
7198,1379.680
7199,1381.285
7200,1382.984
7201,1384.814
7202,1386.638
7203,1388.264
7204,1389.614
7205,1390.766
7206,1391.740
7207,1392.459
7208,1392.882
7209,1393.048
7210,1393.001
7211,1392.715
7212,1392.194
7213,1391.490
7214,1390.734
7215,1390.031
7216,1389.473
7217,1389.129
7218,1389.025
7219,1389.150
7220,1389.457
7221,1389.864
7222,1390.260
7223,1390.531
7224,1390.588
7225,1390.396
7226,1390.005
7227,1389.483
7228,1388.905
7229,1388.321
7230,1387.795
7231,1387.404
7232,1387.190
7233,1387.175
7234,1387.248
7235,1387.248
7236,1387.013
7237,1386.414
7238,1385.403
7239,1384.048
7240,1382.578
7241,1381.338
7242,1380.650
7243,1380.629
7244,1381.139
7245,1381.796
7246,1382.119
7247,1381.728
7248,1380.498
7249,1378.591
7250,1376.287
7251,1373.853
7252,1371.472
7253,1369.298
7254,1367.443
7255,1365.973
7256,1364.884
7257,1364.144
7258,1363.753
7259,1363.758
7260,1364.238
7261,1365.270
7262,1366.838
7263,1368.845
7264,1371.055
7265,1373.098
7266,1374.557
7267,1375.156
7268,1374.948
7269,1374.302
7270,1373.640
7271,1373.254
7272,1373.228
7273,1373.457
7274,1373.760
7275,1373.958
7276,1373.979
7277,1373.880
7278,1373.765
7279,1373.666
7280,1373.572
7281,1373.541
7282,1373.702
7283,1374.135
7284,1374.750
7285,1375.354
7286,1375.771
7287,1375.996
7288,1376.167
7289,1376.386
7290,1376.647
7291,1376.876
7292,1376.975
7293,1376.902
7294,1376.657
7295,1376.282
7296,1375.824
7297,1375.276
7298,1374.630
7299,1373.869
7300,1373.004
7301,1372.108
7302,1371.341
7303,1370.872
7304,1370.716
7305,1370.784
7306,1370.987
7307,1371.279
7308,1371.665
7309,1372.108
7310,1372.514
7311,1372.686
7312,1372.425
7313,1371.680
7314,1370.554
7315,1369.199
7316,1367.808
7317,1366.510
7318,1365.384
7319,1364.577
7320,1364.248
7321,1364.446
7322,1365.103
7323,1366.140
7324,1367.485
7325,1369.059
7326,1370.721
7327,1372.373
7328,1373.989
7329,1375.615
7330,1377.335
7331,1379.206
7332,1381.239
7333,1383.308
7334,1385.215
7335,1386.841
7336,1388.175
7337,1389.113
7338,1389.515
7339,1389.374
7340,1388.837
7341,1388.061
7342,1387.128
7343,1386.132
7344,1385.205
7345,1384.433
7346,1383.886
7347,1383.688
7348,1383.917
7349,1384.501
7350,1385.283
7351,1386.148
7352,1387.034
7353,1387.800
7354,1388.321
7355,1388.629
7356,1388.910
7357,1389.338
7358,1389.880
7359,1390.380
7360,1390.745
7361,1391.026
7362,1391.334
7363,1391.751
7364,1392.277
7365,1392.908
7366,1393.596
7367,1394.268
7368,1394.825
7369,1395.154
7370,1395.211
7371,1394.966
7372,1394.367
7373,1393.450
7374,1392.313
7375,1391.042
7376,1389.650
7377,1388.222
7378,1386.857
7379,1385.496
7380,1384.027
7381,1382.484
7382,1381.119
7383,1380.165
7384,1379.696
7385,1379.545
7386,1379.446
7387,1379.263
7388,1379.091
7389,1379.018
7390,1378.961
7391,1378.674
7392,1377.986
7393,1376.944
7394,1375.803
7395,1374.755
7396,1373.848
7397,1372.999
7398,1372.149
7399,1371.326
7400,1370.601
7401,1370.065
7402,1369.814
7403,1369.830
7404,1369.934
7405,1369.981
7406,1369.966
7407,1369.950
7408,1369.981
7409,1370.091
7410,1370.283
7411,1370.575
7412,1370.940
7413,1371.367
7414,1371.826
7415,1372.233
7416,1372.504
7417,1372.556
7418,1372.353
7419,1371.962
7420,1371.508
7421,1371.050
7422,1370.581
7423,1370.111
7424,1369.700
7425,1369.397
7426,1369.241
7427,1369.298
7428,1369.648
7429,1370.330
7430,1371.336
7431,1372.608
7432,1374.052
7433,1375.516
7434,1376.866
7435,1377.945
7436,1378.622
7437,1378.862
7438,1378.747
7439,1378.424
7440,1378.033
7441,1377.658
7442,1377.351
7443,1377.137
7444,1376.975
7445,1376.840
7446,1376.736
7447,1376.683
7448,1376.652
7449,1376.558
7450,1376.293
7451,1375.891
7452,1375.558
7453,1375.553
7454,1376.011
7455,1376.960
7456,1378.315
7457,1379.910
7458,1381.489
7459,1382.766
7460,1383.542
7461,1383.797
7462,1383.693
7463,1383.417
7464,1383.120
7465,1382.885
7466,1382.687
7467,1382.505
7468,1382.396
7469,1382.416
7470,1382.578
7471,1382.823
7472,1383.073
7473,1383.292
7474,1383.495
7475,1383.657
7476,1383.761
7477,1383.834
7478,1383.954
7479,1384.131
7480,1384.287
7481,1384.287
7482,1384.074
7483,1383.709
7484,1383.271
7485,1382.818
7486,1382.401
7487,1382.057
7488,1381.796
7489,1381.556
7490,1381.270
7491,1380.863
7492,1380.321
7493,1379.618
7494,1378.768
7495,1377.820
7496,1376.809
7497,1375.834
7498,1375.021
7499,1374.495
7500,1374.296
7501,1374.359
7502,1374.552
7503,1374.698
7504,1374.667
7505,1374.468
7506,1374.250
7507,1374.182
7508,1374.375
7509,1374.828
7510,1375.485
7511,1376.246
7512,1377.001
7513,1377.648
7514,1378.091
7515,1378.237
7516,1378.070
7517,1377.601
7518,1376.777
7519,1375.516
7520,1373.911
7521,1372.274
7522,1371.044
7523,1370.591
7524,1371.175
7525,1372.889
7526,1375.678
7527,1379.284
7528,1383.282
7529,1387.102
7530,1390.255
7531,1392.511
7532,1393.851
7533,1394.346
7534,1394.138
7535,1393.481
7536,1392.569
7537,1391.427
7538,1389.973
7539,1388.222
7540,1386.429
7541,1385.007
7542,1384.287
7543,1384.371
7544,1385.142
7545,1386.320
7546,1387.592
7547,1388.665
7548,1389.405
7549,1389.859
7550,1390.156
7551,1390.307
7552,1390.260
7553,1390.025
7554,1389.676
7555,1389.259
7556,1388.816
7557,1388.415
7558,1388.113
7559,1387.889
7560,1387.618
7561,1387.206
7562,1386.747
7563,1386.403
7564,1386.237
7565,1386.210
7566,1386.294
7567,1386.518
7568,1386.961
7569,1387.665
7570,1388.535
7571,1389.348
7572,1389.911
7573,1390.104
7574,1389.900
7575,1389.369
7576,1388.618
7577,1387.748
7578,1386.805
7579,1385.840
7580,1384.908
7581,1384.048
7582,1383.250
7583,1382.416
7584,1381.353
7585,1379.910
7586,1378.106
7587,1376.084
7588,1373.932
7589,1371.644
7590,1369.158
7591,1366.479
7592,1363.810
7593,1361.538
7594,1360.032
7595,1359.485
7596,1359.881
7597,1360.960
7598,1362.247
7599,1363.190
7600,1363.399
7601,1362.898
7602,1362.065
7603,1361.356
7604,1361.059
7605,1361.163
7606,1361.387
7607,1361.345
7608,1360.824
7609,1359.933
7610,1359.031
7611,1358.468
7612,1358.468
7613,1359.083
7614,1360.173
7615,1361.517
7616,1362.992
7617,1364.524
7618,1366.052
7619,1367.443
7620,1368.527
7621,1369.106
7622,1369.184
7623,1369.027
7624,1368.970
7625,1369.173
7626,1369.580
7627,1370.038
7628,1370.424
7629,1370.643
7630,1370.648
7631,1370.455
7632,1370.153
7633,1369.861
7634,1369.668
7635,1369.622
7636,1369.679
7637,1369.773
7638,1369.820
7639,1369.794
7640,1369.700
7641,1369.575
7642,1369.424
7643,1369.210
7644,1368.892
7645,1368.433
7646,1367.876
7647,1367.365
7648,1367.010
7649,1366.745
7650,1366.416
7651,1365.921
7652,1365.238
7653,1364.467
7654,1363.774
7655,1363.253
7656,1362.930
7657,1362.779
7658,1362.799
7659,1363.044
7660,1363.592
7661,1364.457
7662,1365.687
7663,1367.266
7664,1368.970
7665,1370.388
7666,1371.128
7667,1370.997
7668,1370.044
7669,1368.543
7670,1366.917
7671,1365.520
7672,1364.556
7673,1364.097
7674,1364.071
7675,1364.295
7676,1364.624
7677,1365.072
7678,1365.666
7679,1366.349
7680,1367.047
7681,1367.719
7682,1368.339
7683,1368.866
7684,1369.225
7685,1369.377
7686,1369.345
7687,1369.199
7688,1368.887
7689,1368.329
7690,1367.615
7691,1366.995
7692,1366.677
7693,1366.745
7694,1367.151
7695,1367.678
7696,1368.068
7697,1368.225
7698,1368.209
7699,1368.048
7700,1367.672
7701,1367.078
7702,1366.442
7703,1366.005
7704,1365.880
7705,1366.025
7706,1366.312
7707,1366.630
7708,1366.906
7709,1367.089
7710,1367.115
7711,1367.031
7712,1366.938
7713,1366.854
7714,1366.703
7715,1366.343
7716,1365.718
7717,1364.910
7718,1364.108
7719,1363.440
7720,1362.971
7721,1362.773
7722,1362.841
7723,1363.065
7724,1363.289
7725,1363.435
7726,1363.513
7727,1363.592
7728,1363.701
7729,1363.831
7730,1363.998
7731,1364.154
7732,1364.160
7733,1363.915
7734,1363.477
7735,1362.930
7736,1362.299
7737,1361.668
7738,1361.194
7739,1361.033
7740,1361.262
7741,1361.851
7742,1362.669
7743,1363.545
7744,1364.306
7745,1364.775
7746,1364.769
7747,1364.217
7748,1363.102
7749,1361.502
7750,1359.568
7751,1357.452
7752,1355.326
7753,1353.392
7754,1351.797
7755,1350.526
7756,1349.499
7757,1348.712
7758,1348.295
7759,1348.431
7760,1349.223
7761,1350.646
7762,1352.543
7763,1354.664
7764,1356.785
7765,1358.802
7766,1360.663
7767,1362.247
7768,1363.378
7769,1363.837
7770,1363.524
7771,1362.612
7772,1361.512
7773,1360.663
7774,1360.319
7775,1360.538
7776,1361.293
7777,1362.560
7778,1364.274
7779,1366.244
7780,1368.100
7781,1369.408
7782,1369.939
7783,1369.851
7784,1369.601
7785,1369.658
7786,1370.289
7787,1371.519
7788,1373.249
7789,1375.292
7790,1377.351
7791,1379.107
7792,1380.446
7793,1381.510
7794,1382.479
7795,1383.427
7796,1384.303
7797,1385.022
7798,1385.439
7799,1385.408
7800,1384.970
7801,1384.371
7802,1383.896
7803,1383.704
7804,1383.792
7805,1384.074
7806,1384.433
7807,1384.762
7808,1384.960
7809,1385.012
7810,1384.986
7811,1384.965
7812,1384.970
7813,1384.991
7814,1385.022
7815,1385.163
7816,1385.543
7817,1386.205
7818,1387.102
7819,1388.102
7820,1389.067
7821,1389.885
7822,1390.526
7823,1391.021
7824,1391.391
7825,1391.579
7826,1391.516
7827,1391.136
7828,1390.416
7829,1389.541
7830,1388.769
7831,1388.280
7832,1388.149
7833,1388.493
7834,1389.416
7835,1390.885
7836,1392.631
7837,1394.242
7838,1395.347
7839,1395.790
7840,1395.618
7841,1394.982
7842,1394.033
7843,1392.965
7844,1391.990
7845,1391.235
7846,1390.677
7847,1390.244
7848,1389.921
7849,1389.708
7850,1389.593
7851,1389.582
7852,1389.692
7853,1389.906
7854,1390.192
7855,1390.526
7856,1390.839
7857,1391.068
7858,1391.125
7859,1390.932
7860,1390.505
7861,1389.906
7862,1389.176
7863,1388.368
7864,1387.560
7865,1386.768
7866,1385.919
7867,1384.954
7868,1383.954
7869,1383.078
7870,1382.510
7871,1382.385
7872,1382.729
7873,1383.459
7874,1384.407
7875,1385.403
7876,1386.289
7877,1387.044
7878,1387.868
7879,1389.046
7880,1390.771
7881,1393.053
7882,1395.654
7883,1398.093
7884,1399.725
7885,1400.016
7886,1398.734
7887,1395.993
7888,1392.240
7889,1388.102
7890,1384.105
7891,1380.545
7892,1377.569
7893,1375.334
7894,1373.989
7895,1373.624
7896,1374.234
7897,1375.730
7898,1377.934
7899,1380.571
7900,1383.308
7901,1385.773
7902,1387.743
7903,1389.207
7904,1390.437
7905,1391.782
7906,1393.470
7907,1395.446
7908,1397.400
7909,1398.984
7910,1399.954
7911,1400.183
7912,1399.631
7913,1398.307
7914,1396.373
7915,1394.075
7916,1391.521
7917,1388.712
7918,1385.736
7919,1382.854
7920,1380.342
7921,1378.362
7922,1376.986
7923,1376.287
7924,1376.313
7925,1377.022
7926,1378.263
7927,1379.816
7928,1381.452
7929,1382.990
7930,1384.324
7931,1385.424
7932,1386.289
7933,1386.951
7934,1387.493
7935,1388.019
7936,1388.530
7937,1388.978
7938,1389.322
7939,1389.510
7940,1389.510
7941,1389.306
7942,1388.936
7943,1388.525
7944,1388.154
7945,1387.826
7946,1387.456
7947,1387.029
7948,1386.612
7949,1386.304
7950,1386.205
7951,1386.372
7952,1386.753
7953,1387.274
7954,1387.842
7955,1388.389
7956,1388.848
7957,1389.207
7958,1389.457
7959,1389.598
7960,1389.697
7961,1389.833
7962,1389.968
7963,1390.052
7964,1390.151
7965,1390.359
7966,1390.562
7967,1390.505
7968,1389.958
7969,1388.921
7970,1387.571
7971,1386.195
7972,1385.027
7973,1384.167
7974,1383.521
7975,1382.995
7976,1382.667
7977,1382.713
7978,1383.209
7979,1383.975
7980,1384.746
7981,1385.403
7982,1385.950
7983,1386.372
7984,1386.622
7985,1386.737
7986,1386.857
7987,1387.044
7988,1387.242
7989,1387.388
7990,1387.456
7991,1387.446
7992,1387.336
7993,1387.013
7994,1386.377
7995,1385.429
7996,1384.230
7997,1382.844
7998,1381.384
7999,1380.003
8000,1378.862
8001,1378.039
8002,1377.585
8003,1377.523
8004,1377.846
8005,1378.560
8006,1379.701
8007,1381.249
8008,1383.104
8009,1385.069
8010,1386.836
8011,1388.029
8012,1388.379
8013,1387.962
8014,1387.206
8015,1386.674
8016,1386.789
8017,1387.779
8018,1389.593
8019,1391.923
8020,1394.257
8021,1396.045
8022,1396.936
8023,1396.952
8024,1396.358
8025,1395.456
8026,1394.398
8027,1393.325
8028,1392.423
8029,1391.751
8030,1391.177
8031,1390.588
8032,1390.067
8033,1389.817
8034,1389.921
8035,1390.286
8036,1390.766
8037,1391.313
8038,1392.027
8039,1392.944
8040,1393.924
8041,1394.789
8042,1395.513
8043,1396.165
8044,1396.723
8045,1396.994
8046,1396.749
8047,1395.899
8048,1394.664
8049,1393.491
8050,1392.803
8051,1392.782
8052,1393.392
8053,1394.492
8054,1395.930
8055,1397.468
8056,1398.828
8057,1399.751
8058,1400.006
8059,1399.469
8060,1398.229
8061,1396.634
8062,1395.201
8063,1394.341
8064,1394.148
8065,1394.424
8066,1394.867
8067,1395.222
8068,1395.404
8069,1395.524
8070,1395.857
8071,1396.582
8072,1397.603
8073,1398.640
8074,1399.438
8075,1399.969
8076,1400.428
8077,1401.048
8078,1401.867
8079,1402.638
8080,1402.971
8081,1402.565
8082,1401.418
8083,1399.850
8084,1398.338
8085,1397.254
8086,1396.712
8087,1396.587
8088,1396.660
8089,1396.806
8090,1396.978
8091,1397.124
8092,1397.171
8093,1397.067
8094,1396.806
8095,1396.488
8096,1396.233
8097,1396.087
8098,1396.009
8099,1395.894
8100,1395.576
8101,1394.862
8102,1393.705
8103,1392.168
8104,1390.276
8105,1388.066
8106,1385.689
8107,1383.370
8108,1381.228
8109,1379.310
8110,1377.674
8111,1376.371
8112,1375.360
8113,1374.567
8114,1373.921
8115,1373.358
8116,1372.806
8117,1372.212
8118,1371.550
8119,1370.846
8120,1370.273
8121,1370.054
8122,1370.231
8123,1370.680
8124,1371.211
8125,1371.764
8126,1372.358
8127,1372.941
8128,1373.322
8129,1373.254
8130,1372.670
8131,1371.711
8132,1370.481
8133,1369.048
8134,1367.610
8135,1366.495
8136,1365.947
8137,1366.031
8138,1366.687
8139,1367.782
8140,1369.137
8141,1370.591
8142,1371.988
8143,1373.207
8144,1374.218
8145,1375.031
8146,1375.605
8147,1375.844
8148,1375.662
8149,1375.052
8150,1374.093
8151,1373.004
8152,1372.035
8153,1371.394
8154,1371.227
8155,1371.659
8156,1372.650
8157,1373.921
8158,1375.068
8159,1375.787
8160,1376.095
8161,1376.267
8162,1376.569
8163,1377.074
8164,1377.642
8165,1378.101
8166,1378.351
8167,1378.445
8168,1378.466
8169,1378.461
8170,1378.528
8171,1378.893
8172,1379.732
8173,1381.035
8174,1382.588
8175,1384.079
8176,1385.210
8177,1385.726
8178,1385.580
8179,1384.986
8180,1384.303
8181,1383.891
8182,1383.949
8183,1384.449
8184,1385.241
8185,1386.184
8186,1387.107
8187,1387.831
8188,1388.342
8189,1388.790
8190,1389.259
8191,1389.655
8192,1389.775
8193,1389.478
8194,1388.801
8195,1387.904
8196,1387.055
8197,1386.487
8198,1386.310
8199,1386.534
8200,1387.149
8201,1388.139
8202,1389.369
8203,1390.588
8204,1391.573
8205,1392.235
8206,1392.595
8207,1392.741
8208,1392.819
8209,1392.923
8210,1393.053
8211,1393.173
8212,1393.220
8213,1393.163
8214,1393.053
8215,1392.954
8216,1392.840
8217,1392.720
8218,1392.637
8219,1392.642
8220,1392.762
8221,1392.981
8222,1393.189
8223,1393.340
8224,1393.476
8225,1393.601
8226,1393.632
8227,1393.517
8228,1393.319
8229,1393.059
8230,1392.673
8231,1392.095
8232,1391.318
8233,1390.375
8234,1389.296
8235,1388.253
8236,1387.467
8237,1387.060
8238,1387.008
8239,1387.206
8240,1387.612
8241,1388.196
8242,1388.874
8243,1389.473
8244,1389.827
8245,1389.859
8246,1389.588
8247,1389.124
8248,1388.535
8249,1387.857
8250,1387.196
8251,1386.617
8252,1386.153
8253,1385.809
8254,1385.575
8255,1385.408
8256,1385.309
8257,1385.377
8258,1385.788
8259,1386.648
8260,1387.873
8261,1389.275
8262,1390.651
8263,1391.797
8264,1392.527
8265,1392.819
8266,1392.777
8267,1392.564
8268,1392.339
8269,1392.168
8270,1392.006
8271,1391.797
8272,1391.558
8273,1391.334
8274,1391.198
8275,1391.198
8276,1391.292
8277,1391.453
8278,1391.740
8279,1392.230
8280,1392.882
8281,1393.543
8282,1394.007
8283,1394.091
8284,1393.768
8285,1393.121
8286,1392.293
8287,1391.417
8288,1390.567
8289,1389.739
8290,1388.936
8291,1388.248
8292,1387.717
8293,1387.378
8294,1387.263
8295,1387.326
8296,1387.529
8297,1387.847
8298,1388.227
8299,1388.566
8300,1388.728
8301,1388.582
8302,1388.113
8303,1387.560
8304,1387.253
8305,1387.336
8306,1387.659
8307,1387.941
8308,1388.024
8309,1387.899
8310,1387.602
8311,1387.201
8312,1386.799
8313,1386.466
8314,1386.179
8315,1385.924
8316,1385.668
8317,1385.278
8318,1384.626
8319,1383.730
8320,1382.807
8321,1382.197
8322,1382.151
8323,1382.729
8324,1383.808
8325,1385.179
8326,1386.622
8327,1387.977
8328,1389.129
8329,1389.979
8330,1390.458
8331,1390.541
8332,1390.224
8333,1389.400
8334,1387.998
8335,1386.111
8336,1384.011
8337,1382.078
8338,1380.686
8339,1380.082
8340,1380.300
8341,1381.176
8342,1382.354
8343,1383.480
8344,1384.350
8345,1384.887
8346,1384.981
8347,1384.496
8348,1383.433
8349,1381.937
8350,1380.285
8351,1378.872
8352,1378.091
8353,1378.111
8354,1378.841
8355,1379.977
8356,1381.249
8357,1382.588
8358,1384.084
8359,1385.757
8360,1387.388
8361,1388.670
8362,1389.348
8363,1389.228
8364,1388.175
8365,1386.138
8366,1383.172
8367,1379.467
8368,1375.250
8369,1370.700
8370,1365.953
8371,1361.210
8372,1356.801
8373,1353.100
8374,1350.359
8375,1348.655
8376,1347.883
8377,1347.837
8378,1348.222
8379,1348.764
8380,1349.311
8381,1349.848
8382,1350.510
8383,1351.448
8384,1352.762
8385,1354.377
8386,1356.071
8387,1357.588
8388,1358.760
8389,1359.579
8390,1360.126
8391,1360.485
8392,1360.673
8393,1360.631
8394,1360.324
8395,1359.870
8396,1359.620
8397,1359.969
8398,1361.126
8399,1362.919
8400,1364.853
8401,1366.296
8402,1366.776
8403,1366.161
8404,1364.676
8405,1362.768
8406,1360.970
8407,1359.740
8408,1359.308
8409,1359.646
8410,1360.485
8411,1361.465
8412,1362.356
8413,1363.149
8414,1363.899
8415,1364.535
8416,1365.004
8417,1365.343
8418,1365.603
8419,1365.833
8420,1366.093
8421,1366.390
8422,1366.677
8423,1366.964
8424,1367.250
8425,1367.521
8426,1367.724
8427,1367.792
8428,1367.662
8429,1367.302
8430,1366.724
8431,1366.088
8432,1365.624
8433,1365.473
8434,1365.572
8435,1365.775
8436,1366.052
8437,1366.463
8438,1367.005
8439,1367.610
8440,1368.235
8441,1368.892
8442,1369.585
8443,1370.273
8444,1370.893
8445,1371.352
8446,1371.612
8447,1371.696
8448,1371.592
8449,1371.222
8450,1370.565
8451,1369.695
8452,1368.694
8453,1367.693
8454,1366.943
8455,1366.698
8456,1367.042
8457,1367.839
8458,1368.934
8459,1370.153
8460,1371.248
8461,1371.956
8462,1372.196
8463,1372.092
8464,1371.764
8465,1371.227
8466,1370.476
8467,1369.601
8468,1368.683
8469,1367.787
8470,1367.063
8471,1366.739
8472,1366.990
8473,1367.803
8474,1369.027
8475,1370.481
8476,1372.050
8477,1373.635
8478,1375.146
8479,1376.444
8480,1377.351
8481,1377.762
8482,1377.668
8483,1377.220
8484,1376.720
8485,1376.491
8486,1376.736
8487,1377.533
8488,1378.810
8489,1380.337
8490,1381.843
8491,1383.125
8492,1384.194
8493,1385.173
8494,1386.143
8495,1387.044
8496,1387.764
8497,1388.207
8498,1388.326
8499,1388.113
8500,1387.612
8501,1386.971
8502,1386.356
8503,1385.877
8504,1385.559
8505,1385.356
8506,1385.147
8507,1384.824
8508,1384.392
8509,1383.902
8510,1383.401
8511,1382.938
8512,1382.635
8513,1382.630
8514,1382.984
8515,1383.615
8516,1384.402
8517,1385.252
8518,1386.070
8519,1386.763
8520,1387.248
8521,1387.451
8522,1387.315
8523,1386.893
8524,1386.304
8525,1385.611
8526,1384.803
8527,1383.964
8528,1383.339
8529,1383.130
8530,1383.344
8531,1383.891
8532,1384.642
8533,1385.392
8534,1385.908
8535,1386.085
8536,1386.028
8537,1385.955
8538,1385.939
8539,1385.939
8540,1385.856
8541,1385.658
8542,1385.408
8543,1385.189
8544,1385.043
8545,1384.960
8546,1384.923
8547,1384.908
8548,1384.845
8549,1384.621
8550,1384.183
8551,1383.553
8552,1382.854
8553,1382.197
8554,1381.588
8555,1381.061
8556,1380.780
8557,1380.947
8558,1381.734
8559,1383.203
8560,1385.288
8561,1387.706
8562,1390.031
8563,1391.839
8564,1392.845
8565,1393.022
8566,1392.605
8567,1391.938
8568,1391.240
8569,1390.583
8570,1389.890
8571,1389.025
8572,1387.904
8573,1386.664
8574,1385.606
8575,1384.981
8576,1384.824
8577,1385.048
8578,1385.512
8579,1386.138
8580,1386.919
8581,1387.743
8582,1388.373
8583,1388.618
8584,1388.556
8585,1388.441
8586,1388.399
8587,1388.379
8588,1388.243
8589,1387.925
8590,1387.383
8591,1386.674
8592,1385.960
8593,1385.361
8594,1384.897
8595,1384.527
8596,1384.194
8597,1383.850
8598,1383.427
8599,1382.875
8600,1382.239
8601,1381.645
8602,1381.202
8603,1380.957
8604,1380.941
8605,1381.223
8606,1381.817
8607,1382.672
8608,1383.704
8609,1384.835
8610,1385.950
8611,1386.935
8612,1387.670
8613,1388.118
8614,1388.295
8615,1388.186
8616,1387.826
8617,1387.331
8618,1386.852
8619,1386.518
8620,1386.414
8621,1386.539
8622,1386.878
8623,1387.357
8624,1387.847
8625,1388.175
8626,1388.259
8627,1388.071
8628,1387.623
8629,1386.997
8630,1386.346
8631,1385.715
8632,1385.048
8633,1384.303
8634,1383.537
8635,1382.713
8636,1381.739
8637,1380.634
8638,1379.633
8639,1379.086
8640,1379.279
8641,1380.342
8642,1382.239
8643,1384.762
8644,1387.586
8645,1390.437
8646,1393.158
