'sample interval','wrist_ppg'
'0.00390625 sec','mV'
0,1458.598
1,1443.977
2,1431.488
3,1429.314
4,1446.876
5,1433.705
6,1409.536
7,1434.429
8,1436.646
9,1423.432
10,1373.646
11,1397.090
12,1389.758
13,1358.982
14,1324.541
15,1356.766
16,1311.370
17,1325.266
18,1325.266
19,1284.260
20,1312.095
21,1262.265
22,1288.651
23,1276.204
24,1255.701
25,1247.602
26,1238.821
27,1277.653
28,1255.701
29,1243.979
30,1267.380
31,1264.482
32,1251.268
33,1288.651
34,1250.543
35,1294.490
36,1268.872
37,1305.488
38,1289.375
39,1319.426
40,1329.656
41,1300.373
42,1342.870
43,1308.429
44,1325.266
45,1344.319
46,1356.041
47,1376.544
48,1338.480
49,1386.817
50,1353.867
51,1380.935
52,1401.480
53,1403.654
54,1408.812
55,1397.814
56,1387.541
57,1381.702
58,1389.758
59,1412.477
60,1427.098
61,1421.258
62,1445.427
63,1438.095
64,1450.542
65,1452.034
66,1433.705
67,1417.592
68,1455.699
69,1428.590
70,1432.980
71,1451.266
72,1425.649
73,1398.539
74,1434.429
75,1409.536
76,1386.092
77,1356.041
78,1338.480
79,1350.926
80,1311.370
81,1295.257
82,1304.763
83,1304.038
84,1289.375
85,1251.268
86,1240.313
87,1231.490
88,1261.541
89,1252.760
90,1245.428
91,1235.156
92,1227.824
93,1230.041
94,1205.872
95,1183.153
96,1191.209
97,1192.658
98,1186.819
99,1191.209
100,1179.487
101,1163.375
102,1174.372
103,1142.147
104,1145.770
105,1167.040
106,1136.989
107,1147.262
108,1131.150
109,1155.318
110,1171.431
111,1175.097
112,1174.372
113,1186.094
114,1190.484
115,1209.538
116,1210.987
117,1246.153
118,1255.701
119,1278.378
120,1300.373
121,1362.648
122,1405.146
123,1462.988
124,1485.708
125,1512.093
126,1564.820
127,1626.371
128,1682.807
129,1698.920
130,1723.088
131,1764.819
132,1797.811
133,1790.479
134,1832.252
135,1823.429
136,1813.923
137,1795.594
138,1799.260
139,1765.586
140,1767.760
141,1718.698
142,1690.864
143,1671.810
144,1636.644
145,1630.037
146,1556.040
147,1534.812
148,1520.874
149,1451.266
150,1462.264
151,1421.983
152,1406.595
153,1345.044
154,1350.926
155,1301.097
156,1318.701
157,1272.538
158,1288.651
159,1301.822
160,1263.757
161,1306.979
162,1307.704
163,1295.257
164,1349.434
165,1341.378
166,1352.376
167,1387.541
168,1441.761
169,1421.983
170,1479.143
171,1494.489
172,1485.708
173,1512.093
174,1542.868
175,1536.986
176,1534.812
177,1551.649
178,1585.366
179,1556.040
180,1539.927
181,1553.866
182,1573.644
183,1529.654
184,1553.866
185,1519.424
186,1536.261
187,1495.256
188,1473.986
189,1457.873
190,1443.210
191,1435.921
192,1429.314
193,1410.261
194,1403.654
195,1408.044
196,1419.766
197,1389.033
198,1383.876
199,1383.151
200,1383.876
201,1367.039
202,1349.434
203,1369.213
204,1333.322
205,1365.589
206,1353.867
207,1315.760
208,1334.089
209,1347.260
210,1320.875
211,1323.092
212,1341.378
213,1298.923
214,1315.036
215,1308.429
216,1290.100
217,1317.210
218,1279.870
219,1309.153
220,1277.653
221,1295.257
222,1304.763
223,1293.041
224,1263.757
225,1299.648
226,1268.872
227,1250.543
228,1259.324
229,1285.709
230,1273.987
231,1241.763
232,1273.987
233,1252.035
234,1224.158
235,1263.757
236,1235.880
237,1214.653
238,1235.880
239,1243.212
240,1230.041
241,1225.650
242,1209.538
243,1210.262
244,1205.147
245,1194.875
246,1198.541
247,1194.875
248,1186.819
249,1191.934
250,1169.214
251,1175.821
252,1184.602
253,1180.936
254,1185.369
255,1185.369
256,1191.934
257,1173.647
258,1155.318
259,1162.650
260,1203.656
261,1175.821
262,1185.369
263,1196.324
264,1208.813
265,1205.147
266,1204.380
267,1211.712
268,1208.046
269,1245.428
270,1244.704
271,1249.094
272,1270.322
273,1315.760
274,1335.538
275,1356.041
276,1379.485
277,1392.656
278,1409.536
279,1430.764
280,1465.930
281,1534.088
282,1545.809
283,1606.593
284,1654.206
285,1692.313
286,1754.589
287,1810.257
288,1854.204
289,1914.306
290,1986.812
291,2027.093
292,2060.809
293,2113.537
294,2169.248
295,2202.198
296,2221.976
297,2238.813
298,2231.524
299,2253.476
300,2231.524
301,2205.864
302,2200.024
303,2160.425
304,2106.248
305,2050.537
306,2018.312
307,1931.143
308,1855.696
309,1801.477
310,1712.091
311,1633.703
312,1575.818
313,1489.373
314,1421.258
315,1386.817
316,1293.766
317,1250.543
318,1188.268
319,1161.925
320,1114.270
321,1123.094
322,1077.655
323,1071.815
324,1085.711
325,1071.815
326,1067.382
327,1109.880
328,1109.880
329,1110.604
330,1136.265
331,1170.706
332,1157.492
333,1190.484
334,1214.653
335,1238.821
336,1239.546
337,1247.602
338,1260.092
339,1252.760
340,1298.156
341,1264.482
342,1312.819
343,1273.263
344,1303.314
345,1304.038
346,1290.824
347,1317.934
348,1311.370
349,1293.766
350,1293.041
351,1282.768
352,1308.429
353,1269.597
354,1301.822
355,1275.479
356,1270.322
357,1265.931
358,1279.102
359,1269.597
360,1254.209
361,1253.485
362,1268.872
363,1295.982
364,1286.434
365,1276.204
366,1315.036
367,1323.092
368,1328.932
369,1306.212
370,1307.704
371,1316.485
372,1368.488
373,1369.980
374,1359.707
375,1356.766
376,1391.932
377,1397.090
378,1421.258
379,1399.988
380,1438.095
381,1414.651
382,1438.820
383,1455.699
384,1425.649
385,1430.039
386,1462.988
387,1427.098
388,1452.034
389,1458.598
390,1427.098
391,1459.323
392,1430.764
393,1474.710
394,1452.034
395,1424.199
396,1462.264
397,1436.646
398,1421.983
399,1396.322
400,1384.600
401,1383.876
402,1393.424
403,1376.544
404,1362.648
405,1307.704
406,1326.758
407,1273.263
408,1296.707
409,1257.875
410,1247.602
411,1241.763
412,1208.813
413,1175.097
414,1158.260
415,1143.596
416,1153.869
417,1153.869
418,1115.762
419,1084.986
420,1102.548
421,1083.537
422,1071.048
423,1100.374
424,1110.604
425,1102.548
426,1125.992
427,1097.433
428,1106.981
429,1125.992
430,1168.490
431,1141.380
432,1155.318
433,1171.431
434,1197.816
435,1244.704
436,1241.763
437,1251.268
438,1304.038
439,1300.373
440,1357.491
441,1361.156
442,1391.932
443,1428.590
444,1501.820
445,1497.430
446,1532.596
447,1574.369
448,1619.765
449,1668.869
450,1677.650
451,1752.372
452,1742.142
453,1793.420
454,1825.645
455,1838.816
456,1849.089
457,1873.982
458,1864.477
459,1849.089
460,1858.595
461,1862.260
462,1816.864
463,1810.982
464,1804.418
465,1764.819
466,1725.262
467,1738.476
468,1698.920
469,1660.088
470,1632.978
471,1607.318
472,1580.975
473,1531.146
474,1516.483
475,1479.868
476,1494.489
477,1435.921
478,1460.814
479,1426.373
480,1400.755
481,1386.092
482,1399.263
483,1397.814
484,1385.368
485,1383.151
486,1371.429
487,1361.156
488,1352.376
489,1342.870
490,1348.710
491,1358.982
492,1309.878
493,1308.429
494,1334.089
495,1342.870
496,1345.811
497,1327.482
498,1301.097
499,1317.934
500,1336.263
501,1298.923
502,1321.600
503,1283.536
504,1302.546
505,1298.923
506,1267.380
507,1287.926
508,1282.044
509,1273.987
510,1267.380
511,1220.535
512,1252.035
513,1201.482
514,1228.591
515,1209.538
516,1181.703
517,1215.378
518,1194.150
519,1189.760
520,1189.760
521,1188.992
522,1197.816
523,1199.265
524,1189.760
525,1234.431
526,1237.372
527,1240.313
528,1233.706
529,1278.378
530,1275.479
531,1291.592
532,1278.378
533,1328.932
534,1304.763
535,1339.929
536,1358.982
537,1337.712
538,1342.145
539,1361.924
540,1382.426
541,1402.205
542,1389.033
543,1410.261
544,1393.424
545,1370.704
546,1389.758
547,1404.378
548,1389.033
549,1359.707
550,1358.258
551,1388.266
552,1386.817
553,1376.544
554,1361.924
555,1376.544
556,1366.314
557,1366.314
558,1357.491
559,1330.423
560,1357.491
561,1317.210
562,1354.592
563,1335.538
564,1300.373
565,1334.089
566,1298.923
567,1309.878
568,1304.038
569,1282.768
570,1256.426
571,1280.594
572,1252.035
573,1272.538
574,1220.535
575,1252.760
576,1201.482
577,1223.434
578,1216.102
579,1195.599
580,1169.982
581,1174.372
582,1191.934
583,1176.546
584,1188.268
585,1224.158
586,1210.262
587,1265.207
588,1281.319
589,1320.875
590,1347.985
591,1412.477
592,1419.042
593,1508.427
594,1528.205
595,1584.599
596,1667.420
597,1701.094
598,1741.375
599,1796.361
600,1840.308
601,1906.250
602,1923.087
603,1964.092
604,2015.371
605,2025.643
606,2035.916
607,2054.202
608,2038.090
609,2021.978
610,2003.649
611,1975.090
612,1968.483
613,1918.696
614,1877.648
615,1856.421
616,1779.482
617,1750.923
618,1710.642
619,1669.594
620,1587.540
621,1573.644
622,1504.037
623,1458.598
624,1422.707
625,1383.151
626,1350.926
627,1335.538
628,1320.875
629,1297.431
630,1252.760
631,1277.653
632,1261.541
633,1226.375
634,1252.760
635,1223.434
636,1238.097
637,1216.869
638,1231.490
639,1282.768
640,1265.931
641,1280.594
642,1321.600
643,1351.651
644,1366.314
645,1395.598
646,1410.985
647,1443.210
648,1474.710
649,1508.427
650,1528.930
651,1585.366
652,1571.427
653,1608.810
654,1629.313
655,1674.709
656,1674.709
657,1723.088
658,1706.251
659,1742.142
660,1755.313
661,1753.097
662,1787.538
663,1810.982
664,1786.813
665,1789.755
666,1797.811
667,1799.985
668,1810.257
669,1825.645
670,1821.255
671,1796.361
672,1795.594
673,1806.592
674,1804.418
675,1772.918
676,1771.426
677,1764.819
678,1775.816
679,1726.030
680,1739.925
681,1688.647
682,1663.754
683,1638.093
684,1609.534
685,1589.032
686,1566.312
687,1548.708
688,1489.373
689,1443.977
690,1416.100
691,1388.266
692,1325.990
693,1305.488
694,1244.704
695,1210.262
696,1164.824
697,1125.992
698,1101.099
699,1062.992
700,1015.379
701,990.486
702,928.210
703,915.764
704,869.600
705,876.207
706,858.603
707,841.766
708,832.218
709,824.929
710,817.597
711,802.210
712,816.106
713,783.881
714,823.437
715,828.552
716,814.656
717,831.493
718,835.884
719,838.825
720,838.100
721,872.542
722,901.825
723,921.603
724,938.483
725,958.261
726,964.826
727,987.545
728,999.267
729,1001.483
730,998.542
731,1051.270
732,1062.992
733,1051.270
734,1103.315
735,1101.824
736,1141.380
737,1117.211
738,1150.928
739,1177.270
740,1216.869
741,1213.204
742,1232.982
743,1288.651
744,1283.536
745,1286.434
746,1325.990
747,1347.260
748,1332.597
749,1365.589
750,1377.311
751,1350.926
752,1364.822
753,1371.429
754,1375.819
755,1340.654
756,1359.707
757,1364.822
758,1351.651
759,1300.373
760,1315.760
761,1318.701
762,1299.648
763,1272.538
764,1290.100
765,1270.322
766,1251.268
767,1264.482
768,1240.313
769,1241.763
770,1288.651
771,1279.870
772,1274.712
773,1279.102
774,1289.375
775,1315.036
776,1290.824
777,1324.541
778,1329.656
779,1370.704
780,1375.095
781,1394.148
782,1399.263
783,1398.539
784,1425.649
785,1446.876
786,1483.534
787,1501.820
788,1514.309
789,1512.817
790,1502.587
791,1534.812
792,1519.424
793,1570.703
794,1530.422
795,1556.040
796,1564.096
797,1554.590
798,1561.922
799,1542.144
800,1521.598
801,1560.430
802,1525.264
803,1503.312
804,1520.149
805,1523.090
806,1516.483
807,1495.256
808,1503.312
809,1488.649
810,1460.814
811,1493.039
812,1462.988
813,1441.036
814,1464.480
815,1443.210
816,1454.932
817,1431.488
818,1437.371
819,1418.317
820,1413.927
821,1402.929
822,1428.590
823,1421.258
824,1418.317
825,1388.266
826,1412.477
827,1363.373
828,1375.819
829,1391.207
830,1375.095
831,1352.376
832,1365.589
833,1368.488
834,1327.482
835,1316.485
836,1346.536
837,1298.156
838,1321.600
839,1294.490
840,1308.429
841,1262.990
842,1294.490
843,1260.092
844,1243.212
845,1227.100
846,1221.984
847,1203.656
848,1175.097
849,1169.214
850,1174.372
851,1116.487
852,1135.540
853,1139.206
854,1124.543
855,1093.043
856,1085.711
857,1102.548
858,1108.430
859,1079.871
860,1106.214
861,1109.880
862,1086.436
863,1106.214
864,1119.428
865,1137.714
866,1150.928
867,1162.650
868,1139.931
869,1153.102
870,1169.982
871,1232.257
872,1227.100
873,1232.257
874,1303.314
875,1298.923
876,1322.367
877,1348.710
878,1383.151
879,1443.977
880,1476.202
881,1539.203
882,1562.647
883,1603.652
884,1638.818
885,1723.813
886,1723.813
887,1773.642
888,1810.257
889,1832.977
890,1876.923
891,1887.196
892,1930.418
893,1923.087
894,1960.427
895,1932.592
896,1936.983
897,1947.255
898,1947.980
899,1906.974
900,1896.702
901,1887.921
902,1858.595
903,1821.979
904,1800.752
905,1777.308
906,1747.257
907,1731.869
908,1683.532
909,1653.481
910,1625.647
911,1602.928
912,1583.874
913,1574.369
914,1564.820
915,1565.588
916,1562.647
917,1544.318
918,1526.756
919,1511.368
920,1521.598
921,1526.031
922,1533.320
923,1561.155
924,1543.593
925,1528.205
926,1541.376
927,1556.040
928,1562.647
929,1564.820
930,1583.149
931,1587.540
932,1586.815
933,1564.096
934,1589.756
935,1597.812
936,1591.206
937,1553.098
938,1595.596
939,1561.922
940,1548.708
941,1564.096
942,1559.705
943,1549.433
944,1551.649
945,1526.031
946,1541.376
947,1558.256
948,1507.702
949,1532.596
950,1531.146
951,1501.095
952,1522.366
953,1490.865
954,1508.427
955,1502.587
956,1497.430
957,1512.817
958,1500.371
959,1507.702
960,1495.256
961,1536.986
962,1506.211
963,1507.702
964,1515.034
965,1524.539
966,1543.593
967,1564.820
968,1582.425
969,1584.599
970,1575.818
971,1573.644
972,1558.981
973,1560.430
974,1561.922
975,1570.703
976,1562.647
977,1558.981
978,1555.315
979,1550.925
980,1534.812
981,1523.815
982,1506.978
983,1497.430
984,1513.542
985,1473.261
986,1430.764
987,1409.536
988,1380.935
989,1361.156
990,1330.423
991,1322.367
992,1298.923
993,1268.872
994,1229.316
995,1192.658
996,1186.094
997,1171.431
998,1120.152
999,1080.596
1000,1096.708
1001,1053.486
1002,1038.823
1003,1049.821
1004,1020.494
1005,1006.598
1006,972.157
1007,993.427
1008,988.269
1009,969.216
1010,979.489
1011,975.823
1012,970.708
1013,978.039
1014,997.818
1015,1007.323
1016,1016.104
1017,1013.205
1018,1076.930
1019,1071.815
1020,1084.986
1021,1121.602
1022,1172.155
1023,1198.541
1024,1226.375
1025,1229.316
1026,1246.153
1027,1302.546
1028,1283.536
1029,1317.210
1030,1360.432
1031,1333.322
1032,1367.039
1033,1394.873
1034,1383.151
1035,1378.036
1036,1373.646
1037,1410.985
1038,1414.651
1039,1408.812
1040,1395.598
1041,1376.544
1042,1363.373
1043,1353.867
1044,1351.651
1045,1336.988
1046,1320.151
1047,1299.648
1048,1260.092
1049,1265.207
1050,1205.872
1051,1205.872
1052,1210.987
1053,1185.369
1054,1191.209
1055,1190.484
1056,1200.714
1057,1187.543
1058,1196.324
1059,1191.934
1060,1186.819
1061,1227.100
1062,1233.706
1063,1246.153
1064,1273.987
1065,1315.036
1066,1336.263
1067,1369.213
1068,1381.702
1069,1403.654
1070,1419.766
1071,1481.317
1072,1475.478
1073,1504.037
1074,1535.537
1075,1560.430
1076,1593.422
1077,1602.203
1078,1657.872
1079,1656.422
1080,1655.698
1081,1658.596
1082,1704.760
1083,1694.529
1084,1679.142
1085,1673.259
1086,1696.703
1087,1694.529
1088,1693.038
1089,1686.431
1090,1652.757
1091,1659.364
1092,1659.364
1093,1627.096
1094,1599.262
1095,1590.481
1096,1578.034
1097,1588.264
1098,1599.986
1099,1549.433
1100,1553.098
1101,1563.371
1102,1526.756
1103,1502.587
1104,1517.208
1105,1479.143
1106,1505.486
1107,1465.205
1108,1482.042
1109,1429.314
1110,1450.542
1111,1452.034
1112,1398.539
1113,1405.146
1114,1427.098
1115,1423.432
1116,1377.311
1117,1392.656
1118,1402.205
1119,1359.707
1120,1380.935
1121,1396.322
1122,1387.541
1123,1348.710
1124,1345.044
1125,1369.213
1126,1376.544
1127,1340.654
1128,1363.373
1129,1330.423
1130,1338.480
1131,1340.654
1132,1315.760
1133,1286.434
1134,1307.704
1135,1277.653
1136,1240.313
1137,1268.148
1138,1241.763
1139,1233.706
1140,1219.768
1141,1201.482
1142,1180.936
1143,1144.321
1144,1160.433
1145,1167.765
1146,1143.596
1147,1139.206
1148,1150.203
1149,1118.703
1150,1134.048
1151,1127.484
1152,1104.040
1153,1144.321
1154,1109.880
1155,1140.655
1156,1158.260
1157,1142.147
1158,1169.214
1159,1173.647
1160,1195.599
1161,1209.538
1162,1232.982
1163,1233.706
1164,1270.322
1165,1288.651
1166,1303.314
1167,1308.429
1168,1316.485
1169,1378.036
1170,1415.376
1171,1432.980
1172,1475.478
1173,1523.815
1174,1593.422
1175,1601.478
1176,1658.596
1177,1704.035
1178,1746.532
1179,1795.594
1180,1857.145
1181,1887.196
1182,1916.480
1183,1942.140
1184,1967.034
1185,1962.643
1186,1986.812
1187,1985.362
1188,1972.916
1189,1952.370
1190,1921.595
1191,1879.140
1192,1858.595
1193,1802.201
1194,1769.252
1195,1723.088
1196,1667.420
1197,1639.543
1198,1591.930
1199,1550.200
1200,1509.876
1201,1495.256
1202,1435.154
1203,1399.263
1204,1383.876
1205,1372.878
1206,1358.982
1207,1316.485
1208,1344.319
1209,1298.156
1210,1321.600
1211,1330.423
1212,1294.490
1213,1328.932
1214,1336.263
1215,1352.376
1216,1358.982
1217,1335.538
1218,1335.538
1219,1361.924
1220,1357.491
1221,1378.036
1222,1379.485
1223,1423.432
1224,1421.983
1225,1410.985
1226,1463.756
1227,1431.488
1228,1480.593
1229,1449.093
1230,1498.922
1231,1475.478
1232,1513.542
1233,1482.042
1234,1494.489
1235,1519.424
1236,1540.652
1237,1542.144
1238,1537.711
1239,1513.542
1240,1524.539
1241,1534.088
1242,1511.368
1243,1519.424
1244,1529.654
1245,1550.200
1246,1565.588
1247,1538.478
1248,1538.478
1249,1538.478
1250,1539.927
1251,1557.531
1252,1589.756
1253,1565.588
1254,1559.705
1255,1570.703
1256,1601.478
1257,1572.152
1258,1574.369
1259,1591.930
1260,1594.871
1261,1606.593
1262,1611.708
1263,1579.484
1264,1584.599
1265,1604.419
1266,1608.043
1267,1563.371
1268,1555.315
1269,1549.433
1270,1537.711
1271,1553.866
1272,1551.649
1273,1526.756
1274,1490.098
1275,1473.986
1276,1435.154
1277,1405.870
1278,1399.263
1279,1395.598
1280,1348.710
1281,1319.426
1282,1283.536
1283,1247.602
1284,1221.984
1285,1205.872
1286,1186.094
1287,1140.655
1288,1095.984
1289,1106.214
1290,1063.759
1291,1039.548
1292,1054.936
1293,1031.492
1294,1011.713
1295,998.542
1296,996.326
1297,980.213
1298,968.491
1299,956.769
1300,946.539
1301,935.542
1302,934.817
1303,948.713
1304,956.045
1305,956.045
1306,960.435
1307,1010.989
1308,989.761
1309,1035.882
1310,1066.658
1311,1106.981
1312,1132.599
1313,1142.147
1314,1157.492
1315,1214.653
1316,1214.653
1317,1286.434
1318,1329.656
1319,1336.263
1320,1398.539
1321,1410.985
1322,1424.199
1323,1487.924
1324,1484.983
1325,1528.930
1326,1504.037
1327,1529.654
1328,1534.812
1329,1557.531
1330,1564.820
1331,1519.424
1332,1507.702
1333,1503.312
1334,1517.208
1335,1489.373
1336,1442.486
1337,1439.544
1338,1397.090
1339,1397.090
1340,1371.429
1341,1339.929
1342,1268.148
1343,1271.046
1344,1226.375
1345,1219.768
1346,1210.262
1347,1192.658
1348,1184.602
1349,1178.038
1350,1153.102
1351,1172.155
1352,1173.647
1353,1161.925
1354,1162.650
1355,1178.762
1356,1192.658
1357,1226.375
1358,1224.158
1359,1255.701
1360,1303.314
1361,1320.151
1362,1318.701
1363,1334.089
1364,1399.988
1365,1401.480
1366,1411.710
1367,1473.261
1368,1452.758
1369,1476.202
1370,1512.817
1371,1547.983
1372,1541.376
1373,1545.042
1374,1556.764
1375,1567.037
1376,1582.425
1377,1592.697
1378,1617.591
1379,1615.374
1380,1637.369
1381,1674.709
1382,1681.316
1383,1646.874
1384,1679.866
1385,1664.479
1386,1699.645
1387,1671.085
1388,1714.308
1389,1686.431
1390,1713.540
1391,1707.701
1392,1699.645
1393,1739.925
1394,1706.976
1395,1736.984
1396,1715.757
1397,1714.308
1398,1730.420
1399,1741.375
1400,1704.035
1401,1716.482
1402,1700.369
1403,1717.206
1404,1668.144
1405,1675.476
1406,1676.925
1407,1659.364
1408,1632.978
1409,1611.708
1410,1606.593
1411,1573.644
1412,1552.374
1413,1543.593
1414,1551.649
1415,1515.034
1416,1506.211
1417,1504.761
1418,1476.202
1419,1449.817
1420,1463.756
1421,1438.820
1422,1406.595
1423,1379.485
1424,1352.376
1425,1337.712
1426,1330.423
1427,1335.538
1428,1324.541
1429,1261.541
1430,1282.768
1431,1238.097
1432,1246.153
1433,1181.703
1434,1201.482
1435,1143.596
1436,1119.428
1437,1136.989
1438,1121.602
1439,1104.765
1440,1087.160
1441,1072.540
1442,1025.652
1443,1032.984
1444,985.371
1445,1013.205
1446,991.935
1447,968.491
1448,947.989
1449,989.761
1450,966.317
1451,994.876
1452,966.317
1453,992.660
1454,1008.048
1455,1014.655
1456,1035.882
1457,1108.430
1458,1110.604
1459,1166.316
1460,1205.147
1461,1257.150
1462,1296.707
1463,1339.204
1464,1432.255
1465,1500.371
1466,1542.868
1467,1642.484
1468,1712.816
1469,1812.474
1470,1881.314
1471,1967.758
1472,2056.419
1473,2101.090
1474,2166.307
1475,2236.639
1476,2252.027
1477,2299.639
1478,2330.415
1479,2337.746
1480,2339.196
1481,2326.749
1482,2301.089
1483,2268.139
1484,2202.922
1485,2162.641
1486,2085.703
1487,2019.036
1488,1957.528
1489,1895.977
1490,1795.594
1491,1742.142
1492,1649.091
1493,1586.815
1494,1545.042
1495,1445.427
1496,1422.707
1497,1345.811
1498,1306.979
1499,1282.768
1500,1263.757
1501,1219.043
1502,1198.541
1503,1185.369
1504,1173.647
1505,1169.214
1506,1161.925
1507,1161.925
1508,1151.653
1509,1127.484
1510,1125.267
1511,1176.546
1512,1158.260
1513,1157.492
1514,1196.324
1515,1175.821
1516,1221.260
1517,1197.816
1518,1230.765
1519,1258.600
1520,1275.479
1521,1257.875
1522,1262.265
1523,1276.204
1524,1306.212
1525,1328.932
1526,1328.932
1527,1328.932
1528,1388.266
1529,1362.648
1530,1413.927
1531,1396.322
1532,1444.702
1533,1423.432
1534,1435.921
1535,1487.924
1536,1500.371
1537,1489.373
1538,1531.146
1539,1546.534
1540,1569.253
1541,1583.149
1542,1563.371
1543,1588.264
1544,1610.259
1545,1625.647
1546,1630.762
1547,1679.866
1548,1657.147
1549,1689.372
1550,1703.310
1551,1715.757
1552,1727.479
1553,1734.086
1554,1734.810
1555,1741.375
1556,1745.808
1557,1773.642
1558,1791.204
1559,1761.196
1560,1750.923
1561,1747.982
1562,1777.308
1563,1741.375
1564,1739.925
1565,1732.594
1566,1670.318
1567,1650.540
1568,1653.481
1569,1630.037
1570,1569.978
1571,1528.930
1572,1520.874
1573,1450.542
1574,1414.651
1575,1393.424
1576,1315.760
1577,1280.594
1578,1254.934
1579,1205.872
1580,1155.318
1581,1093.043
1582,1084.262
1583,1023.435
1584,1016.104
1585,999.267
1586,975.098
1587,953.828
1588,918.662
1589,884.264
1590,893.769
1591,905.491
1592,862.269
1593,890.828
1594,871.817
1595,887.929
1596,901.101
1597,874.715
1598,892.320
1599,912.098
1600,962.652
1601,986.096
1602,966.317
1603,1033.708
1604,1043.214
1605,1058.601
1606,1093.767
1607,1115.762
1608,1142.147
1609,1145.770
1610,1148.711
1611,1150.928
1612,1177.270
1613,1153.869
1614,1195.599
1615,1185.369
1616,1178.762
1617,1175.097
1618,1156.768
1619,1150.928
1620,1131.150
1621,1113.545
1622,1054.211
1623,1064.484
1624,1068.149
1625,1016.104
1626,1030.767
1627,992.660
1628,1010.989
1629,1001.483
1630,976.548
1631,983.879
1632,953.104
1633,995.601
1634,986.096
1635,977.272
1636,967.767
1637,1000.716
1638,1003.657
1639,988.269
1640,1026.377
1641,1016.871
1642,1055.660
1643,1079.104
1644,1102.548
1645,1117.211
1646,1123.094
1647,1124.543
1648,1138.481
1649,1177.270
1650,1199.265
1651,1191.209
1652,1213.928
1653,1241.763
1654,1247.602
1655,1249.094
1656,1254.209
1657,1287.201
1658,1295.257
1659,1259.324
1660,1271.046
1661,1282.044
1662,1294.490
1663,1295.982
1664,1280.594
1665,1246.153
1666,1273.987
1667,1243.979
1668,1243.212
1669,1221.984
1670,1197.816
1671,1225.650
1672,1196.324
1673,1210.262
1674,1158.984
1675,1171.431
1676,1193.425
1677,1150.928
1678,1189.760
1679,1158.984
1680,1193.425
1681,1174.372
1682,1218.319
1683,1213.204
1684,1235.156
1685,1235.156
1686,1241.038
1687,1268.872
1688,1285.709
1689,1296.707
1690,1349.434
1691,1344.319
1692,1353.867
1693,1402.929
1694,1382.426
1695,1440.312
1696,1420.533
1697,1449.093
1698,1495.256
1699,1495.256
1700,1496.705
1701,1506.211
1702,1541.376
1703,1532.596
1704,1530.422
1705,1563.371
1706,1552.374
1707,1558.256
1708,1569.253
1709,1547.983
1710,1542.868
1711,1571.427
1712,1518.700
1713,1523.090
1714,1495.980
1715,1474.710
1716,1484.258
1717,1441.761
1718,1413.202
1719,1389.033
1720,1349.434
1721,1268.872
1722,1227.100
1723,1186.819
1724,1118.703
1725,1102.548
1726,1021.262
1727,1017.596
1728,979.489
1729,928.210
1730,912.823
1731,876.932
1732,851.996
1733,831.493
1734,804.384
1735,805.151
1736,797.819
1737,790.488
1738,797.052
1739,803.659
1740,819.771
1741,808.049
1742,861.544
1743,873.991
1744,930.384
1745,963.376
1746,981.705
1747,1024.927
1748,1058.601
1749,1075.481
1750,1118.703
1751,1176.546
1752,1234.431
1753,1295.257
1754,1329.656
1755,1367.763
1756,1398.539
1757,1460.090
1758,1511.368
1759,1591.206
1760,1636.644
1761,1712.091
1762,1761.196
1763,1819.763
1764,1876.923
1765,1895.252
1766,1937.750
1767,1983.871
1768,2002.924
1769,2027.093
1770,2024.194
1771,2021.253
1772,2010.980
1773,2003.649
1774,1960.427
1775,1922.362
1776,1899.643
1777,1854.929
1778,1796.361
1779,1693.762
1780,1661.537
1781,1587.540
1782,1478.376
1783,1394.148
1784,1336.263
1785,1297.431
1786,1219.768
1787,1178.038
1788,1123.094
1789,1059.326
1790,1009.540
1791,1018.320
1792,969.216
1793,966.317
1794,958.261
1795,939.932
1796,979.489
1797,977.272
1798,971.432
1799,1027.826
1800,1062.267
1801,1090.102
1802,1121.602
1803,1153.102
1804,1177.270
1805,1194.875
1806,1224.926
1807,1263.757
1808,1316.485
1809,1358.258
1810,1392.656
1811,1415.376
1812,1428.590
1813,1473.986
1814,1475.478
1815,1520.874
1816,1564.096
1817,1569.253
1818,1604.419
1819,1627.096
1820,1668.144
1821,1709.875
1822,1697.428
1823,1730.420
1824,1753.864
1825,1797.086
1826,1799.260
1827,1796.361
1828,1816.140
1829,1816.140
1830,1824.921
1831,1819.038
1832,1835.151
1833,1837.367
1834,1851.306
1835,1837.367
1836,1808.041
1837,1807.316
1838,1814.648
1839,1809.533
1840,1787.538
1841,1776.541
1842,1758.254
1843,1752.372
1844,1700.369
1845,1682.040
1846,1687.923
1847,1657.147
1848,1615.374
1849,1602.203
1850,1583.149
1851,1575.093
1852,1534.812
1853,1524.539
1854,1519.424
1855,1520.149
1856,1458.598
1857,1484.258
1858,1424.924
1859,1454.932
1860,1401.480
1861,1387.541
1862,1366.314
1863,1351.651
1864,1350.926
1865,1346.536
1866,1346.536
1867,1312.819
1868,1282.768
1869,1295.982
1870,1235.156
1871,1254.209
1872,1215.378
1873,1224.926
1874,1186.819
1875,1166.316
1876,1161.158
1877,1158.260
1878,1139.931
1879,1146.538
1880,1136.989
1881,1129.658
1882,1123.818
1883,1100.374
1884,1103.315
1885,1109.155
1886,1090.102
1887,1131.874
1888,1098.158
1889,1154.594
1890,1142.147
1891,1190.484
1892,1202.206
1893,1220.535
1894,1253.485
1895,1228.591
1896,1273.987
1897,1299.648
1898,1295.982
1899,1287.201
1900,1284.985
1901,1284.985
1902,1295.982
1903,1309.878
1904,1295.982
1905,1260.092
1906,1282.044
1907,1241.038
1908,1230.041
1909,1201.482
1910,1179.487
1911,1178.762
1912,1159.709
1913,1140.655
1914,1142.147
1915,1149.436
1916,1136.265
1917,1134.048
1918,1131.150
1919,1141.380
1920,1143.596
1921,1144.321
1922,1139.931
1923,1139.931
1924,1144.321
1925,1192.658
1926,1186.094
1927,1175.821
1928,1224.926
1929,1238.097
1930,1217.594
1931,1255.701
1932,1284.985
1933,1270.322
1934,1304.038
1935,1295.982
1936,1337.712
1937,1312.095
1938,1323.817
1939,1371.429
1940,1371.429
1941,1370.704
1942,1355.317
1943,1405.146
1944,1389.758
1945,1378.036
1946,1384.600
1947,1387.541
1948,1416.868
1949,1399.263
1950,1370.704
1951,1388.266
1952,1383.876
1953,1362.648
1954,1339.929
1955,1327.482
1956,1315.760
1957,1315.036
1958,1317.934
1959,1312.819
1960,1271.814
1961,1248.370
1962,1260.816
1963,1202.931
1964,1230.765
1965,1202.931
1966,1163.375
1967,1188.992
1968,1173.647
1969,1161.925
1970,1154.594
1971,1150.203
1972,1147.262
1973,1139.206
1974,1136.265
1975,1137.714
1976,1128.933
1977,1133.324
1978,1125.992
1979,1112.096
1980,1128.933
1981,1132.599
1982,1134.048
1983,1129.658
1984,1115.762
1985,1163.375
1986,1166.316
1987,1182.428
1988,1198.541
1989,1244.704
1990,1246.153
1991,1287.926
1992,1317.210
1993,1331.873
1994,1368.488
1995,1374.370
1996,1376.544
1997,1432.255
1998,1416.100
1999,1446.151
2000,1471.812
2001,1451.266
2002,1462.264
2003,1473.261
2004,1487.924
2005,1484.983
2006,1451.266
2007,1472.536
2008,1481.317
2009,1426.373
2010,1428.590
2011,1438.095
2012,1388.266
2013,1404.378
2014,1391.932
2015,1363.373
2016,1356.766
2017,1350.202
2018,1339.929
2019,1301.097
2020,1313.544
2021,1301.097
2022,1244.704
2023,1257.875
2024,1264.482
2025,1216.869
2026,1241.038
2027,1186.819
2028,1210.262
2029,1167.765
2030,1202.206
2031,1186.819
2032,1148.711
2033,1181.703
2034,1149.436
2035,1175.097
2036,1204.380
2037,1179.487
2038,1227.824
2039,1210.987
2040,1246.153
2041,1277.653
2042,1278.378
2043,1342.145
2044,1327.482
2045,1366.314
2046,1410.261
2047,1457.873
2048,1494.489
2049,1532.596
2050,1520.149
2051,1592.697
2052,1588.264
2053,1639.543
2054,1668.144
2055,1642.484
2056,1698.153
2057,1665.928
2058,1679.142
2059,1696.703
2060,1671.085
2061,1676.201
2062,1646.874
2063,1612.476
2064,1587.540
2065,1534.088
2066,1509.152
2067,1447.601
2068,1449.817
2069,1402.929
2070,1356.766
2071,1350.926
2072,1329.656
2073,1273.263
2074,1286.434
2075,1293.041
2076,1266.656
2077,1270.322
2078,1295.257
2079,1319.426
2080,1323.817
2081,1351.651
2082,1373.646
2083,1429.314
2084,1425.649
2085,1475.478
2086,1501.095
2087,1561.155
2088,1580.208
2089,1619.040
2090,1629.313
2091,1657.872
2092,1694.529
2093,1715.757
2094,1729.653
2095,1737.752
2096,1763.369
2097,1774.367
2098,1753.864
2099,1761.196
2100,1775.091
2101,1764.819
2102,1731.869
2103,1734.810
2104,1745.041
2105,1702.586
2106,1706.251
2107,1693.038
2108,1686.431
2109,1645.425
2110,1669.594
2111,1651.265
2112,1611.708
2113,1589.756
2114,1588.264
2115,1584.599
2116,1540.652
2117,1520.874
2118,1539.927
2119,1480.593
2120,1483.534
2121,1491.590
2122,1439.544
2123,1463.756
2124,1432.980
2125,1402.205
2126,1435.921
2127,1396.322
2128,1378.036
2129,1369.213
2130,1405.870
2131,1387.541
2132,1369.980
2133,1385.368
2134,1342.870
2135,1353.100
2136,1356.766
2137,1351.651
2138,1341.378
2139,1373.646
2140,1371.429
2141,1342.870
2142,1369.213
2143,1377.311
2144,1379.485
2145,1384.600
2146,1383.151
2147,1364.097
2148,1370.704
2149,1342.145
2150,1339.929
2151,1324.541
2152,1336.263
2153,1347.985
2154,1339.929
2155,1292.316
2156,1289.375
2157,1298.923
2158,1238.097
2159,1252.035
2160,1221.260
2161,1225.650
2162,1202.931
2163,1150.203
2164,1170.706
2165,1134.816
2166,1129.658
2167,1101.824
2168,1081.321
2169,1060.818
2170,1058.601
2171,1019.770
2172,1030.042
2173,1030.767
2174,1018.320
2175,996.326
2176,1031.492
2177,1030.042
2178,1027.826
2179,1080.596
2180,1106.214
2181,1131.150
2182,1140.655
2183,1151.653
2184,1159.709
2185,1215.378
2186,1257.875
2187,1281.319
2188,1271.046
2189,1333.322
2190,1361.156
2191,1383.151
2192,1397.090
2193,1389.758
2194,1426.373
2195,1440.312
2196,1398.539
2197,1434.429
2198,1435.921
2199,1408.812
2200,1417.592
2201,1404.378
2202,1423.432
2203,1393.424
2204,1372.154
2205,1361.156
2206,1352.376
2207,1378.036
2208,1366.314
2209,1329.656
2210,1327.482
2211,1327.482
2212,1277.653
2213,1284.260
2214,1299.648
2215,1303.314
2216,1295.257
2217,1305.488
2218,1287.201
2219,1325.990
2220,1318.701
2221,1299.648
2222,1336.263
2223,1358.982
2224,1347.260
2225,1347.985
2226,1357.491
2227,1377.311
2228,1431.488
2229,1410.261
2230,1454.208
2231,1476.927
2232,1451.266
2233,1474.710
2234,1487.924
2235,1508.427
2236,1516.483
2237,1526.756
2238,1584.599
2239,1585.366
2240,1581.700
2241,1567.762
2242,1616.141
2243,1578.034
2244,1579.484
2245,1606.593
2246,1567.762
2247,1550.200
2248,1579.484
2249,1542.144
2250,1531.871
2251,1517.932
2252,1507.702
2253,1490.098
2254,1489.373
2255,1461.539
2256,1461.539
2257,1455.699
2258,1415.376
2259,1418.317
2260,1430.039
2261,1383.876
2262,1407.320
2263,1389.758
2264,1350.926
2265,1344.319
2266,1370.704
2267,1367.763
2268,1353.100
2269,1354.592
2270,1340.654
2271,1333.322
2272,1302.546
2273,1307.704
2274,1317.934
2275,1334.814
2276,1330.423
2277,1303.314
2278,1316.485
2279,1353.867
2280,1366.314
2281,1328.932
2282,1348.710
2283,1372.878
2284,1385.368
2285,1398.539
2286,1404.378
2287,1421.258
2288,1411.710
2289,1405.146
2290,1403.654
2291,1424.924
2292,1420.533
2293,1457.873
2294,1421.983
2295,1462.988
2296,1434.429
2297,1419.042
2298,1447.601
2299,1416.868
2300,1394.148
2301,1399.263
2302,1391.207
2303,1347.260
2304,1331.873
2305,1325.266
2306,1308.429
2307,1243.212
2308,1258.600
2309,1247.602
2310,1197.816
2311,1204.380
2312,1206.597
2313,1200.714
2314,1178.038
2315,1167.040
2316,1169.982
2317,1149.436
2318,1189.760
2319,1175.821
2320,1188.268
2321,1185.369
2322,1197.091
2323,1224.158
2324,1224.158
2325,1272.538
2326,1293.041
2327,1296.707
2328,1339.929
2329,1364.097
2330,1375.095
2331,1392.656
2332,1445.427
2333,1501.095
2334,1536.261
2335,1570.703
2336,1595.596
2337,1606.593
2338,1660.813
2339,1665.928
2340,1698.920
2341,1745.808
2342,1777.308
2343,1766.311
2344,1785.364
2345,1812.474
2346,1811.707
2347,1813.923
2348,1799.260
2349,1776.541
2350,1749.474
2351,1709.150
2352,1685.706
2353,1664.479
2354,1641.759
2355,1597.812
2356,1545.809
2357,1510.644
2358,1479.868
2359,1470.320
2360,1452.758
2361,1410.261
2362,1427.098
2363,1374.370
2364,1403.654
2365,1389.033
2366,1377.311
2367,1410.985
2368,1418.317
2369,1404.378
2370,1424.199
2371,1451.266
2372,1474.710
2373,1494.489
2374,1475.478
2375,1490.098
2376,1548.708
2377,1534.088
2378,1537.711
2379,1569.253
2380,1603.652
2381,1601.478
2382,1616.866
2383,1611.708
2384,1632.254
2385,1634.428
2386,1624.922
2387,1634.428
2388,1635.920
2389,1633.703
2390,1619.765
2391,1594.871
2392,1584.599
2393,1586.090
2394,1591.206
2395,1574.369
2396,1557.531
2397,1541.376
2398,1531.146
2399,1520.874
2400,1531.871
2401,1534.812
2402,1501.095
2403,1501.820
2404,1517.932
2405,1515.034
2406,1516.483
2407,1472.536
2408,1460.814
2409,1468.146
2410,1470.320
2411,1491.590
2412,1458.598
2413,1454.932
2414,1483.534
2415,1450.542
2416,1471.045
2417,1446.151
2418,1457.149
2419,1438.820
2420,1443.210
2421,1430.764
2422,1451.266
2423,1402.205
2424,1421.983
2425,1396.322
2426,1385.368
2427,1410.985
2428,1375.819
2429,1365.589
2430,1350.926
2431,1343.595
2432,1347.985
2433,1347.260
2434,1340.654
2435,1320.875
2436,1308.429
2437,1304.763
2438,1320.875
2439,1331.148
2440,1298.923
2441,1273.263
2442,1299.648
2443,1247.602
2444,1268.148
2445,1241.038
2446,1245.428
2447,1208.813
2448,1180.936
2449,1188.268
2450,1143.596
2451,1131.874
2452,1145.770
2453,1138.481
2454,1120.877
2455,1106.981
2456,1090.826
2457,1059.326
2458,1018.320
2459,1052.037
2460,1011.713
2461,1045.430
2462,1027.101
2463,1018.320
2464,1056.427
2465,1096.708
2466,1117.936
2467,1131.150
2468,1127.484
2469,1186.819
2470,1213.928
2471,1237.372
2472,1282.768
2473,1290.824
2474,1302.546
2475,1328.932
2476,1389.758
2477,1389.758
2478,1446.876
2479,1441.761
2480,1459.323
2481,1479.868
2482,1513.542
2483,1491.590
2484,1483.534
2485,1487.924
2486,1495.256
2487,1482.042
2488,1514.309
2489,1500.371
2490,1489.373
2491,1470.320
2492,1410.985
2493,1402.929
2494,1356.041
2495,1338.480
2496,1328.932
2497,1301.097
2498,1259.324
2499,1245.428
2500,1238.821
2501,1221.260
2502,1177.270
2503,1153.102
2504,1169.214
2505,1183.153
2506,1142.147
2507,1169.982
2508,1196.324
2509,1166.316
2510,1192.658
2511,1205.147
2512,1266.656
2513,1287.926
2514,1296.707
2515,1311.370
2516,1356.041
2517,1407.320
2518,1410.261
2519,1452.034
2520,1472.536
2521,1480.593
2522,1532.596
2523,1535.537
2524,1527.481
2525,1580.975
2526,1585.366
2527,1587.540
2528,1569.253
2529,1562.647
2530,1563.371
2531,1594.147
2532,1599.262
2533,1593.422
2534,1594.147
2535,1577.310
2536,1583.874
2537,1589.756
2538,1578.034
2539,1578.034
2540,1572.152
2541,1567.037
2542,1547.259
2543,1509.152
2544,1497.430
2545,1484.983
2546,1509.876
2547,1473.261
2548,1452.034
2549,1457.873
2550,1457.873
2551,1446.151
2552,1399.263
2553,1425.649
2554,1374.370
2555,1370.704
2556,1373.646
2557,1383.876
2558,1337.712
2559,1361.156
2560,1331.148
2561,1372.878
2562,1342.870
2563,1379.485
2564,1356.041
2565,1389.758
2566,1357.491
2567,1405.146
2568,1384.600
2569,1383.151
2570,1399.988
2571,1433.705
2572,1453.483
2573,1444.702
2574,1439.544
2575,1447.601
2576,1483.534
2577,1457.873
2578,1454.932
2579,1451.266
2580,1441.761
2581,1452.758
2582,1448.368
2583,1441.761
2584,1429.314
2585,1408.812
2586,1379.485
2587,1357.491
2588,1345.044
2589,1295.982
2590,1304.763
2591,1293.041
2592,1230.765
2593,1239.546
2594,1240.313
2595,1184.602
2596,1191.934
2597,1164.824
2598,1180.212
2599,1135.540
2600,1133.324
2601,1162.650
2602,1162.650
2603,1162.650
2604,1151.653
2605,1147.987
2606,1170.706
2607,1208.813
2608,1190.484
2609,1235.880
2610,1273.263
2611,1279.102
2612,1344.319
2613,1336.263
2614,1388.266
2615,1439.544
2616,1464.480
2617,1551.649
2618,1570.703
2619,1634.428
2620,1673.984
2621,1720.872
2622,1737.752
2623,1758.254
2624,1795.594
2625,1825.645
2626,1842.482
2627,1865.201
2628,1857.870
2629,1863.028
2630,1849.814
2631,1849.814
2632,1841.033
2633,1810.982
2634,1778.757
2635,1748.706
2636,1715.032
2637,1689.372
2638,1695.254
2639,1633.703
2640,1599.262
2641,1592.697
2642,1567.037
2643,1550.925
2644,1531.146
2645,1530.422
2646,1524.539
2647,1526.756
2648,1522.366
2649,1538.478
2650,1559.705
2651,1575.093
2652,1569.253
2653,1595.596
2654,1643.208
2655,1650.540
2656,1707.701
2657,1719.423
2658,1720.147
2659,1756.038
2660,1777.308
2661,1820.530
2662,1822.704
2663,1809.533
2664,1835.151
2665,1841.033
2666,1817.589
2667,1847.640
2668,1834.426
2669,1819.763
2670,1786.813
2671,1761.196
2672,1752.372
2673,1722.364
2674,1739.201
2675,1684.257
2676,1668.144
2677,1676.201
2678,1635.152
2679,1610.259
2680,1591.206
2681,1571.427
2682,1579.484
2683,1515.034
2684,1536.986
2685,1487.200
2686,1502.587
2687,1452.758
2688,1449.817
2689,1427.822
2690,1438.095
2691,1452.758
2692,1437.371
2693,1416.868
2694,1399.263
2695,1381.702
2696,1387.541
2697,1397.090
2698,1411.710
2699,1408.812
2700,1403.654
2701,1389.033
2702,1408.812
2703,1413.202
2704,1415.376
2705,1403.654
2706,1399.988
2707,1411.710
2708,1443.977
2709,1418.317
2710,1462.264
2711,1478.376
2712,1457.149
2713,1480.593
2714,1508.427
2715,1515.034
2716,1520.874
2717,1515.034
2718,1501.095
2719,1493.039
2720,1515.759
2721,1510.644
2722,1507.702
2723,1489.373
2724,1469.595
2725,1425.649
2726,1434.429
2727,1436.646
2728,1372.878
2729,1394.148
2730,1350.926
2731,1326.758
2732,1347.260
2733,1314.268
2734,1295.982
2735,1268.872
2736,1217.594
2737,1223.434
2738,1211.712
2739,1185.369
2740,1167.765
2741,1163.375
2742,1156.043
2743,1147.262
2744,1139.931
2745,1134.816
2746,1191.209
2747,1185.369
2748,1202.206
2749,1219.768
2750,1271.814
2751,1303.314
2752,1327.482
2753,1337.712
2754,1345.044
2755,1405.146
2756,1405.870
2757,1435.921
2758,1482.767
2759,1455.699
2760,1472.536
2761,1479.868
2762,1501.095
2763,1508.427
2764,1509.876
2765,1471.045
2766,1442.486
2767,1446.876
2768,1394.148
2769,1344.319
2770,1314.268
2771,1293.041
2772,1259.324
2773,1197.816
2774,1143.596
2775,1109.155
2776,1055.660
2777,1035.882
2778,982.430
2779,959.710
2780,951.654
2781,947.264
2782,926.761
2783,915.039
2784,972.882
2785,981.705
2786,998.542
2787,1027.826
2788,1068.874
2789,1136.989
2790,1171.431
2791,1197.091
2792,1240.313
2793,1290.824
2794,1335.538
2795,1384.600
2796,1435.154
2797,1493.039
2798,1506.211
2799,1563.371
2800,1591.930
2801,1607.318
2802,1623.430
2803,1681.316
2804,1712.091
2805,1729.653
2806,1743.591
2807,1773.642
2808,1798.535
2809,1799.985
2810,1817.589
2811,1853.480
2812,1871.808
2813,1865.201
2814,1857.145
2815,1865.926
2816,1890.095
2817,1884.255
2818,1866.651
2819,1847.640
2820,1842.482
2821,1816.864
2822,1778.757
2823,1771.426
2824,1750.198
2825,1707.701
2826,1662.987
2827,1630.762
2828,1599.262
2829,1577.310
2830,1567.762
2831,1523.815
2832,1475.478
2833,1446.151
2834,1445.427
2835,1411.710
2836,1383.151
2837,1376.544
2838,1325.266
2839,1337.712
2840,1292.316
2841,1291.592
2842,1257.875
2843,1281.319
2844,1249.819
2845,1238.821
2846,1216.869
2847,1243.979
2848,1231.490
2849,1218.319
2850,1197.091
2851,1235.880
2852,1210.987
2853,1207.321
2854,1218.319
2855,1221.984
2856,1222.709
2857,1235.156
2858,1204.380
2859,1227.100
2860,1243.979
2861,1217.594
2862,1192.658
2863,1222.709
2864,1205.147
2865,1172.880
2866,1183.153
2867,1187.543
2868,1172.155
2869,1181.703
2870,1177.270
2871,1179.487
2872,1158.260
2873,1161.925
2874,1206.597
2875,1178.038
2876,1201.482
2877,1211.712
2878,1188.268
2879,1238.821
2880,1239.546
2881,1225.650
2882,1283.536
2883,1304.038
2884,1328.207
2885,1357.491
2886,1386.817
2887,1391.932
2888,1421.983
2889,1443.977
2890,1478.376
2891,1512.093
2892,1546.534
2893,1578.759
2894,1611.708
2895,1672.535
2896,1675.476
2897,1735.535
2898,1736.260
2899,1766.311
2900,1791.928
2901,1786.089
2902,1791.204
2903,1798.535
2904,1815.372
2905,1804.418
2906,1775.091
2907,1792.696
2908,1764.819
2909,1720.872
2910,1728.204
2911,1694.529
2912,1653.481
2913,1602.203
2914,1614.649
2915,1542.868
2916,1554.590
2917,1504.037
2918,1471.045
2919,1474.710
2920,1470.320
2921,1460.814
2922,1444.702
2923,1432.980
2924,1478.376
2925,1482.767
2926,1504.761
2927,1497.430
2928,1529.654
2929,1561.922
2930,1620.532
2931,1657.872
2932,1723.088
2933,1749.474
2934,1819.038
2935,1862.260
2936,1883.530
2937,1905.482
2938,1964.092
2939,1984.638
2940,2009.531
2941,2012.472
2942,2032.250
2943,2039.582
2944,2038.815
2945,2038.090
2946,2040.307
2947,1994.868
2948,1978.756
2949,1958.977
2950,1912.814
2951,1902.584
2952,1842.482
2953,1820.530
2954,1788.263
2955,1740.650
2956,1710.642
2957,1677.650
2958,1617.591
2959,1593.422
2960,1589.756
2961,1529.654
2962,1501.095
2963,1503.312
2964,1481.317
2965,1440.312
2966,1398.539
2967,1381.702
2968,1375.095
2969,1397.814
2970,1353.867
2971,1339.204
2972,1339.204
2973,1365.589
2974,1350.926
2975,1315.036
2976,1316.485
2977,1347.260
2978,1348.710
2979,1315.036
2980,1353.100
2981,1347.985
2982,1342.145
2983,1343.595
2984,1332.597
2985,1348.710
2986,1372.154
2987,1378.761
2988,1398.539
2989,1396.322
2990,1394.873
2991,1418.317
2992,1423.432
2993,1430.764
2994,1435.921
2995,1399.263
2996,1405.146
2997,1434.429
2998,1395.598
2999,1388.266
3000,1391.932
3001,1403.654
3002,1382.426
3003,1345.811
3004,1330.423
3005,1345.811
3006,1345.811
3007,1306.979
3008,1320.151
3009,1275.479
3010,1234.431
3011,1244.704
3012,1234.431
3013,1213.928
3014,1198.541
3015,1143.596
3016,1138.481
3017,1161.925
3018,1164.099
3019,1168.490
3020,1163.375
3021,1186.094
3022,1242.487
3023,1265.931
3024,1271.046
3025,1306.212
3026,1331.873
3027,1383.876
3028,1378.036
3029,1394.873
3030,1413.202
3031,1428.590
3032,1472.536
3033,1460.090
3034,1438.820
3035,1435.921
3036,1453.483
3037,1440.312
3038,1383.151
3039,1379.485
3040,1317.210
3041,1317.210
3042,1254.934
3043,1208.813
3044,1164.099
3045,1125.992
3046,1076.206
3047,1034.433
3048,994.152
3049,929.660
3050,877.657
3051,884.264
3052,852.763
3053,831.493
3054,819.047
3055,807.325
3056,817.597
3057,824.162
3058,835.159
3059,829.319
3060,851.272
3061,882.047
3062,937.716
3063,979.489
3064,1005.149
3065,1047.604
3066,1103.315
3067,1178.762
3068,1224.926
3069,1301.822
3070,1354.592
3071,1396.322
3072,1416.100
3073,1480.593
3074,1530.422
3075,1561.922
3076,1605.869
3077,1648.366
3078,1655.698
3079,1715.032
3080,1711.366
3081,1745.808
3082,1745.808
3083,1732.594
3084,1749.474
3085,1780.974
3086,1744.316
3087,1766.311
3088,1744.316
3089,1736.984
3090,1747.982
3091,1719.423
3092,1721.597
3093,1697.428
3094,1695.979
3095,1667.420
3096,1624.922
3097,1631.487
3098,1627.096
3099,1573.644
3100,1563.371
3101,1568.486
3102,1548.708
3103,1512.817
3104,1526.031
3105,1476.927
3106,1487.200
3107,1485.708
3108,1454.932
3109,1429.314
3110,1448.368
3111,1424.199
3112,1411.710
3113,1445.427
3114,1441.036
3115,1422.707
3116,1411.710
3117,1424.199
3118,1431.488
3119,1416.100
3120,1423.432
3121,1453.483
3122,1425.649
3123,1415.376
3124,1411.710
3125,1411.710
3126,1438.820
3127,1420.533
3128,1390.483
3129,1402.929
3130,1408.044
3131,1394.873
3132,1371.429
3133,1359.707
3134,1344.319
3135,1281.319
3136,1284.985
3137,1282.044
3138,1238.821
3139,1207.321
3140,1230.041
3141,1172.880
3142,1198.541
3143,1179.487
3144,1140.655
3145,1117.936
3146,1115.037
3147,1132.599
3148,1123.094
3149,1111.372
3150,1103.315
3151,1103.315
3152,1095.259
3153,1085.711
3154,1089.377
3155,1089.377
3156,1104.040
3157,1106.981
3158,1099.650
3159,1126.759
3160,1175.821
3161,1179.487
3162,1203.656
3163,1211.712
3164,1214.653
3165,1278.378
3166,1300.373
3167,1325.266
3168,1322.367
3169,1384.600
3170,1386.817
3171,1394.873
3172,1430.764
3173,1449.093
3174,1479.868
3175,1452.034
3176,1493.764
3177,1462.264
3178,1490.865
3179,1462.988
3180,1462.264
3181,1478.376
3182,1460.814
3183,1444.702
3184,1477.652
3185,1471.812
3186,1444.702
3187,1460.090
3188,1461.539
3189,1442.486
3190,1421.983
3191,1427.098
3192,1476.927
3193,1461.539
3194,1461.539
3195,1506.211
3196,1508.427
3197,1527.481
3198,1577.310
3199,1594.871
3200,1661.537
3201,1686.431
3202,1712.816
3203,1728.204
3204,1768.484
3205,1813.923
3206,1846.148
3207,1854.929
3208,1879.140
3209,1906.974
3210,1902.584
3211,1911.365
3212,1916.480
3213,1908.424
3214,1898.918
3215,1915.031
3216,1881.314
3217,1885.704
3218,1844.699
3219,1811.707
3220,1813.923
3221,1797.811
3222,1769.976
3223,1728.204
3224,1720.872
3225,1662.987
3226,1639.543
3227,1615.374
3228,1617.591
3229,1571.427
3230,1581.700
3231,1547.259
3232,1531.146
3233,1527.481
3234,1507.702
3235,1543.593
3236,1521.598
3237,1517.932
3238,1501.820
3239,1534.812
3240,1548.708
3241,1541.376
3242,1534.088
3243,1554.590
3244,1586.090
3245,1578.759
3246,1599.262
3247,1636.644
3248,1624.198
3249,1617.591
3250,1630.762
3251,1642.484
3252,1660.813
3253,1657.147
3254,1656.422
3255,1671.810
3256,1662.987
3257,1655.698
3258,1657.147
3259,1621.981
3260,1597.088
3261,1557.531
3262,1560.430
3263,1517.208
3264,1504.761
3265,1471.812
3266,1435.154
3267,1374.370
3268,1317.210
3269,1314.268
3270,1279.102
3271,1232.982
3272,1196.324
3273,1174.372
3274,1104.765
3275,1064.484
3276,1059.326
3277,1009.540
3278,964.826
3279,974.374
3280,928.210
3281,951.654
3282,902.550
3283,945.772
3284,915.764
3285,972.157
3286,958.261
3287,985.371
3288,1057.152
3289,1076.930
3290,1103.315
3291,1126.759
3292,1183.153
3293,1208.813
3294,1227.824
3295,1243.979
3296,1260.816
3297,1249.094
3298,1238.097
3299,1237.372
3300,1227.824
3301,1198.541
3302,1198.541
3303,1177.270
3304,1138.481
3305,1094.492
3306,1014.655
3307,972.882
3308,931.876
3309,834.434
3310,807.325
3311,761.886
3312,691.597
3313,690.105
3314,630.770
3315,649.099
3316,635.885
3317,642.492
3318,651.998
3319,638.827
3320,660.054
3321,732.602
3322,775.100
3323,826.378
3324,849.822
3325,912.098
3326,995.601
3327,1043.214
3328,1120.877
3329,1203.656
3330,1258.600
3331,1356.766
3332,1431.488
3333,1462.988
3334,1554.590
3335,1605.869
3336,1651.265
3337,1686.431
3338,1708.425
3339,1751.647
3340,1800.752
3341,1807.316
3342,1830.036
3343,1821.979
3344,1844.699
3345,1845.423
3346,1844.699
3347,1867.418
3348,1824.921
3349,1812.474
3350,1798.535
3351,1785.364
3352,1774.367
3353,1761.920
3354,1753.864
3355,1712.816
3356,1694.529
3357,1678.374
3358,1666.652
3359,1654.206
3360,1624.198
3361,1586.090
3362,1580.975
3363,1598.537
3364,1545.042
3365,1553.866
3366,1566.312
3367,1547.983
3368,1520.149
3369,1527.481
3370,1488.649
3371,1502.587
3372,1495.256
3373,1456.424
3374,1487.924
3375,1458.598
3376,1444.702
3377,1421.258
3378,1415.376
3379,1422.707
3380,1416.868
3381,1358.258
3382,1369.980
3383,1337.712
3384,1290.824
3385,1294.490
3386,1238.821
3387,1230.765
3388,1180.936
3389,1154.594
3390,1139.206
3391,1106.214
3392,1038.099
3393,1050.545
3394,1021.986
3395,988.994
3396,973.649
3397,969.216
3398,961.927
3399,920.154
3400,923.820
3401,938.483
3402,956.045
3403,961.927
3404,959.710
3405,969.216
3406,986.820
3407,1003.657
3408,1008.772
3409,1009.540
3410,1059.326
3411,1065.208
3412,1125.992
3413,1156.043
3414,1197.091
3415,1221.260
3416,1290.100
3417,1309.153
3418,1333.322
3419,1410.261
3420,1461.539
3421,1460.814
3422,1542.868
3423,1553.866
3424,1587.540
3425,1645.425
3426,1671.085
3427,1681.316
3428,1717.206
3429,1704.035
3430,1704.035
3431,1743.591
3432,1715.757
3433,1707.701
3434,1704.760
3435,1705.484
3436,1648.366
3437,1623.430
3438,1599.262
3439,1585.366
3440,1543.593
3441,1498.922
3442,1506.211
3443,1435.154
3444,1450.542
3445,1410.261
3446,1373.646
3447,1364.097
3448,1376.544
3449,1369.980
3450,1356.041
3451,1350.926
3452,1363.373
3453,1375.819
3454,1420.533
3455,1423.432
3456,1487.200
3457,1529.654
3458,1547.983
3459,1599.986
3460,1624.922
3461,1657.147
3462,1700.369
3463,1756.038
3464,1795.594
3465,1816.140
3466,1824.921
3467,1868.867
3468,1898.151
3469,1912.814
3470,1901.817
3471,1891.587
3472,1903.309
3473,1884.255
3474,1887.921
3475,1838.092
3476,1812.474
3477,1797.086
3478,1786.813
3479,1726.754
3480,1706.251
3481,1684.257
3482,1649.815
3483,1642.484
3484,1594.871
3485,1553.866
3486,1534.088
3487,1500.371
3488,1479.143
3489,1463.756
3490,1478.376
3491,1447.601
3492,1436.646
3493,1410.261
3494,1418.317
3495,1426.373
3496,1397.090
3497,1426.373
3498,1401.480
3499,1429.314
3500,1443.210
3501,1427.822
3502,1460.090
3503,1475.478
3504,1476.202
3505,1471.812
3506,1497.430
3507,1500.371
3508,1528.205
3509,1528.205
3510,1522.366
3511,1532.596
3512,1516.483
3513,1502.587
3514,1504.761
3515,1510.644
3516,1498.922
3517,1462.264
3518,1479.868
3519,1438.820
3520,1418.317
3521,1402.929
3522,1377.311
3523,1356.766
3524,1366.314
3525,1336.263
3526,1317.210
3527,1316.485
3528,1315.036
3529,1284.260
3530,1280.594
3531,1262.990
3532,1254.209
3533,1232.257
3534,1180.936
3535,1195.599
3536,1192.658
3537,1180.212
3538,1169.214
3539,1154.594
3540,1178.038
3541,1195.599
3542,1204.380
3543,1247.602
3544,1249.819
3545,1239.546
3546,1254.934
3547,1286.434
3548,1263.757
3549,1283.536
3550,1279.870
3551,1293.766
3552,1278.378
3553,1241.038
3554,1265.207
3555,1243.212
3556,1213.204
3557,1183.153
3558,1150.203
3559,1088.652
3560,1068.149
3561,1010.989
3562,967.767
3563,894.494
3564,871.050
3565,835.884
3566,805.151
3567,738.442
3568,725.996
3569,672.543
3570,693.771
3571,639.551
3572,668.878
3573,662.271
3574,665.936
3575,665.936
3576,695.220
3577,756.046
3578,792.662
3579,832.985
3580,895.261
3581,952.379
3582,1000.716
3583,1076.930
3584,1125.267
3585,1200.714
3586,1287.926
3587,1328.932
3588,1411.710
3589,1455.699
3590,1517.932
3591,1567.037
3592,1627.821
3593,1699.645
3594,1706.976
3595,1784.640
3596,1816.864
3597,1835.918
3598,1833.701
3599,1846.873
3600,1860.086
3601,1872.533
3602,1888.645
3603,1878.373
3604,1869.592
3605,1865.926
3606,1865.926
3607,1839.584
3608,1805.142
3609,1774.367
3610,1786.089
3611,1739.925
3612,1687.923
3613,1691.588
3614,1637.369
3615,1624.922
3616,1589.756
3617,1509.152
3618,1495.980
3619,1438.095
3620,1420.533
3621,1407.320
3622,1365.589
3623,1335.538
3624,1299.648
3625,1230.041
3626,1230.041
3627,1191.934
3628,1151.653
3629,1123.094
3630,1129.658
3631,1068.149
3632,1060.818
3633,1072.540
3634,1016.104
3635,1048.371
3636,1035.882
3637,1015.379
3638,1033.708
3639,989.761
3640,1027.101
3641,1019.770
3642,994.876
3643,1035.157
3644,1000.716
3645,1036.649
3646,1035.882
3647,1027.826
3648,1056.427
3649,1095.984
3650,1112.096
3651,1129.658
3652,1130.425
3653,1125.267
3654,1176.546
3655,1182.428
3656,1193.425
3657,1238.097
3658,1270.322
3659,1277.653
3660,1294.490
3661,1304.763
3662,1347.985
3663,1339.929
3664,1397.814
3665,1386.092
3666,1435.154
3667,1475.478
3668,1462.264
3669,1493.764
3670,1520.149
3671,1557.531
3672,1592.697
3673,1597.088
3674,1621.981
3675,1667.420
3676,1675.476
3677,1690.096
3678,1694.529
3679,1723.088
3680,1748.706
3681,1726.754
3682,1740.650
3683,1771.426
3684,1738.476
3685,1734.086
3686,1749.474
3687,1700.369
3688,1688.647
3689,1696.703
3690,1667.420
3691,1639.543
3692,1624.198
3693,1585.366
3694,1591.206
3695,1586.815
3696,1570.703
3697,1550.200
3698,1530.422
3699,1540.652
3700,1533.320
3701,1537.711
3702,1511.368
3703,1528.205
3704,1552.374
3705,1547.983
3706,1547.259
3707,1568.486
3708,1619.040
3709,1617.591
3710,1633.703
3711,1663.754
3712,1706.251
3713,1700.369
3714,1731.869
3715,1779.482
3716,1771.426
3717,1819.038
3718,1813.923
3719,1854.929
3720,1833.701
3721,1855.696
3722,1880.589
3723,1857.145
3724,1863.028
3725,1873.258
3726,1857.870
3727,1838.816
3728,1813.199
3729,1767.035
3730,1742.142
3731,1676.201
3732,1657.147
3733,1605.869
3734,1583.149
3735,1504.761
3736,1477.652
3737,1427.098
3738,1382.426
3739,1349.434
3740,1312.095
3741,1315.036
3742,1306.979
3743,1245.428
3744,1266.656
3745,1238.097
3746,1242.487
3747,1256.426
3748,1228.591
3749,1279.870
3750,1271.814
3751,1271.046
3752,1291.592
3753,1337.712
3754,1356.041
3755,1400.755
3756,1387.541
3757,1445.427
3758,1439.544
3759,1442.486
3760,1493.039
3761,1488.649
3762,1511.368
3763,1520.874
3764,1507.702
3765,1506.978
3766,1521.598
3767,1517.208
3768,1524.539
3769,1490.865
3770,1460.814
3771,1443.977
3772,1441.761
3773,1427.098
3774,1393.424
3775,1342.145
3776,1309.878
3777,1291.592
3778,1259.324
3779,1230.041
3780,1236.648
3781,1183.153
3782,1150.928
3783,1130.425
3784,1110.604
3785,1082.045
3786,1038.099
3787,1039.548
3788,1023.435
3789,1052.037
3790,1040.315
3791,1052.037
3792,1113.545
3793,1145.770
3794,1153.102
3795,1207.321
3796,1208.813
3797,1243.212
3798,1289.375
3799,1276.929
3800,1306.979
3801,1275.479
3802,1293.766
3803,1271.046
3804,1232.982
3805,1186.094
3806,1180.212
3807,1150.928
3808,1105.489
3809,1008.772
3810,997.818
3811,938.483
3812,902.550
3813,813.207
3814,812.440
3815,769.985
3816,740.659
3817,717.939
3818,695.220
3819,673.268
3820,657.880
3821,687.931
3822,717.939
3823,744.324
3824,739.934
3825,819.771
3826,838.100
3827,908.432
3828,950.930
3829,991.935
3830,1043.214
3831,1124.543
3832,1164.099
3833,1233.706
3834,1261.541
3835,1317.210
3836,1405.146
3837,1419.766
3838,1479.143
3839,1542.144
3840,1564.096
3841,1636.644
3842,1682.040
3843,1699.645
3844,1699.645
3845,1725.262
3846,1746.532
3847,1769.976
3848,1786.813
3849,1775.816
3850,1784.640
3851,1810.982
3852,1805.867
3853,1769.252
3854,1775.091
3855,1789.755
3856,1777.308
3857,1762.645
3858,1720.872
3859,1706.251
3860,1682.040
3861,1682.807
3862,1622.706
3863,1636.644
3864,1568.486
3865,1566.312
3866,1528.930
3867,1498.154
3868,1479.868
3869,1486.432
3870,1427.098
3871,1443.210
3872,1389.033
3873,1387.541
3874,1395.598
3875,1364.097
3876,1336.263
3877,1306.212
3878,1317.934
3879,1304.763
3880,1273.987
3881,1273.987
3882,1276.204
3883,1274.712
3884,1270.322
3885,1246.153
3886,1240.313
3887,1230.765
3888,1235.156
3889,1266.656
3890,1270.322
3891,1277.653
3892,1279.102
3893,1287.201
3894,1290.100
3895,1258.600
3896,1288.651
3897,1307.704
3898,1295.257
3899,1297.431
3900,1325.990
3901,1335.538
3902,1324.541
3903,1348.710
3904,1364.097
3905,1367.763
3906,1364.097
3907,1358.982
3908,1349.434
3909,1336.263
3910,1323.817
3911,1300.373
3912,1294.490
3913,1269.597
3914,1269.597
3915,1256.426
3916,1264.482
3917,1228.591
3918,1224.926
3919,1216.869
3920,1227.100
3921,1199.265
3922,1217.594
3923,1193.425
3924,1187.543
3925,1203.656
3926,1193.425
3927,1205.872
3928,1180.212
3929,1205.147
3930,1175.097
3931,1220.535
3932,1216.869
3933,1198.541
3934,1239.546
3935,1241.038
3936,1238.097
3937,1271.814
3938,1320.151
3939,1349.434
3940,1378.036
3941,1395.598
3942,1449.093
3943,1492.315
3944,1512.817
3945,1572.877
3946,1632.254
3947,1661.537
3948,1727.479
3949,1778.033
3950,1836.642
3951,1909.873
3952,1958.977
3953,2003.649
3954,2050.537
3955,2091.585
3956,2147.254
3957,2169.248
3958,2208.805
3959,2234.423
3960,2241.754
3961,2246.145
3962,2274.746
3963,2269.588
3964,2240.305
3965,2218.310
3966,2213.195
3967,2180.970
3968,2142.139
3969,2090.093
3970,2015.371
3971,1984.638
3972,1926.753
3973,1847.640
3974,1766.311
3975,1701.818
3976,1612.476
3977,1583.149
3978,1469.595
3979,1394.148
3980,1344.319
3981,1264.482
3982,1245.428
3983,1185.369
3984,1128.933
3985,1068.149
3986,1012.438
3987,1022.711
3988,970.708
3989,937.716
3990,967.767
3991,964.101
3992,962.652
3993,960.435
3994,950.205
3995,980.213
3996,991.935
3997,1004.382
3998,992.660
3999,999.991
4000,1043.938
4001,1031.492
4002,1090.826
4003,1070.323
4004,1130.425
4005,1154.594
4006,1170.706
4007,1184.602
4008,1191.934
4009,1202.206
4010,1202.206
4011,1216.869
4012,1233.706
4013,1214.653
4014,1241.763
4015,1213.204
4016,1253.485
4017,1247.602
4018,1232.982
4019,1255.701
4020,1246.878
4021,1239.546
4022,1210.262
4023,1235.880
4024,1210.262
4025,1210.262
4026,1213.928
4027,1169.214
4028,1161.925
4029,1148.711
4030,1134.816
4031,1141.380
4032,1125.267
4033,1106.214
4034,1104.765
4035,1123.818
4036,1158.984
4037,1219.768
4038,1261.541
4039,1298.923
4040,1334.089
4041,1369.980
4042,1377.311
4043,1373.646
4044,1429.314
4045,1399.263
4046,1393.424
4047,1411.710
4048,1389.758
4049,1312.819
4050,1320.151
4051,1254.209
4052,1205.147
4053,1167.765
4054,1083.537
4055,1060.093
4056,997.050
4057,924.545
4058,871.050
4059,862.993
4060,794.154
4061,799.269
4062,787.547
4063,778.766
4064,778.766
4065,788.996
4066,794.154
4067,810.991
4068,824.929
4069,887.929
4070,945.772
4071,990.486
4072,1058.601
4073,1115.037
4074,1183.153
4075,1224.158
4076,1308.429
4077,1347.985
4078,1432.980
4079,1471.812
4080,1523.815
4081,1561.922
4082,1610.259
4083,1660.813
4084,1695.979
4085,1754.589
4086,1801.477
4087,1824.921
4088,1821.979
4089,1878.373
4090,1864.477
4091,1895.252
4092,1898.918
4093,1919.421
4094,1891.587
4095,1904.758
4096,1876.199
4097,1889.370
4098,1857.870
4099,1843.974
4100,1835.918
4101,1786.813
4102,1767.035
4103,1719.423
4104,1701.818
4105,1682.807
4106,1623.430
4107,1594.871
4108,1570.703
4109,1535.537
4110,1476.202
4111,1411.710
4112,1403.654
4113,1359.707
4114,1315.036
4115,1268.148
4116,1223.434
4117,1147.262
4118,1121.602
4119,1101.099
4120,1045.430
4121,994.876
4122,980.213
4123,923.095
4124,890.103
4125,873.266
4126,857.154
4127,840.274
4128,815.381
4129,803.659
4130,791.937
4131,781.707
4132,766.319
4133,762.653
4134,735.544
4135,730.386
4136,753.105
4137,771.434
4138,778.766
4139,757.496
4140,814.656
4141,810.991
4142,832.985
4143,874.715
4144,925.994
4145,941.382
4146,963.376
4147,1027.826
4148,1082.045
4149,1105.489
4150,1131.150
4151,1141.380
4152,1205.147
4153,1214.653
4154,1243.212
4155,1257.875
4156,1270.322
4157,1312.095
4158,1325.990
4159,1375.819
4160,1405.870
4161,1435.921
4162,1462.988
4163,1477.652
4164,1486.432
4165,1541.376
4166,1553.098
4167,1599.262
4168,1639.543
4169,1638.093
4170,1651.265
4171,1685.706
4172,1719.423
4173,1724.538
4174,1732.594
4175,1741.375
4176,1753.864
4177,1754.589
4178,1787.538
4179,1781.698
4180,1783.148
4181,1780.974
4182,1759.704
4183,1735.535
4184,1737.752
4185,1731.145
4186,1711.366
4187,1689.372
4188,1697.428
4189,1697.428
4190,1659.364
4191,1633.703
4192,1664.479
4193,1614.649
4194,1615.374
4195,1630.037
4196,1619.765
4197,1605.144
4198,1610.259
4199,1620.532
4200,1632.254
4201,1685.706
4202,1698.153
4203,1684.257
4204,1729.653
4205,1736.260
4206,1777.308
4207,1805.867
4208,1803.650
4209,1811.707
4210,1831.485
4211,1844.699
4212,1867.418
4213,1885.704
4214,1917.972
4215,1887.196
4216,1904.758
4217,1912.089
4218,1873.982
4219,1869.592
4220,1860.086
4221,1846.148
4222,1837.367
4223,1800.752
4224,1794.870
4225,1748.706
4226,1697.428
4227,1684.257
4228,1643.208
4229,1609.534
4230,1565.588
4231,1566.312
4232,1500.371
4233,1503.312
4234,1479.868
4235,1419.766
4236,1377.311
4237,1372.878
4238,1344.319
4239,1319.426
4240,1294.490
4241,1260.816
4242,1258.600
4243,1254.934
4244,1260.092
4245,1257.875
4246,1252.760
4247,1230.041
4248,1235.880
4249,1224.158
4250,1275.479
4251,1273.987
4252,1269.597
4253,1282.044
4254,1324.541
4255,1303.314
4256,1353.867
4257,1328.207
4258,1358.982
4259,1395.598
4260,1391.932
4261,1387.541
4262,1381.702
4263,1379.485
4264,1380.210
4265,1383.151
4266,1383.876
4267,1392.656
4268,1394.148
4269,1413.202
4270,1424.924
4271,1408.044
4272,1378.761
4273,1376.544
4274,1365.589
4275,1356.041
4276,1325.266
4277,1276.204
4278,1281.319
4279,1290.824
4280,1287.926
4281,1261.541
4282,1249.819
4283,1306.212
4284,1298.923
4285,1304.763
4286,1337.712
4287,1369.980
4288,1350.202
4289,1372.154
4290,1375.095
4291,1374.370
4292,1394.148
4293,1367.763
4294,1335.538
4295,1298.923
4296,1301.822
4297,1246.878
4298,1212.436
4299,1129.658
4300,1061.543
4301,1029.318
4302,964.101
4303,895.986
4304,824.929
4305,753.105
4306,698.161
4307,639.551
4308,583.158
4309,547.992
4310,534.053
4311,520.882
4312,504.770
4313,505.494
4314,488.657
4315,529.663
4316,542.110
4317,599.270
4318,641.768
4319,650.549
4320,706.217
4321,776.549
4322,849.098
4323,945.772
4324,1012.438
4325,1086.436
4326,1161.925
4327,1227.100
4328,1268.872
4329,1342.145
4330,1406.595
4331,1501.820
4332,1553.098
4333,1591.930
4334,1646.150
4335,1708.425
4336,1716.482
4337,1767.760
4338,1817.589
4339,1819.763
4340,1821.979
4341,1834.426
4342,1841.758
4343,1862.260
4344,1843.974
4345,1840.308
4346,1829.311
4347,1823.429
4348,1843.207
4349,1791.204
4350,1783.872
4351,1744.316
4352,1751.647
4353,1736.260
4354,1694.529
4355,1659.364
4356,1645.425
4357,1619.040
4358,1561.922
4359,1573.644
4360,1506.978
4361,1520.149
4362,1479.143
4363,1452.034
4364,1443.977
4365,1372.878
4366,1344.319
4367,1325.990
4368,1315.036
4369,1267.380
4370,1269.597
4371,1230.041
4372,1188.992
4373,1175.821
4374,1161.925
4375,1094.492
4376,1116.487
4377,1065.208
4378,1064.484
4379,1024.160
4380,1013.930
4381,1016.871
4382,992.660
4383,967.042
4384,997.050
4385,987.545
4386,965.550
4387,950.930
4388,990.486
4389,987.545
4390,972.157
4391,1020.494
4392,994.152
4393,1029.318
4394,1067.382
4395,1046.879
4396,1092.318
4397,1119.428
4398,1134.048
4399,1147.262
4400,1159.709
4401,1178.038
4402,1188.992
4403,1251.268
4404,1245.428
4405,1252.035
4406,1284.985
4407,1303.314
4408,1351.651
4409,1346.536
4410,1377.311
4411,1387.541
4412,1416.868
4413,1483.534
4414,1491.590
4415,1554.590
4416,1572.152
4417,1606.593
4418,1608.810
4419,1638.093
4420,1682.807
4421,1710.642
4422,1701.094
4423,1720.872
4424,1732.594
4425,1730.420
4426,1747.257
4427,1755.313
4428,1754.589
4429,1731.145
4430,1717.931
4431,1714.308
4432,1706.976
4433,1688.647
4434,1667.420
4435,1606.593
4436,1578.759
4437,1583.874
4438,1528.205
4439,1504.761
4440,1479.868
4441,1460.814
4442,1452.034
4443,1446.151
4444,1432.980
4445,1438.095
4446,1441.036
4447,1429.314
4448,1449.817
4449,1501.095
4450,1511.368
4451,1562.647
4452,1564.820
4453,1605.144
4454,1643.976
4455,1680.591
4456,1727.479
4457,1787.538
4458,1796.361
4459,1835.918
4460,1875.474
4461,1890.095
4462,1910.640
4463,1909.148
4464,1921.595
4465,1927.477
4466,1901.092
4467,1902.584
4468,1880.589
4469,1865.201
4470,1805.867
4471,1791.204
4472,1732.594
4473,1701.818
4474,1662.262
4475,1610.259
4476,1576.542
4477,1558.981
4478,1523.815
4479,1476.927
4480,1438.095
4481,1413.927
4482,1394.873
4483,1383.876
4484,1379.485
4485,1393.424
4486,1421.258
4487,1388.266
4488,1405.146
4489,1432.255
4490,1482.042
4491,1482.042
4492,1526.031
4493,1561.155
4494,1575.818
4495,1608.810
4496,1658.596
4497,1668.869
4498,1693.762
4499,1756.763
4500,1755.313
4501,1773.642
4502,1798.535
4503,1780.206
4504,1794.870
4505,1795.594
4506,1758.254
4507,1737.752
4508,1712.816
4509,1695.254
4510,1679.866
4511,1600.754
4512,1569.253
4513,1520.874
4514,1481.317
4515,1420.533
4516,1352.376
4517,1308.429
4518,1291.592
4519,1213.928
4520,1171.431
4521,1130.425
4522,1100.374
4523,1070.323
4524,1071.048
4525,1041.764
4526,1002.933
4527,961.927
4528,975.098
4529,980.938
4530,953.828
4531,990.486
4532,1014.655
4533,1037.374
4534,1075.481
4535,1073.989
4536,1119.428
4537,1170.706
4538,1207.321
4539,1232.982
4540,1297.431
4541,1301.822
4542,1293.041
4543,1284.260
4544,1298.156
4545,1297.431
4546,1273.263
4547,1236.648
4548,1170.706
4549,1128.933
4550,1071.048
4551,965.550
4552,931.151
4553,865.935
4554,791.937
4555,715.765
4556,655.664
4557,596.329
4558,516.492
4559,479.834
4560,485.716
4561,425.657
4562,459.331
4563,442.494
4564,457.882
4565,498.163
4566,560.439
4567,575.826
4568,655.664
4569,714.274
4570,787.547
4571,849.098
4572,884.988
4573,992.660
4574,1066.658
4575,1137.714
4576,1180.936
4577,1271.814
4578,1315.036
4579,1364.822
4580,1468.871
4581,1528.930
4582,1584.599
4583,1599.986
4584,1667.420
4585,1704.035
4586,1743.591
4587,1772.918
4588,1798.535
4589,1832.252
4590,1869.592
4591,1893.036
4592,1878.373
4593,1914.306
4594,1893.760
4595,1893.036
4596,1901.092
4597,1897.426
4598,1871.084
4599,1880.589
4600,1844.699
4601,1812.474
4602,1781.698
4603,1749.474
4604,1722.364
4605,1720.147
4606,1660.813
4607,1600.754
4608,1597.088
4609,1542.144
4610,1500.371
4611,1461.539
4612,1399.263
4613,1392.656
4614,1349.434
4615,1309.878
4616,1257.150
4617,1235.156
4618,1228.591
4619,1202.206
4620,1150.928
4621,1133.324
4622,1166.316
4623,1147.987
4624,1118.703
4625,1145.046
4626,1121.602
4627,1167.040
4628,1151.653
4629,1153.102
4630,1169.982
4631,1206.597
4632,1218.319
4633,1230.765
4634,1227.100
4635,1238.821
4636,1233.706
4637,1277.653
4638,1243.212
4639,1289.375
4640,1271.046
4641,1257.875
4642,1290.100
4643,1301.822
4644,1285.709
4645,1258.600
4646,1297.431
4647,1287.201
4648,1279.870
4649,1273.263
4650,1249.819
4651,1230.765
4652,1255.701
4653,1210.987
4654,1246.153
4655,1243.212
4656,1227.100
4657,1247.602
4658,1260.816
4659,1292.316
4660,1279.870
4661,1328.207
4662,1310.645
4663,1349.434
4664,1382.426
4665,1378.036
4666,1409.536
4667,1449.093
4668,1473.986
4669,1481.317
4670,1471.045
4671,1477.652
4672,1488.649
4673,1523.090
4674,1481.317
4675,1492.315
4676,1495.256
4677,1495.256
4678,1475.478
4679,1454.932
4680,1425.649
4681,1421.983
4682,1374.370
4683,1346.536
4684,1341.378
4685,1353.100
4686,1356.766
4687,1344.319
4688,1364.822
4689,1396.322
4690,1370.704
4691,1397.814
4692,1438.095
4693,1501.820
4694,1511.368
4695,1586.090
4696,1632.978
4697,1653.481
4698,1697.428
4699,1775.091
4700,1823.429
4701,1872.533
4702,1931.143
4703,1958.977
4704,1995.593
4705,2047.638
4706,2048.363
4707,2098.192
4708,2092.310
4709,2099.641
4710,2079.138
4711,2076.922
4712,2068.141
4713,2044.697
4714,2021.253
4715,1979.480
4716,1909.148
4717,1876.199
4718,1850.538
4719,1781.698
4720,1731.869
4721,1709.150
4722,1646.150
4723,1602.203
4724,1539.927
4725,1541.376
4726,1473.986
4727,1431.488
4728,1402.205
4729,1399.263
4730,1389.033
4731,1368.488
4732,1366.314
4733,1339.204
4734,1323.092
4735,1314.268
4736,1318.701
4737,1361.924
4738,1326.758
4739,1358.982
4740,1383.151
4741,1391.207
4742,1386.817
4743,1414.651
4744,1471.045
4745,1481.317
4746,1476.202
4747,1518.700
4748,1522.366
4749,1527.481
4750,1542.868
4751,1547.983
4752,1553.866
4753,1574.369
4754,1584.599
4755,1585.366
4756,1555.315
4757,1569.253
4758,1513.542
4759,1495.980
4760,1510.644
4761,1452.034
4762,1472.536
4763,1432.980
4764,1414.651
4765,1410.261
4766,1359.707
4767,1344.319
4768,1336.988
4769,1302.546
4770,1276.204
4771,1290.100
4772,1279.870
4773,1264.482
4774,1242.487
4775,1230.765
4776,1223.434
4777,1199.990
4778,1244.704
4779,1236.648
4780,1225.650
4781,1275.479
4782,1266.656
4783,1260.816
4784,1253.485
4785,1235.880
4786,1230.041
4787,1203.656
4788,1172.155
4789,1141.380
4790,1095.259
4791,1016.104
4792,947.264
4793,899.651
4794,842.491
4795,769.985
4796,682.049
4797,647.607
4798,586.099
4799,503.278
4800,445.435
4801,405.879
4802,377.277
4803,390.491
4804,344.328
4805,391.216
4806,363.381
4807,388.999
4808,466.663
4809,490.831
4810,570.711
4811,594.880
4812,690.105
4813,782.432
4814,847.606
4815,943.598
4816,993.427
4817,1104.040
4818,1187.543
4819,1275.479
4820,1353.867
4821,1401.480
4822,1492.315
4823,1528.930
4824,1588.264
4825,1630.762
4826,1694.529
4827,1709.150
4828,1752.372
4829,1800.752
4830,1817.589
4831,1817.589
4832,1826.370
4833,1845.423
4834,1842.482
4835,1849.089
4836,1832.252
4837,1829.311
4838,1824.921
4839,1812.474
4840,1810.257
4841,1820.530
4842,1808.041
4843,1771.426
4844,1768.484
4845,1767.760
4846,1725.262
4847,1705.484
4848,1718.698
4849,1694.529
4850,1666.652
4851,1649.815
4852,1625.647
4853,1615.374
4854,1627.821
4855,1581.700
4856,1550.200
4857,1559.705
4858,1493.764
4859,1505.486
4860,1464.480
4861,1410.261
4862,1376.544
4863,1361.924
4864,1357.491
4865,1296.707
4866,1264.482
4867,1227.824
4868,1224.926
4869,1169.214
4870,1135.540
4871,1109.155
4872,1106.214
4873,1094.492
4874,1042.489
4875,1032.984
4876,978.764
4877,951.654
4878,947.264
4879,939.208
4880,901.825
4881,846.156
4882,858.603
4883,813.932
4884,821.263
4885,806.600
4886,805.875
4887,788.996
4888,808.049
4889,788.271
4890,819.047
4891,810.266
4892,854.937
4893,841.766
4894,892.320
4895,936.991
4896,968.491
4897,1006.598
4898,1034.433
4899,1074.714
4900,1116.487
4901,1190.484
4902,1243.212
4903,1300.373
4904,1370.704
4905,1435.154
4906,1470.320
4907,1557.531
4908,1599.262
4909,1660.088
4910,1691.588
4911,1742.867
4912,1787.538
4913,1844.699
4914,1895.977
4915,1893.760
4916,1939.199
4917,1919.421
4918,1936.983
4919,1907.699
4920,1910.640
4921,1892.311
4922,1863.028
4923,1813.923
4924,1753.097
4925,1739.925
4926,1672.535
4927,1628.588
4928,1598.537
4929,1571.427
4930,1523.090
4931,1536.261
4932,1480.593
4933,1490.098
4934,1482.042
4935,1454.208
4936,1504.761
4937,1477.652
4938,1534.088
4939,1560.430
4940,1594.147
4941,1644.700
4942,1667.420
4943,1710.642
4944,1766.311
4945,1838.816
4946,1882.039
4947,1933.317
4948,1986.812
4949,2049.812
4950,2079.863
4951,2123.810
4952,2175.088
4953,2190.476
4954,2213.195
4955,2206.588
4956,2227.091
4957,2208.080
4958,2202.922
4959,2169.973
4960,2132.591
4961,2123.085
4962,2074.748
4963,2025.643
4964,1964.092
4965,1894.528
4966,1832.252
4967,1785.364
4968,1747.982
4969,1645.425
4970,1626.371
4971,1553.866
4972,1469.595
4973,1452.034
4974,1408.812
4975,1361.924
4976,1282.768
4977,1275.479
4978,1227.100
4979,1221.260
4980,1225.650
4981,1188.268
4982,1171.431
4983,1166.316
4984,1158.260
4985,1156.043
4986,1168.490
4987,1216.102
4988,1224.158
4989,1214.653
4990,1262.265
4991,1268.872
4992,1302.546
4993,1322.367
4994,1340.654
4995,1315.760
4996,1356.041
4997,1382.426
4998,1378.036
4999,1368.488
5000,1396.322
5001,1383.876
5002,1361.924
5003,1394.873
5004,1366.314
5005,1342.870
5006,1317.934
5007,1307.704
5008,1300.373
5009,1290.824
5010,1300.373
5011,1239.546
5012,1246.878
5013,1254.209
5014,1212.436
5015,1228.591
5016,1187.543
5017,1151.653
5018,1169.214
5019,1167.765
5020,1150.928
5021,1141.380
5022,1143.596
5023,1140.655
5024,1163.375
5025,1171.431
5026,1172.880
5027,1187.543
5028,1244.704
5029,1286.434
5030,1269.597
5031,1295.982
5032,1312.095
5033,1350.926
5034,1339.204
5035,1335.538
5036,1311.370
5037,1305.488
5038,1291.592
5039,1248.370
5040,1181.703
5041,1134.816
5042,1088.652
5043,1024.160
5044,958.261
5045,911.373
5046,816.830
5047,769.985
5048,717.215
5049,631.495
5050,598.546
5051,560.439
5052,520.882
5053,477.660
5054,460.056
5055,497.438
5056,525.997
5057,553.107
5058,578.767
5059,638.102
5060,725.271
5061,783.881
5062,879.873
5063,942.106
5064,1054.936
5065,1150.928
5066,1242.487
5067,1334.814
5068,1427.098
5069,1520.149
5070,1590.481
5071,1684.257
5072,1758.979
5073,1795.594
5074,1859.362
5075,1915.755
5076,1981.697
5077,1991.202
5078,2026.368
5079,2062.259
5080,2083.529
5081,2101.090
5082,2103.307
5083,2082.037
5084,2073.981
5085,2060.809
5086,2040.307
5087,2026.368
5088,2012.472
5089,1991.202
5090,1935.533
5091,1932.592
5092,1869.592
5093,1847.640
5094,1820.530
5095,1761.920
5096,1732.594
5097,1703.310
5098,1621.256
5099,1589.032
5100,1532.596
5101,1491.590
5102,1454.932
5103,1416.100
5104,1371.429
5105,1290.824
5106,1272.538
5107,1209.538
5108,1172.880
5109,1106.981
5110,1046.879
5111,1024.160
5112,985.371
5113,956.769
5114,924.545
5115,913.547
5116,891.595
5117,888.654
5118,872.542
5119,843.215
5120,841.766
5121,854.937
5122,851.272
5123,871.817
5124,906.940
5125,906.940
5126,893.769
5127,918.662
5128,914.272
5129,917.213
5130,922.328
5131,923.820
5132,915.764
5133,923.820
5134,908.432
5135,925.269
5136,935.542
5137,939.208
5138,968.491
5139,975.098
5140,969.216
5141,1016.104
5142,1048.371
5143,1072.540
5144,1091.593
5145,1104.040
5146,1109.880
5147,1178.038
5148,1180.212
5149,1215.378
5150,1298.923
5151,1328.207
5152,1394.148
5153,1452.034
5154,1492.315
5155,1517.932
5156,1608.810
5157,1619.040
5158,1673.984
5159,1723.088
5160,1785.364
5161,1821.979
5162,1821.255
5163,1868.867
5164,1896.702
5165,1894.528
5166,1923.811
5167,1900.367
5168,1887.196
5169,1885.704
5170,1875.474
5171,1831.485
5172,1797.811
5173,1790.479
5174,1730.420
5175,1706.251
5176,1673.259
5177,1647.642
5178,1613.200
5179,1585.366
5180,1567.762
5181,1561.155
5182,1558.256
5183,1600.754
5184,1580.975
5185,1582.425
5186,1610.259
5187,1630.762
5188,1670.318
5189,1736.260
5190,1773.642
5191,1840.308
5192,1890.095
5193,1948.705
5194,1979.480
5195,2047.638
5196,2093.034
5197,2153.136
5198,2208.080
5199,2230.757
5200,2254.201
5201,2271.080
5202,2279.137
5203,2290.134
5204,2304.754
5205,2293.757
5206,2252.027
5207,2227.091
5208,2209.529
5209,2149.470
5210,2108.422
5211,2073.981
5212,2011.705
5213,1956.761
5214,1881.314
5215,1813.923
5216,1761.196
5217,1720.872
5218,1643.976
5219,1602.928
5220,1511.368
5221,1473.261
5222,1414.651
5223,1369.213
5224,1356.766
5225,1284.985
5226,1282.044
5227,1238.821
5228,1194.150
5229,1169.214
5230,1148.711
5231,1138.481
5232,1153.102
5233,1127.484
5234,1098.158
5235,1102.548
5236,1141.380
5237,1117.936
5238,1111.372
5239,1128.933
5240,1158.260
5241,1181.703
5242,1186.094
5243,1183.153
5244,1235.156
5245,1246.878
5246,1240.313
5247,1231.490
5248,1282.768
5249,1244.704
5250,1289.375
5251,1249.094
5252,1291.592
5253,1248.370
5254,1271.046
5255,1287.926
5256,1256.426
5257,1285.709
5258,1241.763
5259,1249.819
5260,1280.594
5261,1292.316
5262,1263.757
5263,1268.148
5264,1294.490
5265,1257.875
5266,1253.485
5267,1274.712
5268,1292.316
5269,1271.814
5270,1273.263
5271,1275.479
5272,1312.819
5273,1348.710
5274,1377.311
5275,1402.205
5276,1413.202
5277,1473.261
5278,1484.258
5279,1507.702
5280,1545.042
5281,1561.155
5282,1522.366
5283,1529.654
5284,1529.654
5285,1486.432
5286,1455.699
5287,1408.812
5288,1400.755
5289,1358.982
5290,1264.482
5291,1249.094
5292,1189.760
5293,1087.928
5294,1051.270
5295,1002.208
5296,956.045
5297,905.491
5298,842.491
5299,814.656
5300,802.210
5301,783.156
5302,765.552
5303,784.605
5304,787.547
5305,786.097
5306,844.707
5307,876.207
5308,931.151
5309,977.272
5310,1026.377
5311,1106.981
5312,1175.821
5313,1210.262
5314,1298.923
5315,1342.145
5316,1453.483
5317,1506.978
5318,1573.644
5319,1632.978
5320,1684.981
5321,1731.869
5322,1769.252
5323,1817.589
5324,1873.258
5325,1880.589
5326,1912.089
5327,1913.539
5328,1944.314
5329,1953.862
5330,1936.258
5331,1938.475
5332,1965.584
5333,1931.143
5334,1946.531
5335,1893.036
5336,1879.140
5337,1890.095
5338,1852.755
5339,1814.648
5340,1781.698
5341,1734.086
5342,1734.086
5343,1706.251
5344,1627.821
5345,1627.096
5346,1567.762
5347,1538.478
5348,1502.587
5349,1462.988
5350,1416.868
5351,1369.980
5352,1286.434
5353,1279.870
5354,1235.880
5355,1172.880
5356,1125.267
5357,1101.099
5358,1084.262
5359,1043.938
5360,972.157
5361,985.371
5362,950.930
5363,929.660
5364,902.550
5365,864.485
5366,848.373
5367,838.100
5368,807.325
5369,832.218
5370,822.713
5371,811.715
5372,808.049
5373,844.707
5374,819.771
5375,821.988
5376,864.485
5377,877.657
5378,889.379
5379,887.162
5380,917.938
5381,908.432
5382,969.216
5383,958.986
5384,1019.045
5385,1008.048
5386,1066.658
5387,1055.660
5388,1090.102
5389,1135.540
5390,1157.492
5391,1178.762
5392,1218.319
5393,1235.880
5394,1226.375
5395,1257.150
5396,1316.485
5397,1353.867
5398,1355.317
5399,1370.704
5400,1427.822
5401,1484.258
5402,1484.258
5403,1520.149
5404,1552.374
5405,1625.647
5406,1638.093
5407,1692.313
5408,1681.316
5409,1711.366
5410,1747.257
5411,1752.372
5412,1771.426
5413,1794.145
5414,1791.928
5415,1802.926
5416,1673.259
5417,1643.976
5418,1606.593
5419,1621.981
5420,1587.540
5421,1551.649
5422,1542.868
5423,1561.155
5424,1578.034
5425,1572.152
5426,1577.310
5427,1571.427
5428,1619.765
5429,1631.487
5430,1693.038
5431,1701.818
5432,1761.920
5433,1792.696
5434,1852.755
5435,1903.309
5436,1964.860
5437,2005.865
5438,2062.259
5439,2128.925
5440,2171.422
5441,2209.529
5442,2236.639
5443,2253.476
5444,2298.915
5445,2289.367
5446,2289.367
5447,2290.134
5448,2275.471
5449,2280.586
5450,2226.366
5451,2211.746
5452,2172.147
5453,2123.810
5454,2041.031
5455,2010.256
5456,1939.924
5457,1859.362
5458,1802.926
5459,1730.420
5460,1635.920
5461,1582.425
5462,1523.815
5463,1449.817
5464,1421.258
5465,1361.924
5466,1273.263
5467,1269.597
5468,1194.875
5469,1162.650
5470,1149.436
5471,1145.046
5472,1103.315
5473,1087.160
5474,1085.711
5475,1101.824
5476,1116.487
5477,1129.658
5478,1158.984
5479,1184.602
5480,1200.714
5481,1225.650
5482,1224.158
5483,1285.709
5484,1288.651
5485,1318.701
5486,1344.319
5487,1372.878
5488,1437.371
5489,1432.980
5490,1432.980
5491,1471.045
5492,1442.486
5493,1469.595
5494,1472.536
5495,1441.761
5496,1419.042
5497,1402.929
5498,1428.590
5499,1418.317
5500,1360.432
5501,1377.311
5502,1350.202
5503,1314.268
5504,1294.490
5505,1284.985
5506,1278.378
5507,1238.821
5508,1251.268
5509,1237.372
5510,1195.599
5511,1193.425
5512,1191.209
5513,1178.038
5514,1210.262
5515,1188.268
5516,1231.490
5517,1219.768
5518,1251.268
5519,1283.536
5520,1313.544
5521,1320.875
5522,1315.760
5523,1302.546
5524,1303.314
5525,1309.878
5526,1288.651
5527,1252.760
5528,1194.150
5529,1189.760
5530,1156.043
5531,1106.214
5532,1043.214
5533,993.427
5534,959.710
5535,902.550
5536,851.272
5537,803.659
5538,768.493
5539,690.830
5540,684.990
5541,620.498
5542,643.217
5543,625.655
5544,588.998
5545,637.377
5546,619.048
5547,668.878
5548,679.108
5549,745.049
5550,787.547
5551,849.098
5552,892.320
5553,946.539
5554,989.761
5555,1052.762
5556,1161.158
5557,1183.153
5558,1265.207
5559,1318.701
5560,1380.935
5561,1440.312
5562,1504.761
5563,1547.259
5564,1602.928
5565,1640.310
5566,1683.532
5567,1717.931
5568,1756.763
5569,1792.696
5570,1818.314
5571,1865.201
5572,1853.480
5573,1885.704
5574,1879.865
5575,1874.750
5576,1902.584
5577,1879.865
5578,1893.036
5579,1873.982
5580,1869.592
5581,1891.587
5582,1846.148
5583,1876.199
5584,1827.094
5585,1852.755
5586,1807.316
5587,1811.707
5588,1777.308
5589,1788.263
5590,1758.254
5591,1714.308
5592,1691.588
5593,1671.810
5594,1633.703
5595,1594.871
5596,1589.032
5597,1522.366
5598,1507.702
5599,1471.812
5600,1427.098
5601,1364.822
5602,1313.544
5603,1309.878
5604,1263.757
5605,1230.041
5606,1197.816
5607,1136.989
5608,1098.882
5609,1112.096
5610,1071.815
5611,1065.208
5612,1062.267
5613,1054.211
5614,1058.601
5615,1064.484
5616,1063.759
5617,1056.427
5618,1073.265
5619,1069.599
5620,1060.818
5621,1063.759
5622,1108.430
5623,1109.155
5624,1115.762
5625,1110.604
5626,1093.767
5627,1093.767
5628,1142.147
5629,1147.262
5630,1142.147
5631,1134.048
5632,1147.262
5633,1150.928
5634,1142.147
5635,1145.046
5636,1132.599
5637,1165.591
5638,1158.260
5639,1172.880
5640,1219.043
5641,1241.038
5642,1268.148
5643,1272.538
5644,1304.038
5645,1317.210
5646,1375.095
5647,1391.932
5648,1445.427
5649,1499.646
5650,1535.537
5651,1557.531
5652,1597.812
5653,1624.922
5654,1691.588
5655,1721.597
5656,1732.594
5657,1735.535
5658,1743.591
5659,1754.589
5660,1792.696
5661,1765.586
5662,1735.535
5663,1728.204
5664,1704.760
5665,1687.923
5666,1660.088
5667,1651.265
5668,1642.484
5669,1611.708
5670,1575.818
5671,1575.093
5672,1569.978
5673,1545.809
5674,1551.649
5675,1567.037
5676,1557.531
5677,1575.093
5678,1586.090
5679,1615.374
5680,1668.869
5681,1697.428
5682,1714.308
5683,1782.423
5684,1801.477
5685,1877.648
5686,1899.643
5687,1933.317
5688,1991.202
5689,2013.197
5690,2045.422
5691,2042.480
5692,2083.529
5693,2073.981
5694,2054.202
5695,2063.751
5696,2056.419
5697,2037.365
5698,1986.812
5699,1939.924
5700,1901.092
5701,1888.645
5702,1830.760
5703,1757.530
5704,1706.251
5705,1680.591
5706,1608.043
5707,1586.815
5708,1553.866
5709,1504.761
5710,1424.924
5711,1410.985
5712,1357.491
5713,1358.258
5714,1305.488
5715,1273.263
5716,1254.209
5717,1241.763
5718,1230.041
5719,1176.546
5720,1202.931
5721,1179.487
5722,1148.711
5723,1168.490
5724,1184.602
5725,1161.158
5726,1156.768
5727,1202.206
5728,1213.928
5729,1213.204
5730,1240.313
5731,1256.426
5732,1302.546
5733,1303.314
5734,1353.100
5735,1375.095
5736,1399.263
5737,1396.322
5738,1397.814
5739,1453.483
5740,1431.488
5741,1471.045
5742,1447.601
5743,1470.320
5744,1482.042
5745,1451.266
5746,1461.539
5747,1444.702
5748,1459.323
5749,1408.044
5750,1435.154
5751,1394.873
5752,1410.261
5753,1354.592
5754,1380.210
5755,1338.480
5756,1372.878
5757,1339.929
5758,1323.092
5759,1307.704
5760,1308.429
5761,1334.089
5762,1325.990
5763,1320.875
5764,1318.701
5765,1329.656
5766,1373.646
5767,1375.819
5768,1436.646
5769,1475.478
5770,1508.427
5771,1536.261
5772,1553.098
5773,1543.593
5774,1535.537
5775,1553.098
5776,1558.256
5777,1536.261
5778,1501.820
5779,1441.036
5780,1416.100
5781,1333.322
5782,1274.712
5783,1233.706
5784,1126.759
5785,1064.484
5786,1030.767
5787,961.160
5788,895.261
5789,793.429
5790,761.161
5791,725.271
5792,680.599
5793,630.770
5794,629.321
5795,611.717
5796,586.099
5797,614.658
5798,629.321
5799,618.324
5800,690.830
5801,736.993
5802,772.883
5803,819.047
5804,902.550
5805,952.379
5806,1046.155
5807,1121.602
5808,1177.270
5809,1246.878
5810,1344.319
5811,1409.536
5812,1454.208
5813,1511.368
5814,1576.542
5815,1642.484
5816,1688.647
5817,1751.647
5818,1785.364
5819,1813.199
5820,1835.918
5821,1882.039
5822,1874.750
5823,1903.309
5824,1898.151
5825,1878.373
5826,1909.873
5827,1886.472
5828,1854.929
5829,1870.317
5830,1855.696
5831,1830.036
5832,1769.252
5833,1755.313
5834,1748.706
5835,1691.588
5836,1684.257
5837,1625.647
5838,1583.874
5839,1553.098
5840,1536.261
5841,1462.988
5842,1465.205
5843,1404.378
5844,1348.710
5845,1323.817
5846,1313.544
5847,1288.651
5848,1234.431
5849,1251.268
5850,1199.990
5851,1180.212
5852,1189.760
5853,1165.591
5854,1136.265
5855,1115.037
5856,1114.270
5857,1116.487
5858,1085.711
5859,1082.770
5860,1037.374
5861,1058.601
5862,1054.936
5863,1043.938
5864,1030.042
5865,1016.871
5866,1004.382
5867,994.152
5868,982.430
5869,949.438
5870,919.430
5871,904.042
5872,908.432
5873,921.603
5874,878.381
5875,856.429
5876,891.595
5877,869.600
5878,843.940
5879,876.207
5880,842.491
5881,884.988
5882,850.547
5883,881.322
5884,895.261
5885,876.932
5886,920.879
5887,958.986
5888,980.938
5889,1010.989
5890,1027.826
5891,1043.214
5892,1083.537
5893,1138.481
5894,1207.321
5895,1225.650
5896,1313.544
5897,1325.990
5898,1418.317
5899,1443.977
5900,1465.930
5901,1515.759
5902,1580.208
5903,1598.537
5904,1616.866
5905,1683.532
5906,1672.535
5907,1701.094
5908,1728.928
5909,1719.423
5910,1698.920
5911,1736.260
5912,1701.818
5913,1677.650
5914,1686.431
5915,1695.979
5916,1684.257
5917,1677.650
5918,1660.088
5919,1646.874
5920,1624.198
5921,1638.093
5922,1637.369
5923,1631.487
5924,1664.479
5925,1654.930
5926,1684.981
5927,1687.198
5928,1743.591
5929,1771.426
5930,1783.148
5931,1805.867
5932,1850.538
5933,1868.867
5934,1934.809
5935,1980.205
5936,2012.472
5937,2049.812
5938,2060.085
5939,2081.312
5940,2127.475
5941,2146.529
5942,2163.366
5943,2145.804
5944,2156.034
5945,2160.425
5946,2131.866
5947,2109.147
5948,2090.093
5949,2064.475
5950,2057.868
5951,2028.585
5952,1960.427
5953,1950.197
5954,1879.140
5955,1836.642
5956,1814.648
5957,1768.484
5958,1718.698
5959,1640.310
5960,1626.371
5961,1569.253
5962,1515.034
5963,1471.045
5964,1422.707
5965,1415.376
5966,1376.544
5967,1338.480
5968,1290.824
5969,1243.212
5970,1244.704
5971,1184.602
5972,1154.594
5973,1179.487
5974,1147.987
5975,1141.380
5976,1127.484
5977,1107.706
5978,1109.880
5979,1134.816
5980,1147.987
5981,1182.428
5982,1180.212
5983,1189.760
5984,1234.431
5985,1232.982
5986,1266.656
5987,1286.434
5988,1303.314
5989,1323.817
5990,1341.378
5991,1364.097
5992,1413.202
5993,1427.822
5994,1415.376
5995,1460.090
5996,1427.822
5997,1462.264
5998,1466.654
5999,1419.766
6000,1452.758
6001,1405.870
6002,1425.649
6003,1429.314
6004,1379.485
6005,1382.426
6006,1366.314
6007,1322.367
6008,1342.145
6009,1294.490
6010,1280.594
6011,1241.038
6012,1242.487
6013,1204.380
6014,1227.824
6015,1180.212
6016,1220.535
6017,1186.819
6018,1219.768
6019,1203.656
6020,1205.872
6021,1237.372
6022,1208.046
6023,1212.436
6024,1197.816
6025,1145.770
6026,1117.211
6027,1087.928
6028,1062.267
6029,1005.874
6030,996.326
6031,942.106
6032,887.929
6033,849.822
6034,812.440
6035,772.159
6036,730.386
6037,649.824
6038,641.768
6039,605.877
6040,575.826
6041,549.441
6042,513.551
6043,490.831
6044,529.663
6045,546.500
6046,571.436
6047,602.936
6048,607.326
6049,676.934
6050,742.875
6051,789.763
6052,849.822
6053,950.930
6054,986.096
6055,1082.770
6056,1169.982
6057,1213.928
6058,1311.370
6059,1406.595
6060,1435.154
6061,1501.095
6062,1577.310
6063,1634.428
6064,1686.431
6065,1743.591
6066,1774.367
6067,1800.752
6068,1833.701
6069,1851.306
6070,1865.926
6071,1877.648
6072,1865.201
6073,1846.148
6074,1829.311
6075,1840.308
6076,1840.308
6077,1821.979
6078,1786.813
6079,1761.196
6080,1736.260
6081,1723.813
6082,1713.540
6083,1679.142
6084,1649.815
6085,1642.484
6086,1639.543
6087,1621.981
6088,1600.754
6089,1539.203
6090,1533.320
6091,1534.088
6092,1504.037
6093,1487.200
6094,1476.927
6095,1436.646
6096,1398.539
6097,1359.707
6098,1331.873
6099,1327.482
6100,1300.373
6101,1252.035
6102,1264.482
6103,1228.591
6104,1198.541
6105,1180.936
6106,1171.431
6107,1152.377
6108,1137.714
6109,1123.818
6110,1114.270
6111,1106.981
6112,1097.433
6113,1087.160
6114,1084.262
6115,1054.936
6116,1065.933
6117,1028.593
6118,1019.045
6119,1015.379
6120,1018.320
6121,1045.430
6122,1030.767
6123,1008.048
6124,1032.216
6125,1000.716
6126,1038.823
6127,1015.379
6128,1004.382
6129,1050.545
6130,1041.040
6131,1050.545
6132,1041.040
6133,1038.099
6134,1061.543
6135,1077.655
6136,1090.102
6137,1104.040
6138,1117.211
6139,1124.543
6140,1136.265
6141,1152.377
6142,1198.541
6143,1225.650
6144,1267.380
6145,1317.934
6146,1346.536
6147,1387.541
6148,1408.044
6149,1455.699
6150,1517.208
6151,1536.986
6152,1603.652
6153,1632.978
6154,1687.923
6155,1717.206
6156,1736.260
6157,1753.097
6158,1772.150
6159,1794.870
6160,1794.145
6161,1756.038
6162,1734.086
6163,1704.760
6164,1689.372
6165,1665.928
6166,1640.310
6167,1589.032
6168,1553.866
6169,1536.986
6170,1534.088
6171,1506.978
6172,1504.037
6173,1473.986
6174,1473.986
6175,1490.865
6176,1533.320
6177,1558.981
6178,1597.088
6179,1633.703
6180,1684.981
6181,1735.535
6182,1820.530
6183,1887.196
6184,1928.926
6185,2006.590
6186,2071.807
6187,2122.360
6188,2186.085
6189,2227.858
6190,2255.693
6191,2278.412
6192,2290.859
6193,2276.195
6194,2273.254
6195,2252.027
6196,2220.527
6197,2178.754
6198,2129.692
6199,2074.748
6200,2032.250
6201,1966.309
6202,1897.426
6203,1821.255
6204,1743.591
6205,1672.535
6206,1599.986
6207,1512.093
6208,1449.093
6209,1418.317
6210,1367.039
6211,1274.712
6212,1265.931
6213,1197.816
6214,1153.102
6215,1115.762
6216,1138.481
6217,1122.326
6218,1107.706
6219,1100.374
6220,1101.099
6221,1118.703
6222,1132.599
6223,1134.816
6224,1153.102
6225,1172.880
6226,1206.597
6227,1251.268
6228,1296.707
6229,1331.873
6230,1339.204
6231,1371.429
6232,1433.705
6233,1432.980
6234,1481.317
6235,1526.031
6236,1556.040
6237,1550.925
6238,1564.820
6239,1602.928
6240,1601.478
6241,1591.930
6242,1564.820
6243,1549.433
6244,1548.708
6245,1545.809
6246,1490.865
6247,1509.876
6248,1446.876
6249,1432.255
6250,1424.924
6251,1382.426
6252,1325.990
6253,1308.429
6254,1245.428
6255,1237.372
6256,1188.268
6257,1144.321
6258,1129.658
6259,1065.933
6260,1068.149
6261,1030.767
6262,1007.323
6263,1012.438
6264,985.371
6265,1005.149
6266,1012.438
6267,999.267
6268,1048.371
6269,1036.649
6270,1022.711
6271,1046.879
6272,1051.270
6273,1035.882
6274,1020.494
6275,1032.216
6276,1011.713
6277,965.550
6278,941.382
6279,951.654
6280,920.154
6281,889.379
6282,853.488
6283,786.822
6284,769.985
6285,755.322
6286,723.822
6287,687.164
6288,643.217
6289,631.495
6290,643.217
6291,656.431
6292,688.656
6293,710.608
6294,746.541
6295,753.830
6296,828.552
6297,884.988
6298,931.151
6299,1003.657
6300,1054.936
6301,1134.816
6302,1180.212
6303,1255.701
6304,1363.373
6305,1409.536
6306,1493.039
6307,1568.486
6308,1592.697
6309,1687.923
6310,1709.150
6311,1772.150
6312,1826.370
6313,1873.258
6314,1888.645
6315,1936.258
6316,1954.587
6317,1973.640
6318,1985.362
6319,1972.916
6320,2010.256
6321,1975.090
6322,1988.261
6323,1988.261
6324,1955.312
6325,1936.258
6326,1926.028
6327,1895.252
6328,1873.258
6329,1852.755
6330,1829.311
6331,1804.418
6332,1806.592
6333,1757.530
6334,1731.145
6335,1698.920
6336,1658.596
6337,1635.920
6338,1620.532
6339,1543.593
6340,1546.534
6341,1473.261
6342,1429.314
6343,1425.649
6344,1390.483
6345,1350.202
6346,1290.100
6347,1244.704
6348,1241.763
6349,1208.813
6350,1164.099
6351,1121.602
6352,1109.880
6353,1069.599
6354,1041.764
6355,1052.037
6356,1019.770
6357,1018.320
6358,1001.483
6359,983.879
6360,980.938
6361,969.216
6362,964.826
6363,955.320
6364,949.438
6365,931.876
6366,929.660
6367,919.430
6368,896.710
6369,870.325
6370,892.320
6371,875.440
6372,874.715
6373,898.159
6374,921.603
6375,928.935
6376,909.157
6377,909.157
6378,911.373
6379,942.873
6380,961.927
6381,950.930
6382,970.708
6383,983.879
6384,999.267
6385,1010.264
6386,1011.713
6387,1033.708
6388,1052.762
6389,1086.436
6390,1109.880
6391,1178.762
6392,1194.875
6393,1215.378
6394,1274.712
6395,1334.814
6396,1372.154
6397,1410.985
6398,1432.255
6399,1457.873
6400,1512.093
6401,1536.986
6402,1599.262
6403,1616.866
6404,1657.147
6405,1665.928
6406,1665.928
6407,1687.923
6408,1675.476
6409,1698.153
6410,1690.864
6411,1671.810
6412,1652.757
6413,1638.818
6414,1643.208
6415,1614.649
6416,1609.534
6417,1607.318
6418,1605.869
6419,1581.700
6420,1589.032
6421,1588.264
6422,1607.318
6423,1639.543
6424,1635.920
6425,1656.422
6426,1689.372
6427,1747.982
6428,1759.704
6429,1821.979
6430,1857.870
6431,1916.480
6432,1943.590
6433,1991.202
6434,2040.307
6435,2106.973
6436,2147.978
6437,2182.420
6438,2200.749
6439,2236.639
6440,2230.032
6441,2235.914
6442,2257.867
6443,2237.364
6444,2232.973
6445,2206.588
6446,2171.422
6447,2144.312
6448,2122.360
6449,2076.197
6450,2037.365
6451,1977.306
6452,1920.870
6453,1860.811
6454,1804.418
6455,1754.589
6456,1731.869
6457,1658.596
6458,1599.986
6459,1550.925
6460,1531.871
6461,1440.312
6462,1430.039
6463,1380.210
6464,1350.926
6465,1276.929
6466,1257.150
6467,1205.147
6468,1219.768
6469,1193.425
6470,1158.260
6471,1142.872
6472,1139.931
6473,1125.992
6474,1085.711
6475,1105.489
6476,1127.484
6477,1134.816
6478,1113.545
6479,1146.538
6480,1165.591
6481,1233.706
6482,1218.319
6483,1283.536
6484,1287.201
6485,1332.597
6486,1367.039
6487,1374.370
6488,1384.600
6489,1393.424
6490,1399.988
6491,1408.044
6492,1422.707
6493,1454.208
6494,1431.488
6495,1446.151
6496,1412.477
6497,1386.817
6498,1395.598
6499,1357.491
6500,1352.376
6501,1311.370
6502,1311.370
6503,1258.600
6504,1274.712
6505,1235.156
6506,1191.934
6507,1188.992
6508,1187.543
6509,1201.482
6510,1191.209
6511,1194.875
6512,1234.431
6513,1222.709
6514,1221.984
6515,1273.987
6516,1250.543
6517,1267.380
6518,1275.479
6519,1254.934
6520,1236.648
6521,1257.150
6522,1234.431
6523,1194.875
6524,1156.043
6525,1142.147
6526,1066.658
6527,1062.992
6528,998.542
6529,965.550
6530,934.817
6531,868.876
6532,846.156
6533,808.049
6534,769.985
6535,750.164
6536,728.937
6537,677.658
6538,671.051
6539,709.158
6540,731.153
6541,753.830
6542,778.766
6543,788.996
6544,861.544
6545,934.050
6546,964.101
6547,1055.660
6548,1128.209
6549,1172.880
6550,1271.814
6551,1338.480
6552,1407.320
6553,1454.932
6554,1548.708
6555,1568.486
6556,1632.978
6557,1694.529
6558,1761.196
6559,1785.364
6560,1803.650
6561,1828.586
6562,1871.808
6563,1885.704
6564,1891.587
6565,1879.140
6566,1882.806
6567,1873.982
6568,1865.201
6569,1849.814
6570,1826.370
6571,1819.038
6572,1802.201
6573,1767.035
6574,1769.252
6575,1701.818
6576,1712.091
6577,1690.864
6578,1622.706
6579,1616.141
6580,1604.419
6581,1545.042
6582,1509.152
6583,1517.932
6584,1462.988
6585,1430.764
6586,1448.368
6587,1420.533
6588,1376.544
6589,1353.867
6590,1320.875
6591,1338.480
6592,1275.479
6593,1298.923
6594,1257.150
6595,1235.880
6596,1199.265
6597,1216.869
6598,1184.602
6599,1172.155
6600,1164.824
6601,1145.046
6602,1134.816
6603,1126.759
6604,1092.318
6605,1088.652
6606,1043.938
6607,1058.601
6608,1039.548
6609,1041.040
6610,999.267
6611,1035.882
6612,992.660
6613,1017.596
6614,986.820
6615,990.486
6616,1000.716
6617,981.705
6618,983.154
6619,985.371
6620,1016.871
6621,1019.045
6622,1006.598
6623,1049.096
6624,1062.992
6625,1044.706
6626,1080.596
6627,1115.762
6628,1131.874
6629,1145.770
6630,1161.925
6631,1178.038
6632,1198.541
6633,1232.257
6634,1285.709
6635,1345.811
6636,1386.092
6637,1400.755
6638,1462.264
6639,1492.315
6640,1516.483
6641,1577.310
6642,1618.315
6643,1632.978
6644,1707.701
6645,1700.369
6646,1736.984
6647,1769.252
6648,1778.757
6649,1805.867
6650,1797.086
6651,1787.538
6652,1769.252
6653,1778.757
6654,1764.094
6655,1741.375
6656,1690.096
6657,1649.091
6658,1627.821
6659,1628.588
6660,1599.262
6661,1532.596
6662,1526.031
6663,1521.598
6664,1459.323
6665,1490.865
6666,1464.480
6667,1478.376
6668,1441.761
6669,1485.708
6670,1482.767
6671,1536.261
6672,1542.868
6673,1564.820
6674,1635.152
6675,1696.703
6676,1740.650
6677,1782.423
6678,1876.923
6679,1909.148
6680,1972.149
6681,2030.034
6682,2109.147
6683,2163.366
6684,2180.203
6685,2210.254
6686,2254.201
6687,2267.415
6688,2268.864
6689,2236.639
6690,2216.861
6691,2172.914
6692,2150.919
6693,2076.922
6694,2016.138
6695,1959.702
6696,1896.702
6697,1833.701
6698,1750.198
6699,1712.091
6700,1632.254
6701,1566.312
6702,1482.767
6703,1405.870
6704,1359.707
6705,1295.257
6706,1219.043
6707,1154.594
6708,1115.037
6709,1082.045
6710,1079.104
6711,1068.874
6712,1049.096
6713,1025.652
6714,1072.540
6715,1061.543
6716,1084.262
6717,1075.481
6718,1095.259
6719,1164.099
6720,1194.875
6721,1232.982
6722,1254.209
6723,1271.046
6724,1323.817
6725,1367.039
6726,1391.207
6727,1429.314
6728,1473.986
6729,1529.654
6730,1556.040
6731,1541.376
6732,1560.430
6733,1574.369
6734,1619.040
6735,1618.315
6736,1595.596
6737,1622.706
6738,1616.141
6739,1602.203
6740,1603.652
6741,1577.310
6742,1588.264
6743,1547.259
6744,1540.652
6745,1526.756
6746,1499.646
6747,1485.708
6748,1456.424
6749,1465.930
6750,1424.924
6751,1407.320
6752,1388.266
6753,1367.039
6754,1392.656
6755,1383.151
6756,1378.761
6757,1352.376
6758,1378.761
6759,1367.039
6760,1340.654
6761,1374.370
6762,1322.367
6763,1295.982
6764,1284.260
6765,1271.814
6766,1213.204
6767,1202.206
6768,1162.650
6769,1106.981
6770,1029.318
6771,1021.262
6772,968.491
6773,920.154
6774,867.384
6775,799.269
6776,769.218
6777,734.052
6778,687.164
6779,630.770
6780,641.043
6781,588.273
6782,612.441
6783,638.102
6784,642.492
6785,655.664
6786,701.102
6787,778.041
6788,796.327
6789,859.328
6790,969.216
6791,1002.933
6792,1102.548
6793,1186.094
6794,1239.546
6795,1345.044
6796,1396.322
6797,1471.812
6798,1550.925
6799,1613.200
6800,1698.920
6801,1772.918
6802,1819.038
6803,1841.758
6804,1879.140
6805,1927.477
6806,1943.590
6807,1980.205
6808,1970.699
6809,1984.638
6810,1990.477
6811,1980.972
6812,1983.146
6813,1970.699
6814,1945.039
6815,1906.250
6816,1904.033
6817,1891.587
6818,1847.640
6819,1800.752
6820,1786.089
6821,1756.038
6822,1712.091
6823,1688.647
6824,1622.706
6825,1600.754
6826,1534.812
6827,1519.424
6828,1457.149
6829,1432.980
6830,1386.092
6831,1385.368
6832,1347.260
6833,1313.544
6834,1306.979
6835,1288.651
6836,1260.816
6837,1238.821
6838,1253.485
6839,1216.869
6840,1257.875
6841,1226.375
6842,1274.712
6843,1293.766
6844,1265.207
6845,1277.653
6846,1304.038
6847,1315.036
6848,1349.434
6849,1364.097
6850,1365.589
6851,1365.589
6852,1369.213
6853,1332.597
6854,1315.036
6855,1319.426
6856,1338.480
6857,1284.260
6858,1301.822
6859,1260.092
6860,1286.434
6861,1240.313
6862,1261.541
6863,1254.934
6864,1238.821
6865,1230.041
6866,1239.546
6867,1204.380
6868,1238.097
6869,1204.380
6870,1232.257
6871,1230.765
6872,1204.380
6873,1210.987
6874,1194.875
6875,1229.316
6876,1234.431
6877,1237.372
6878,1243.212
6879,1279.102
6880,1302.546
6881,1343.595
6882,1355.317
6883,1435.154
6884,1430.764
6885,1466.654
6886,1504.037
6887,1553.098
6888,1601.478
6889,1606.593
6890,1672.535
6891,1672.535
6892,1676.925
6893,1712.091
6894,1708.425
6895,1685.706
6896,1696.703
6897,1687.923
6898,1666.652
6899,1605.869
6900,1569.978
6901,1534.088
6902,1523.090
6903,1497.430
6904,1421.983
6905,1422.707
6906,1359.707
6907,1315.036
6908,1331.873
6909,1283.536
6910,1257.150
6911,1255.701
6912,1287.201
6913,1287.926
6914,1273.263
6915,1334.814
6916,1328.932
6917,1366.314
6918,1413.927
6919,1475.478
6920,1542.868
6921,1601.478
6922,1684.981
6923,1751.647
6924,1845.423
6925,1915.031
6926,1990.477
6927,2030.758
6928,2086.470
6929,2138.473
6930,2190.476
6931,2253.476
6932,2284.252
6933,2313.578
6934,2306.246
6935,2329.690
6936,2316.476
6937,2304.030
6938,2308.420
6939,2257.867
6940,2252.751
6941,2216.861
6942,2167.756
6943,2107.697
6944,2061.534
6945,2014.646
6946,1957.528
6947,1869.592
6948,1817.589
6949,1775.816
6950,1682.807
6951,1647.642
6952,1546.534
6953,1499.646
6954,1446.876
6955,1372.154
6956,1358.982
6957,1301.822
6958,1263.757
6959,1224.158
6960,1188.268
6961,1135.540
6962,1093.043
6963,1072.540
6964,1097.433
6965,1087.928
6966,1073.265
6967,1077.655
6968,1074.714
6969,1081.321
6970,1104.765
6971,1125.267
6972,1171.431
6973,1167.765
6974,1206.597
6975,1238.097
6976,1225.650
6977,1265.931
6978,1284.260
6979,1309.153
6980,1313.544
6981,1321.600
6982,1301.097
6983,1280.594
6984,1319.426
6985,1298.923
6986,1284.985
6987,1276.204
6988,1276.929
6989,1283.536
6990,1282.768
6991,1273.987
6992,1258.600
6993,1215.378
6994,1241.763
6995,1202.931
6996,1224.926
6997,1227.100
6998,1199.990
6999,1243.212
7000,1268.148
7001,1290.824
7002,1321.600
7003,1352.376
7004,1416.100
7005,1412.477
7006,1438.820
7007,1467.421
7008,1489.373
7009,1516.483
7010,1542.144
7011,1499.646
7012,1484.258
7013,1499.646
7014,1429.314
7015,1430.039
7016,1366.314
7017,1337.712
7018,1252.760
7019,1217.594
7020,1153.869
7021,1115.762
7022,1023.435
7023,1006.598
7024,955.320
7025,906.940
7026,866.659
7027,832.985
7028,810.266
7029,799.993
7030,791.212
7031,805.875
7032,797.052
7033,859.328
7034,895.986
7035,936.991
7036,1002.933
7037,1051.270
7038,1119.428
7039,1150.928
7040,1235.880
7041,1317.210
7042,1355.317
7043,1456.424
7044,1529.654
7045,1580.208
7046,1655.698
7047,1714.308
7048,1756.763
7049,1785.364
7050,1856.421
7051,1868.867
7052,1890.095
7053,1916.480
7054,1934.084
7055,1951.646
7056,1969.250
7057,1980.205
7058,1973.640
7059,1942.140
7060,1934.809
7061,1914.306
7062,1921.595
7063,1892.311
7064,1861.536
7065,1848.364
7066,1788.263
7067,1756.763
7068,1731.145
7069,1689.372
7070,1679.866
7071,1616.866
7072,1621.981
7073,1578.034
7074,1532.596
7075,1463.756
7076,1454.932
7077,1380.210
7078,1382.426
7079,1342.870
7080,1284.985
7081,1239.546
7082,1186.094
7083,1197.091
7084,1150.928
7085,1120.152
7086,1096.708
7087,1065.933
7088,1016.871
7089,1028.593
7090,976.548
7091,965.550
7092,972.882
7093,950.205
7094,927.486
7095,912.098
7096,892.320
7097,875.440
7098,834.434
7099,824.162
7100,817.597
7101,769.218
7102,745.774
7103,717.939
7104,745.774
7105,726.720
7106,723.822
7107,724.546
7108,706.217
7109,704.043
7110,764.103
7111,746.541
7112,810.266
7113,802.934
7114,841.041
7115,900.376
7116,913.547
7117,1001.483
7118,1028.593
7119,1104.765
7120,1161.925
7121,1195.599
7122,1285.709
7123,1365.589
7124,1402.929
7125,1509.876
7126,1539.203
7127,1628.588
7128,1689.372
7129,1759.704
7130,1822.704
7131,1879.140
7132,1954.587
7133,1968.483
7134,2006.590
7135,2049.087
7136,2073.981
7137,2088.644
7138,2081.312
7139,2063.026
7140,2043.248
7141,2022.702
7142,1985.362
7143,1968.483
7144,1920.146
7145,1856.421
7146,1821.255
7147,1768.484
7148,1734.086
7149,1722.364
7150,1652.757
7151,1624.922
7152,1623.430
7153,1605.869
7154,1617.591
7155,1597.088
7156,1597.088
7157,1602.203
7158,1652.757
7159,1655.698
7160,1699.645
7161,1713.540
7162,1772.918
7163,1811.707
7164,1846.148
7165,1923.811
7166,1952.370
7167,2008.806
7168,2073.256
7169,2122.360
7170,2179.478
7171,2196.358
7172,2243.246
7173,2246.912
7174,2273.254
7175,2284.252
7176,2265.923
7177,2273.254
7178,2260.808
7179,2232.973
7180,2181.695
7181,2169.248
7182,2125.259
7183,2083.529
7184,2032.250
7185,1972.149
7186,1904.033
7187,1872.533
7188,1791.928
7189,1731.145
7190,1686.431
7191,1595.596
7192,1548.708
7193,1501.820
7194,1454.932
7195,1426.373
7196,1386.817
7197,1306.979
7198,1268.148
7199,1262.265
7200,1223.434
7201,1197.816
7202,1221.260
7203,1202.206
7204,1187.543
7205,1185.369
7206,1165.591
7207,1167.040
7208,1215.378
7209,1185.369
7210,1235.156
7211,1226.375
7212,1259.324
7213,1295.257
7214,1307.704
7215,1313.544
7216,1301.097
7217,1309.153
7218,1325.990
7219,1339.929
7220,1334.814
7221,1350.202
7222,1322.367
7223,1312.819
7224,1291.592
7225,1279.102
7226,1298.156
7227,1240.313
7228,1269.597
7229,1222.709
7230,1227.824
7231,1208.813
7232,1175.821
7233,1208.813
7234,1186.094
7235,1165.591
7236,1158.984
7237,1144.321
7238,1133.324
7239,1123.818
7240,1112.096
7241,1115.762
7242,1134.816
7243,1144.321
7244,1139.931
7245,1182.428
7246,1188.992
7247,1203.656
7248,1232.257
7249,1252.760
7250,1213.928
7251,1246.878
7252,1220.535
7253,1209.538
7254,1173.647
7255,1128.933
7256,1134.816
7257,1095.259
7258,1042.489
7259,993.427
7260,945.772
7261,908.432
7262,841.041
7263,819.047
7264,783.881
7265,756.771
7266,734.819
7267,715.041
7268,695.987
7269,701.827
7270,723.097
7271,742.875
7272,765.552
7273,783.881
7274,825.654
7275,911.373
7276,952.379
7277,1028.593
7278,1110.604
7279,1179.487
7280,1221.260
7281,1300.373
7282,1410.261
7283,1462.988
7284,1548.708
7285,1590.481
7286,1680.591
7287,1724.538
7288,1776.541
7289,1832.252
7290,1872.533
7291,1915.031
7292,1934.809
7293,1948.705
7294,1973.640
7295,1994.868
7296,2005.141
7297,2009.531
7298,1995.593
7299,1998.534
7300,2002.199
7301,1972.149
7302,1936.983
7303,1938.475
7304,1891.587
7305,1898.151
7306,1843.207
7307,1799.260
7308,1783.148
7309,1739.925
7310,1707.701
7311,1653.481
7312,1608.043
7313,1580.975
7314,1548.708
7315,1529.654
7316,1466.654
7317,1449.817
7318,1423.432
7319,1369.213
7320,1320.151
7321,1328.207
7322,1299.648
7323,1266.656
7324,1213.204
7325,1217.594
7326,1170.706
7327,1191.209
7328,1142.872
7329,1117.211
7330,1145.770
7331,1125.267
7332,1109.155
7333,1094.492
7334,1100.374
7335,1102.548
7336,1104.765
7337,1090.826
7338,1080.596
7339,1085.711
7340,1082.770
7341,1084.262
7342,1086.436
7343,1060.093
7344,1077.655
7345,1072.540
7346,1095.259
7347,1092.318
7348,1079.871
7349,1053.486
7350,1048.371
7351,1080.596
7352,1064.484
7353,1067.382
7354,1052.762
7355,1076.206
7356,1041.040
7357,1062.267
7358,1076.930
7359,1042.489
7360,1048.371
7361,1067.382
7362,1093.043
7363,1104.040
7364,1115.762
7365,1120.152
7366,1148.711
7367,1175.821
7368,1223.434
7369,1258.600
7370,1286.434
7371,1331.148
7372,1347.260
7373,1426.373
7374,1428.590
7375,1485.708
7376,1525.264
7377,1616.866
7378,1620.532
7379,1671.085
7380,1717.206
7381,1720.872
7382,1739.925
7383,1788.263
7384,1762.645
7385,1757.530
7386,1751.647
7387,1752.372
7388,1720.147
7389,1678.374
7390,1626.371
7391,1622.706
7392,1582.425
7393,1539.203
7394,1528.930
7395,1462.264
7396,1456.424
7397,1420.533
7398,1431.488
7399,1400.755
7400,1430.039
7401,1457.149
7402,1435.154
7403,1476.927
7404,1527.481
7405,1572.152
7406,1602.203
7407,1658.596
7408,1731.145
7409,1776.541
7410,1855.696
7411,1909.873
7412,2004.416
7413,2052.753
7414,2111.363
7415,2180.203
7416,2227.858
7417,2294.524
7418,2342.137
7419,2372.912
7420,2389.749
7421,2379.477
7422,2402.921
7423,2392.691
7424,2347.977
7425,2312.811
7426,2295.974
7427,2237.364
7428,2177.305
7429,2101.090
7430,2037.365
7431,1996.360
7432,1919.421
7433,1838.816
7434,1769.252
7435,1713.540
7436,1622.706
7437,1550.200
7438,1507.702
7439,1474.710
7440,1386.817
7441,1376.544
7442,1320.151
7443,1296.707
7444,1220.535
7445,1226.375
7446,1218.319
7447,1165.591
7448,1177.270
7449,1141.380
7450,1167.040
7451,1151.653
7452,1153.869
7453,1188.268
7454,1197.091
7455,1202.206
7456,1246.153
7457,1270.322
7458,1284.260
7459,1297.431
7460,1298.156
7461,1309.153
7462,1364.097
7463,1364.097
7464,1351.651
7465,1350.926
7466,1360.432
7467,1361.156
7468,1377.311
7469,1335.538
7470,1325.990
7471,1296.707
7472,1294.490
7473,1304.038
7474,1282.044
7475,1233.706
7476,1243.212
7477,1190.484
7478,1164.824
7479,1183.153
7480,1165.591
7481,1150.203
7482,1136.989
7483,1121.602
7484,1147.987
7485,1156.768
7486,1165.591
7487,1183.153
7488,1206.597
7489,1268.148
7490,1308.429
7491,1308.429
7492,1328.207
7493,1392.656
7494,1400.755
7495,1402.929
7496,1381.702
7497,1353.867
7498,1326.758
7499,1327.482
7500,1270.322
7501,1222.709
7502,1221.984
7503,1170.706
7504,1114.270
7505,1025.652
7506,1013.930
7507,951.654
7508,880.598
7509,813.207
7510,799.993
7511,753.830
7512,717.215
7513,693.046
7514,676.934
7515,639.551
7516,650.549
7517,665.936
7518,697.437
7519,761.161
7520,769.985
7521,852.763
7522,909.881
7523,949.438
7524,1034.433
7525,1112.096
7526,1215.378
7527,1253.485
7528,1369.980
7529,1426.373
7530,1523.090
7531,1576.542
7532,1627.096
7533,1681.316
7534,1729.653
7535,1789.030
7536,1808.041
7537,1836.642
7538,1873.982
7539,1904.758
7540,1903.309
7541,1901.817
7542,1936.258
7543,1905.482
7544,1906.974
7545,1923.087
7546,1898.151
7547,1883.530
7548,1898.151
7549,1873.258
7550,1850.538
7551,1835.918
7552,1831.485
7553,1780.206
7554,1777.308
7555,1748.706
7556,1717.206
7557,1681.316
7558,1662.987
7559,1626.371
7560,1586.815
7561,1571.427
7562,1553.098
7563,1473.986
7564,1479.868
7565,1421.258
7566,1396.322
7567,1359.707
7568,1306.979
7569,1249.094
7570,1218.319
7571,1196.324
7572,1169.214
7573,1175.097
7574,1159.709
7575,1125.267
7576,1099.650
7577,1119.428
7578,1109.155
7579,1101.824
7580,1061.543
7581,1075.481
7582,1065.208
7583,1082.045
7584,1097.433
7585,1098.158
7586,1095.984
7587,1060.818
7588,1060.818
7589,1065.208
7590,1069.599
7591,1089.377
7592,1070.323
7593,1037.374
7594,1035.882
7595,1044.706
7596,1044.706
7597,999.991
7598,1019.045
7599,1004.382
7600,983.879
7601,950.930
7602,983.879
7603,964.101
7604,928.935
7605,968.491
7606,947.264
7607,946.539
7608,964.101
7609,991.211
7610,1038.823
7611,1076.206
7612,1156.768
7613,1208.046
7614,1266.656
7615,1327.482
7616,1371.429
7617,1443.977
7618,1522.366
7619,1604.419
7620,1677.650
7621,1731.869
7622,1816.864
7623,1846.873
7624,1928.202
7625,1945.806
7626,1994.143
7627,2027.093
7628,2034.424
7629,2032.250
7630,2012.472
7631,1978.756
7632,1939.924
7633,1923.087
7634,1865.926
7635,1816.140
7636,1729.653
7637,1683.532
7638,1624.922
7639,1583.149
7640,1520.149
7641,1493.039
7642,1502.587
7643,1460.090
7644,1460.090
7645,1487.924
7646,1462.264
7647,1523.815
7648,1542.144
7649,1586.090
7650,1609.534
7651,1682.040
7652,1698.920
7653,1758.254
7654,1810.257
7655,1857.145
7656,1936.983
7657,1961.194
7658,1985.362
7659,2016.863
7660,2041.756
7661,2053.478
7662,2071.807
7663,2060.085
7664,2045.422
7665,2037.365
7666,2002.924
7667,1983.871
7668,1951.646
7669,1889.370
7670,1843.207
7671,1804.418
7672,1775.816
7673,1685.706
7674,1667.420
7675,1586.090
7676,1521.598
7677,1509.152
7678,1457.873
7679,1408.812
7680,1376.544
7681,1340.654
7682,1263.757
7683,1282.044
7684,1229.316
7685,1202.206
7686,1205.872
7687,1219.043
7688,1197.816
7689,1199.990
7690,1217.594
7691,1204.380
7692,1227.824
7693,1252.760
7694,1229.316
7695,1290.824
7696,1265.931
7697,1306.212
7698,1356.766
7699,1370.704
7700,1381.702
7701,1409.536
7702,1432.255
7703,1452.034
7704,1512.817
7705,1515.034
7706,1522.366
7707,1522.366
7708,1551.649
7709,1567.762
7710,1554.590
7711,1534.088
7712,1518.700
7713,1475.478
7714,1452.034
7715,1422.707
7716,1424.924
7717,1390.483
7718,1323.092
7719,1330.423
7720,1283.536
7721,1227.824
7722,1204.380
7723,1169.982
7724,1093.043
7725,1082.770
7726,1036.649
7727,1000.716
7728,972.157
7729,955.320
7730,945.047
7731,939.208
7732,958.261
7733,967.042
7734,1008.048
7735,1027.826
7736,1088.652
7737,1133.324
7738,1161.158
7739,1197.091
7740,1199.990
7741,1262.990
7742,1255.701
7743,1257.150
7744,1275.479
7745,1236.648
7746,1230.041
7747,1204.380
7748,1121.602
7749,1098.882
7750,1041.764
7751,1011.713
7752,939.208
7753,862.993
7754,835.159
7755,783.881
7756,734.052
7757,662.995
7758,639.551
7759,651.998
7760,635.885
7761,613.209
7762,621.265
7763,647.607
7764,671.051
7765,745.049
7766,760.437
7767,848.373
7768,905.491
7769,933.325
7770,1019.770
7771,1085.711
7772,1165.591
7773,1205.872
7774,1282.044
7775,1383.876
7776,1438.820
7777,1494.489
7778,1547.259
7779,1641.759
7780,1679.142
7781,1694.529
7782,1758.979
7783,1791.928
7784,1785.364
7785,1803.650
7786,1815.372
7787,1819.038
7788,1833.701
7789,1821.255
7790,1821.979
7791,1824.921
7792,1799.985
7793,1774.367
7794,1745.041
7795,1752.372
7796,1698.920
7797,1669.594
7798,1639.543
7799,1613.925
7800,1598.537
7801,1592.697
7802,1560.430
7803,1541.376
7804,1504.037
7805,1471.812
7806,1492.315
7807,1457.149
7808,1436.646
7809,1475.478
7810,1430.764
7811,1468.871
7812,1474.710
7813,1445.427
7814,1473.986
7815,1505.486
7816,1479.868
7817,1506.978
7818,1534.812
7819,1538.478
7820,1528.930
7821,1528.205
7822,1533.320
7823,1540.652
7824,1544.318
7825,1548.708
7826,1536.986
7827,1532.596
7828,1512.817
7829,1498.922
7830,1502.587
7831,1481.317
7832,1472.536
7833,1424.199
7834,1376.544
7835,1347.985
7836,1345.044
7837,1284.985
7838,1284.260
7839,1236.648
7840,1208.046
7841,1165.591
7842,1107.706
7843,1073.265
7844,1025.652
7845,1024.927
7846,987.545
7847,959.710
7848,899.651
7849,866.659
7850,882.047
7851,833.710
7852,829.319
7853,833.710
7854,835.159
7855,829.319
7856,856.429
7857,909.157
7858,936.267
7859,953.104
7860,1010.264
7861,1091.593
7862,1125.267
7863,1213.204
7864,1244.704
7865,1339.929
7866,1376.544
7867,1443.210
7868,1482.767
7869,1539.203
7870,1632.254
7871,1669.594
7872,1677.650
7873,1707.701
7874,1751.647
7875,1759.704
7876,1723.088
7877,1718.698
7878,1716.482
7879,1682.807
7880,1612.476
7881,1566.312
7882,1523.090
7883,1505.486
7884,1430.764
7885,1369.980
7886,1319.426
7887,1295.982
7888,1226.375
7889,1232.257
7890,1165.591
7891,1172.880
7892,1168.490
7893,1145.770
7894,1206.597
7895,1213.928
7896,1238.097
7897,1282.044
7898,1380.210
7899,1413.202
7900,1503.312
7901,1580.208
7902,1613.925
7903,1690.864
7904,1758.254
7905,1862.260
7906,1893.760
7907,1971.424
7908,2027.093
7909,2054.970
7910,2101.815
7911,2132.591
7912,2126.751
7913,2142.139
7914,2161.192
7915,2136.256
7916,2107.697
7917,2108.422
7918,2074.748
7919,2038.815
7920,2004.416
7921,1950.197
7922,1895.252
7923,1872.533
7924,1824.196
7925,1774.367
7926,1682.807
7927,1653.481
7928,1592.697
7929,1529.654
7930,1485.708
7931,1481.317
7932,1406.595
7933,1363.373
7934,1334.814
7935,1320.151
7936,1280.594
7937,1254.209
7938,1243.979
7939,1245.428
7940,1227.100
7941,1242.487
7942,1243.979
7943,1203.656
7944,1232.982
7945,1249.819
7946,1235.880
7947,1234.431
7948,1251.268
7949,1270.322
7950,1276.929
7951,1291.592
7952,1331.148
7953,1350.202
7954,1358.982
7955,1339.204
7956,1353.100
7957,1347.260
7958,1307.704
7959,1307.704
7960,1291.592
7961,1287.201
7962,1263.757
7963,1265.931
7964,1208.046
7965,1238.821
7966,1183.153
7967,1175.821
7968,1211.712
7969,1196.324
7970,1173.647
7971,1155.318
7972,1144.321
7973,1178.762
7974,1164.099
7975,1169.214
7976,1177.270
7977,1203.656
7978,1239.546
7979,1293.766
7980,1342.145
7981,1358.982
7982,1432.255
7983,1494.489
7984,1539.927
7985,1553.098
7986,1622.706
7987,1619.040
7988,1635.920
7989,1678.374
7990,1658.596
7991,1663.754
7992,1620.532
7993,1623.430
7994,1583.149
7995,1542.868
7996,1472.536
7997,1440.312
7998,1352.376
7999,1312.819
8000,1210.987
8001,1137.714
8002,1095.259
8003,1004.382
8004,971.432
8005,881.322
8006,875.440
8007,820.496
8008,808.774
8009,791.937
8010,775.825
8011,750.931
8012,808.049
8013,791.212
8014,857.154
8015,887.929
8016,965.550
8017,1008.048
8018,1079.871
8019,1136.265
8020,1215.378
8021,1257.875
8022,1372.154
8023,1400.755
8024,1490.098
8025,1572.152
8026,1613.200
8027,1686.431
8028,1725.262
8029,1766.311
8030,1846.148
8031,1858.595
8032,1915.031
8033,1932.592
8034,1941.416
8035,1958.977
8036,1994.143
8037,1965.584
8038,1982.421
8039,1986.812
8040,1948.705
8041,1920.870
8042,1918.696
8043,1905.482
8044,1850.538
8045,1803.650
8046,1781.698
8047,1758.979
8048,1687.923
8049,1659.364
8050,1627.821
8051,1586.815
8052,1543.593
8053,1457.149
8054,1460.814
8055,1391.207
8056,1345.811
8057,1347.985
8058,1294.490
8059,1263.757
8060,1213.204
8061,1171.431
8062,1174.372
8063,1147.987
8064,1098.158
8065,1112.821
8066,1050.545
8067,1062.992
8068,1038.099
8069,1021.986
8070,1001.483
8071,984.604
8072,924.545
8073,923.095
8074,899.651
8075,878.381
8076,844.707
8077,840.274
8078,810.991
8079,787.547
8080,766.319
8081,743.600
8082,706.942
8083,676.934
8084,665.212
8085,673.993
8086,624.163
8087,664.487
8088,635.161
8089,672.543
8090,681.324
8091,684.990
8092,714.274
8093,766.319
8094,795.603
8095,818.322
8096,852.763
8097,871.050
8098,955.320
8099,975.098
8100,1009.540
8101,1072.540
8102,1129.658
8103,1188.268
8104,1238.097
8105,1303.314
8106,1374.370
8107,1476.202
8108,1529.654
8109,1573.644
8110,1679.866
8111,1701.094
8112,1785.364
8113,1856.421
8114,1901.817
8115,1945.806
8116,1994.143
8117,2040.307
8118,2071.807
8119,2082.804
8120,2111.363
8121,2119.419
8122,2119.419
8123,2108.422
8124,2068.141
8125,2042.480
8126,2012.472
8127,1972.916
8128,1956.036
8129,1917.204
8130,1872.533
8131,1811.707
8132,1766.311
8133,1750.923
8134,1693.038
8135,1669.594
8136,1670.318
8137,1613.925
8138,1600.754
8139,1602.203
8140,1630.762
8141,1630.037
8142,1620.532
8143,1643.208
8144,1674.709
8145,1713.540
8146,1722.364
8147,1767.035
8148,1813.923
8149,1826.370
8150,1861.536
8151,1917.972
8152,1958.253
8153,1994.868
8154,2019.804
8155,2049.087
8156,2060.809
8157,2049.087
8158,2065.200
8159,2065.924
8160,2041.756
8161,2024.919
8162,2016.138
8163,1979.480
8164,1959.702
8165,1922.362
8166,1885.704
8167,1840.308
8168,1774.367
8169,1697.428
8170,1662.262
8171,1581.700
8172,1522.366
8173,1476.927
8174,1427.098
8175,1389.033
8176,1335.538
8177,1290.824
8178,1222.709
8179,1211.712
8180,1165.591
8181,1130.425
8182,1093.043
8183,1087.928
8184,1083.537
8185,1068.874
8186,1075.481
8187,1075.481
8188,1098.882
8189,1104.040
8190,1101.824
8191,1097.433
8192,1119.428
8193,1127.484
8194,1191.209
8195,1204.380
8196,1207.321
8197,1268.148
8198,1257.150
8199,1286.434
8200,1336.263
8201,1352.376
8202,1369.213
8203,1358.258
8204,1368.488
8205,1347.985
8206,1366.314
8207,1377.311
8208,1367.039
8209,1358.258
8210,1319.426
8211,1299.648
8212,1294.490
8213,1296.707
8214,1246.153
8215,1232.257
8216,1243.979
8217,1221.984
8218,1202.206
8219,1207.321
8220,1161.158
8221,1161.158
8222,1178.762
8223,1162.650
8224,1210.987
8225,1188.268
8226,1243.979
8227,1269.597
8228,1296.707
8229,1355.317
8230,1412.477
8231,1410.261
8232,1464.480
8233,1493.764
8234,1501.095
8235,1490.865
8236,1476.927
8237,1484.258
8238,1482.767
8239,1446.876
8240,1399.263
8241,1363.373
8242,1285.709
8243,1252.035
8244,1202.206
8245,1127.484
8246,1082.045
8247,1037.374
8248,991.211
8249,950.930
8250,876.207
8251,873.266
8252,831.493
8253,849.822
8254,816.830
8255,858.603
8256,855.662
8257,862.993
8258,897.435
8259,941.382
8260,999.991
8261,1046.155
8262,1073.265
8263,1122.326
8264,1178.762
8265,1254.209
8266,1328.932
8267,1388.266
8268,1430.039
8269,1459.323
8270,1527.481
8271,1590.481
8272,1632.254
8273,1674.709
8274,1743.591
8275,1749.474
8276,1786.089
8277,1815.372
8278,1833.701
8279,1864.477
8280,1869.592
8281,1869.592
8282,1871.808
8283,1874.750
8284,1885.704
8285,1852.030
8286,1840.308
8287,1820.530
8288,1809.533
8289,1809.533
8290,1758.254
8291,1730.420
8292,1720.147
8293,1701.818
8294,1667.420
8295,1614.649
8296,1569.978
8297,1568.486
8298,1492.315
8299,1463.756
8300,1455.699
8301,1399.988
8302,1374.370
8303,1338.480
8304,1301.097
8305,1288.651
8306,1257.875
8307,1227.100
8308,1202.931
8309,1139.931
8310,1158.984
8311,1127.484
8312,1117.211
8313,1069.599
8314,1068.874
8315,1083.537
8316,1057.152
8317,1059.326
8318,1057.152
8319,1008.772
8320,1029.318
8321,1006.598
8322,974.374
8323,1000.716
8324,981.705
8325,968.491
8326,950.205
8327,931.151
8328,906.216
8329,856.429
8330,868.151
8331,866.659
8332,834.434
8333,833.710
8334,814.656
8335,855.662
8336,827.103
8337,878.381
8338,852.763
8339,898.884
8340,931.151
8341,950.930
8342,970.708
8343,990.486
8344,1000.716
8345,1014.655
8346,1017.596
8347,1089.377
8348,1083.537
8349,1140.655
8350,1167.040
8351,1241.763
8352,1309.878
8353,1355.317
8354,1416.868
8355,1474.710
8356,1576.542
8357,1621.256
8358,1710.642
8359,1758.979
8360,1804.418
8361,1880.589
8362,1936.983
8363,1966.309
8364,1999.983
8365,2021.978
8366,2043.248
8367,2042.480
8368,2027.093
8369,2027.860
8370,1980.205
8371,1917.972
8372,1872.533
8373,1792.696
8374,1719.423
8375,1632.254
8376,1525.264
8377,1471.045
8378,1357.491
8379,1258.600
8380,1157.492
8381,1090.102
8382,1000.716
8383,956.769
8384,914.272
8385,833.710
8386,822.713
8387,830.044
8388,823.437
8389,832.218
8390,835.884
8391,893.769
8392,961.160
8393,998.542
8394,1112.821
8395,1192.658
8396,1249.094
8397,1366.314
8398,1440.312
8399,1511.368
8400,1619.765
8401,1688.647
8402,1765.586
8403,1807.316
8404,1864.477
8405,1921.595
8406,1959.702
8407,1962.643
8408,1994.143
8409,1990.477
8410,1969.975
8411,1986.812
8412,1961.194
8413,1926.028
8414,1876.923
8415,1843.974
8416,1814.648
8417,1756.763
8418,1730.420
8419,1674.709
8420,1634.428
8421,1597.088
8422,1567.037
8423,1568.486
8424,1506.211
8425,1513.542
8426,1457.149
8427,1438.820
8428,1468.146
8429,1455.699
8430,1446.876
8431,1441.761
8432,1396.322
8433,1390.483
8434,1398.539
8435,1396.322
8436,1400.755
8437,1421.983
8438,1421.983
8439,1416.868
8440,1409.536
8441,1394.873
8442,1384.600
8443,1396.322
8444,1421.258
8445,1409.536
8446,1384.600
8447,1387.541
8448,1380.210
8449,1389.758
8450,1364.822
8451,1383.876
8452,1325.990
8453,1341.378
8454,1333.322
8455,1273.263
8456,1293.766
8457,1248.370
8458,1225.650
8459,1189.760
8460,1173.647
8461,1186.819
8462,1174.372
8463,1161.158
8464,1158.260
8465,1151.653
8466,1147.262
8467,1100.374
8468,1120.877
8469,1147.987
8470,1150.203
8471,1160.433
8472,1186.094
8473,1231.490
8474,1229.316
8475,1274.712
8476,1326.758
8477,1392.656
8478,1434.429
8479,1485.708
8480,1530.422
8481,1577.310
8482,1632.254
8483,1643.208
8484,1624.198
8485,1602.203
8486,1592.697
8487,1546.534
8488,1517.932
8489,1487.924
8490,1421.258
8491,1362.648
8492,1265.931
8493,1199.265
8494,1120.152
8495,1022.711
8496,953.104
8497,867.384
8498,797.819
8499,738.442
8500,657.880
8501,643.942
8502,604.385
8503,578.767
8504,566.321
8505,570.711
8506,584.607
8507,594.155
8508,603.661
8509,687.931
8510,739.209
8511,788.271
8512,879.106
8513,953.828
8514,1037.374
8515,1127.484
8516,1225.650
8517,1305.488
8518,1372.878
8519,1460.814
8520,1579.484
8521,1620.532
8522,1733.319
8523,1780.206
8524,1856.421
8525,1907.699
8526,1950.197
8527,1998.534
8528,2031.526
8529,2057.144
8530,2092.310
8531,2103.307
8532,2104.032
8533,2113.537
8534,2117.203
8535,2093.034
8536,2068.141
8537,2067.416
8538,2045.422
8539,2019.804
8540,1975.814
8541,1976.582
8542,1919.421
8543,1870.317
8544,1835.151
8545,1795.594
8546,1775.091
8547,1709.875
8548,1692.313
8549,1641.035
8550,1608.810
8551,1544.318
8552,1528.930
8553,1445.427
8554,1444.702
8555,1379.485
8556,1323.817
8557,1299.648
8558,1268.872
8559,1196.324
8560,1204.380
8561,1146.538
8562,1099.650
8563,1088.652
8564,1072.540
8565,1050.545
8566,1022.711
8567,969.216
8568,980.213
8569,930.384
8570,913.547
8571,920.879
8572,897.435
8573,892.320
8574,876.207
8575,854.937
8576,843.215
8577,810.266
8578,775.825
8579,797.819
8580,767.768
8581,781.707
8582,773.608
8583,777.274
8584,772.159
8585,786.822
8586,834.434
8587,872.542
8588,901.825
8589,917.213
8590,953.828
8591,975.823
8592,1036.649
8593,1054.936
8594,1116.487
8595,1152.377
8596,1197.091
8597,1241.038
8598,1302.546
8599,1339.929
8600,1387.541
8601,1458.598
8602,1482.767
8603,1530.422
8604,1580.208
8605,1647.642
8606,1690.864
8607,1752.372
8608,1767.035
8609,1799.260
8610,1825.645
8611,1865.926
8612,1909.873
8613,1892.311
8614,1934.084
8615,1919.421
8616,1904.758
8617,1915.031
8618,1883.530
8619,1842.482
8620,1799.985
8621,1768.484
8622,1705.484
8623,1688.647
8624,1630.037
8625,1550.200
8626,1465.930
8627,1403.654
8628,1330.423
8629,1312.095
8630,1216.102
8631,1180.936
8632,1168.490
8633,1099.650
8634,1069.599
8635,1076.206
8636,1067.382
8637,1060.093
8638,1069.599
8639,1079.871
8640,1119.428
8641,1155.318
8642,1185.369
8643,1201.482
8644,1282.044
8645,1338.480
8646,1399.988
8647,1459.323
8648,1536.986
8649,1602.928
8650,1678.374
8651,1715.757
8652,1816.864
8653,1834.426
8654,1890.862
8655,1943.590
8656,1991.927
8657,2001.475
8658,2022.702
8659,2057.868
8660,2063.026
8661,2032.975
8662,2047.638
8663,2034.424
8664,2001.475
8665,1989.028
8666,1959.702
8667,1904.758
8668,1887.196
8669,1846.148
8670,1809.533
8671,1759.704
8672,1723.813
8673,1701.094
8674,1666.652
8675,1652.757
8676,1602.203
8677,1581.700
8678,1556.040
8679,1544.318
8680,1515.759
8681,1500.371
8682,1486.432
8683,1503.312
8684,1480.593
8685,1498.154
8686,1476.927
8687,1454.932
8688,1479.143
8689,1449.093
8690,1446.876
8691,1492.315
8692,1461.539
8693,1490.098
8694,1479.868
8695,1500.371
8696,1499.646
8697,1532.596
8698,1500.371
8699,1512.817
8700,1494.489
8701,1487.924
8702,1494.489
8703,1472.536
8704,1420.533
8705,1435.154
8706,1397.090
8707,1366.314
8708,1345.044
8709,1320.151
8710,1253.485
