'sample interval','wrist_ppg'
'0.00390625 sec','mV'
0,1334.791
1,1334.050
2,1273.263
3,1258.602
4,1252.754
5,1251.272
6,1280.594
7,1220.508
8,1260.085
9,1213.918
10,1263.009
11,1220.508
12,1251.272
13,1267.415
14,1241.017
15,1278.370
16,1309.875
17,1274.005
18,1316.506
19,1347.970
20,1317.947
21,1335.533
22,1397.802
23,1411.722
24,1405.132
25,1405.874
26,1461.553
27,1429.307
28,1490.835
29,1458.629
30,1521.599
31,1484.987
32,1535.519
33,1504.013
34,1527.488
35,1558.993
36,1531.153
37,1566.282
38,1523.081
39,1525.264
40,1561.917
41,1527.488
42,1561.176
43,1506.237
44,1520.898
45,1547.256
46,1504.755
47,1538.484
48,1519.416
49,1486.469
50,1490.835
51,1518.675
52,1476.173
53,1504.013
54,1488.652
55,1473.249
56,1463.736
57,1487.169
58,1504.013
59,1504.755
60,1454.223
61,1484.987
62,1450.557
63,1500.348
64,1469.584
65,1458.629
66,1482.804
67,1485.728
68,1472.549
69,1445.410
70,1440.303
71,1478.397
72,1456.405
73,1441.744
74,1432.231
75,1430.048
76,1454.964
77,1444.709
78,1446.892
79,1453.481
80,1444.709
81,1451.999
82,1454.223
83,1457.147
84,1446.151
85,1438.820
86,1430.789
87,1475.473
88,1439.561
89,1458.629
90,1465.219
91,1432.972
92,1461.553
93,1454.223
94,1455.664
95,1470.325
96,1491.576
97,1449.816
98,1454.223
99,1479.139
100,1490.093
101,1469.584
102,1493.059
103,1502.572
104,1453.481
105,1497.424
106,1445.410
107,1468.143
108,1431.490
109,1472.549
110,1421.235
111,1462.995
112,1418.311
113,1414.646
114,1432.231
115,1389.030
116,1380.216
117,1413.904
118,1358.225
119,1386.806
120,1359.707
121,1351.635
122,1395.619
123,1363.372
124,1367.038
125,1384.623
126,1383.140
127,1405.132
128,1369.962
129,1374.368
130,1409.539
131,1380.216
132,1386.806
133,1389.030
134,1389.730
135,1396.319
136,1443.968
137,1421.976
138,1411.722
139,1440.303
140,1445.410
141,1430.789
142,1463.736
143,1411.722
144,1447.633
145,1405.874
146,1453.481
147,1397.060
148,1407.315
149,1388.288
150,1410.980
151,1371.444
152,1416.128
153,1362.631
154,1346.528
155,1339.939
156,1380.216
157,1360.448
158,1342.122
159,1310.617
160,1323.795
161,1356.042
162,1354.600
163,1339.198
164,1323.095
165,1323.095
166,1320.871
167,1321.613
168,1328.943
169,1343.604
170,1350.194
171,1337.015
172,1361.890
173,1399.984
174,1364.114
175,1360.448
176,1372.144
177,1361.890
178,1366.296
179,1368.520
180,1405.132
181,1410.980
182,1391.954
183,1391.954
184,1399.984
185,1397.060
186,1385.364
187,1383.882
188,1389.030
189,1392.695
190,1398.543
191,1388.288
192,1373.627
193,1371.444
194,1369.220
195,1369.962
196,1349.452
197,1339.939
198,1321.613
199,1307.693
200,1309.875
201,1317.947
202,1320.130
203,1311.358
204,1278.370
205,1306.210
206,1306.210
207,1297.438
208,1249.089
209,1291.590
210,1246.906
211,1241.017
212,1252.754
213,1258.602
214,1232.245
215,1235.910
216,1233.686
217,1260.826
218,1206.588
219,1246.165
220,1208.812
221,1213.918
222,1221.249
223,1194.150
224,1218.325
225,1169.976
226,1171.417
227,1210.994
228,1156.056
229,1180.972
230,1195.592
231,1153.132
232,1194.150
233,1210.253
234,1175.082
235,1187.561
236,1233.686
237,1191.926
238,1227.838
239,1252.754
240,1231.504
241,1275.446
242,1263.009
243,1271.781
244,1281.335
245,1301.103
246,1275.446
247,1323.795
248,1337.015
249,1314.282
250,1354.600
251,1312.099
252,1361.890
253,1376.551
254,1334.050
255,1389.730
256,1358.966
257,1388.288
258,1394.878
259,1428.566
260,1427.124
261,1438.079
262,1428.566
263,1422.718
264,1485.728
265,1464.477
266,1493.059
267,1477.656
268,1519.416
269,1475.473
270,1509.903
271,1484.245
272,1517.233
273,1501.089
274,1506.979
275,1505.496
276,1490.093
277,1528.188
278,1517.933
279,1480.580
280,1475.473
281,1470.325
282,1512.827
283,1501.089
284,1482.804
285,1482.804
286,1450.557
287,1466.660
288,1486.469
289,1483.504
290,1471.067
291,1422.718
292,1454.223
293,1460.071
294,1438.079
295,1405.132
296,1407.315
297,1453.481
298,1436.637
299,1432.231
300,1442.485
301,1435.896
302,1409.539
303,1413.204
304,1451.999
305,1449.816
306,1436.637
307,1428.566
308,1460.812
309,1447.633
310,1432.231
311,1454.964
312,1438.079
313,1456.405
314,1482.804
315,1440.303
316,1473.249
317,1487.911
318,1447.633
319,1473.249
320,1490.093
321,1462.995
322,1498.165
323,1450.557
324,1500.348
325,1491.576
326,1475.473
327,1501.831
328,1454.964
329,1488.652
330,1476.173
331,1473.991
332,1448.334
333,1478.397
334,1501.831
335,1453.481
336,1477.656
337,1499.648
338,1458.629
339,1451.299
340,1494.500
341,1493.059
342,1453.481
343,1473.249
344,1449.075
345,1462.253
346,1431.490
347,1470.325
348,1457.147
349,1441.744
350,1487.169
351,1447.633
352,1451.299
353,1453.481
354,1449.816
355,1458.629
356,1455.664
357,1471.067
358,1507.679
359,1469.584
360,1504.755
361,1465.219
362,1512.827
363,1461.553
364,1492.317
365,1479.839
366,1460.071
367,1500.348
368,1460.812
369,1506.237
370,1452.740
371,1493.759
372,1446.892
373,1495.983
374,1456.405
375,1435.155
376,1481.321
377,1451.999
378,1423.459
379,1426.383
380,1451.299
381,1434.455
382,1413.904
383,1416.869
384,1396.319
385,1396.319
386,1386.064
387,1381.699
388,1366.296
389,1358.966
390,1316.506
391,1328.202
392,1335.533
393,1337.015
394,1359.707
395,1312.099
396,1358.966
397,1315.023
398,1320.871
399,1353.118
400,1315.023
401,1349.452
402,1370.703
403,1328.943
404,1326.760
405,1331.126
406,1353.859
407,1342.122
408,1339.198
409,1368.520
410,1372.144
411,1369.220
412,1315.023
413,1322.354
414,1327.461
415,1347.270
416,1343.604
417,1297.438
418,1315.023
419,1305.510
420,1289.366
421,1328.943
422,1301.845
423,1292.290
424,1331.126
425,1312.841
426,1304.769
427,1320.130
428,1346.528
429,1357.524
430,1315.023
431,1321.613
432,1346.528
433,1386.806
434,1394.136
435,1401.467
436,1405.132
437,1395.619
438,1376.551
439,1424.159
440,1411.722
441,1434.455
442,1417.570
443,1399.984
444,1416.869
445,1418.311
446,1412.463
447,1403.650
448,1405.874
449,1430.789
450,1451.299
451,1430.048
452,1441.744
453,1446.151
454,1405.874
455,1404.391
456,1413.904
457,1418.311
458,1430.789
459,1430.789
460,1432.231
461,1407.315
462,1400.726
463,1372.886
464,1363.372
465,1365.555
466,1369.220
467,1394.878
468,1341.381
469,1374.368
470,1326.019
471,1354.600
472,1301.103
473,1325.278
474,1321.613
475,1287.925
476,1271.081
477,1316.506
478,1290.849
479,1262.267
480,1252.013
481,1285.701
482,1271.081
483,1250.571
484,1243.941
485,1223.432
486,1213.918
487,1249.089
488,1243.241
489,1246.165
490,1225.656
491,1196.333
492,1183.896
493,1175.082
494,1180.972
495,1189.744
496,1162.645
497,1193.409
498,1204.405
499,1202.922
500,1186.820
501,1190.485
502,1189.744
503,1187.561
504,1195.592
505,1233.686
506,1229.321
507,1217.584
508,1252.013
509,1230.762
510,1265.191
511,1288.666
512,1276.187
513,1286.442
514,1345.046
515,1356.783
516,1325.278
517,1343.604
518,1391.212
519,1410.980
520,1410.980
521,1416.869
522,1435.155
523,1436.637
524,1449.816
525,1447.633
526,1455.664
527,1449.816
528,1434.455
529,1430.048
530,1427.124
531,1426.383
532,1436.637
533,1484.245
534,1441.744
535,1460.812
536,1484.245
537,1459.329
538,1472.549
539,1493.759
540,1482.804
541,1465.219
542,1499.648
543,1467.401
544,1486.469
545,1506.237
546,1473.991
547,1457.888
548,1454.223
549,1454.964
550,1474.732
551,1488.652
552,1456.405
553,1447.633
554,1427.124
555,1466.660
556,1434.455
557,1421.235
558,1436.637
559,1407.315
560,1451.999
561,1420.535
562,1450.557
563,1425.642
564,1425.642
565,1424.159
566,1394.878
567,1443.227
568,1429.307
569,1405.132
570,1397.802
571,1450.557
572,1442.485
573,1405.874
574,1458.629
575,1413.204
576,1466.660
577,1424.159
578,1443.227
579,1465.919
580,1461.553
581,1482.804
582,1478.397
583,1444.709
584,1449.816
585,1482.804
586,1477.656
587,1489.393
588,1442.485
589,1460.071
590,1463.736
591,1455.664
592,1481.321
593,1435.896
594,1457.888
595,1473.249
596,1437.379
597,1444.709
598,1486.469
599,1433.713
600,1433.713
601,1471.067
602,1477.656
603,1430.789
604,1432.972
605,1459.329
606,1469.584
607,1466.660
608,1442.485
609,1416.128
610,1410.980
611,1422.718
612,1420.535
613,1435.896
614,1424.900
615,1400.726
616,1400.726
617,1401.467
618,1407.315
619,1439.561
620,1415.387
621,1433.713
622,1419.052
623,1434.455
624,1451.999
625,1462.253
626,1480.580
627,1478.397
628,1442.485
629,1438.820
630,1443.968
631,1468.884
632,1447.633
633,1443.227
634,1449.075
635,1464.477
636,1494.500
637,1493.059
638,1456.405
639,1444.709
640,1441.044
641,1453.481
642,1462.995
643,1482.804
644,1484.245
645,1475.473
646,1473.249
647,1465.219
648,1461.553
649,1408.056
650,1424.159
651,1437.379
652,1435.155
653,1386.806
654,1408.056
655,1362.631
656,1387.547
657,1347.970
658,1363.372
659,1380.216
660,1347.270
661,1372.144
662,1317.206
663,1363.372
664,1318.689
665,1339.939
666,1330.385
667,1359.707
668,1357.524
669,1337.015
670,1373.627
671,1383.140
672,1340.680
673,1393.395
674,1346.528
675,1366.296
676,1402.208
677,1352.376
678,1386.064
679,1362.631
680,1387.547
681,1339.198
682,1378.775
683,1342.122
684,1309.875
685,1353.118
686,1297.438
687,1286.442
688,1324.537
689,1266.674
690,1312.841
691,1265.191
692,1297.438
693,1260.085
694,1247.606
695,1277.670
696,1250.571
697,1224.914
698,1275.446
699,1271.081
700,1254.937
701,1231.504
702,1279.853
703,1243.241
704,1261.526
705,1279.111
706,1295.955
707,1274.746
708,1296.697
709,1293.031
710,1338.457
711,1305.510
712,1342.122
713,1322.354
714,1378.775
715,1340.680
716,1382.399
717,1369.220
718,1358.966
719,1403.650
720,1387.547
721,1358.225
722,1360.448
723,1360.448
724,1364.114
725,1407.315
726,1396.319
727,1355.300
728,1363.372
729,1399.284
730,1345.787
731,1378.034
732,1356.042
733,1331.867
734,1336.274
735,1356.783
736,1315.765
737,1361.190
738,1349.452
739,1314.282
740,1312.841
741,1303.286
742,1299.621
743,1309.875
744,1312.099
745,1334.050
746,1331.126
747,1328.943
748,1317.947
749,1317.947
750,1304.769
751,1299.621
752,1277.670
753,1280.594
754,1279.853
755,1275.446
756,1232.986
757,1228.580
758,1269.598
759,1247.606
760,1245.424
761,1226.356
762,1215.401
763,1213.918
764,1227.097
765,1210.253
766,1204.405
767,1216.101
768,1229.321
769,1240.276
770,1238.834
771,1238.834
772,1232.245
773,1221.249
774,1219.766
775,1210.994
776,1271.781
777,1250.571
778,1243.941
779,1295.255
780,1309.175
781,1306.210
782,1314.282
783,1350.194
784,1312.841
785,1360.448
786,1384.623
787,1398.543
788,1358.966
789,1367.038
790,1389.730
791,1401.467
792,1443.968
793,1432.972
794,1418.311
795,1419.794
796,1436.637
797,1453.481
798,1451.999
799,1452.740
800,1465.919
801,1462.995
802,1471.808
803,1481.321
804,1497.424
805,1523.081
806,1559.693
807,1561.917
808,1548.738
809,1528.188
810,1536.260
811,1537.742
812,1549.438
813,1545.773
814,1584.609
815,1575.096
816,1576.578
817,1558.993
818,1533.336
819,1519.416
820,1515.009
821,1505.496
822,1501.089
823,1511.344
824,1490.835
825,1490.835
826,1503.313
827,1464.477
828,1449.075
829,1468.143
830,1462.253
831,1427.824
832,1430.048
833,1413.204
834,1410.239
835,1426.383
836,1434.455
837,1419.052
838,1419.794
839,1428.566
840,1451.299
841,1421.235
842,1418.311
843,1462.253
844,1426.383
845,1443.227
846,1464.477
847,1479.139
848,1451.299
849,1434.455
850,1475.473
851,1453.481
852,1443.227
853,1457.147
854,1497.424
855,1448.334
856,1487.169
857,1470.325
858,1460.812
859,1490.835
860,1484.987
861,1452.740
862,1455.664
863,1454.223
864,1498.907
865,1471.067
866,1460.812
867,1480.580
868,1453.481
869,1438.079
870,1452.740
871,1470.325
872,1463.736
873,1427.124
874,1431.490
875,1460.812
876,1421.976
877,1411.722
878,1415.387
879,1401.467
880,1442.485
881,1446.151
882,1443.227
883,1438.079
884,1423.459
885,1391.954
886,1428.566
887,1440.303
888,1437.379
889,1443.968
890,1443.968
891,1416.869
892,1424.159
893,1420.535
894,1411.722
895,1465.219
896,1421.235
897,1466.660
898,1430.789
899,1473.991
900,1431.490
901,1464.477
902,1449.075
903,1489.393
904,1438.820
905,1452.740
906,1461.553
907,1443.968
908,1442.485
909,1472.549
910,1427.124
911,1473.249
912,1448.334
913,1419.794
914,1410.980
915,1413.204
916,1397.802
917,1394.136
918,1415.387
919,1426.383
920,1420.535
921,1414.646
922,1391.212
923,1373.627
924,1357.524
925,1343.604
926,1350.935
927,1358.966
928,1378.775
929,1333.350
930,1328.943
931,1326.019
932,1328.202
933,1323.795
934,1322.354
935,1317.206
936,1352.376
937,1366.296
938,1317.206
939,1320.130
940,1362.631
941,1367.779
942,1368.520
943,1367.779
944,1370.703
945,1323.095
946,1346.528
947,1369.220
948,1370.703
949,1334.791
950,1315.765
951,1323.795
952,1344.305
953,1356.783
954,1316.506
955,1321.613
956,1293.773
957,1304.769
958,1334.050
959,1294.514
960,1274.005
961,1279.111
962,1308.434
963,1304.769
964,1265.191
965,1271.081
966,1269.598
967,1301.103
968,1274.005
969,1304.769
970,1271.781
971,1262.267
972,1282.777
973,1302.586
974,1328.202
975,1305.510
976,1290.849
977,1311.358
978,1307.693
979,1318.689
980,1331.126
981,1358.225
982,1389.730
983,1392.695
984,1396.319
985,1398.543
986,1391.212
987,1386.806
988,1392.695
989,1414.646
990,1405.874
991,1444.709
992,1447.633
993,1409.539
994,1460.812
995,1427.124
996,1422.718
997,1407.315
998,1403.650
999,1397.060
1000,1405.132
1001,1400.726
1002,1402.950
1003,1389.030
1004,1375.810
1005,1369.220
1006,1370.703
1007,1372.886
1008,1363.372
1009,1350.194
1010,1346.528
1011,1355.300
1012,1355.300
1013,1335.533
1014,1342.863
1015,1364.114
1016,1345.046
1017,1345.787
1018,1356.783
1019,1325.278
1020,1321.613
1021,1296.697
1022,1293.031
1023,1297.438
1024,1323.095
1025,1267.415
1026,1309.175
1027,1255.678
1028,1295.955
1029,1247.606
1030,1288.666
1031,1265.933
1032,1236.651
1033,1279.853
1034,1266.674
1035,1262.267
1036,1235.910
1037,1277.670
1038,1232.245
1039,1239.575
1040,1252.754
1041,1227.838
1042,1266.674
1043,1244.682
1044,1229.321
1045,1273.263
1046,1232.245
1047,1246.906
1048,1284.259
1049,1294.514
1050,1251.272
1051,1279.111
1052,1301.845
1053,1263.009
1054,1302.586
1055,1306.951
1056,1291.590
1057,1284.259
1058,1293.773
1059,1285.001
1060,1304.769
1061,1326.019
1062,1306.210
1063,1289.366
1064,1317.947
1065,1309.175
1066,1296.697
1067,1292.290
1068,1298.179
1069,1326.760
1070,1348.711
1071,1379.475
1072,1375.110
1073,1375.110
1074,1430.048
1075,1436.637
1076,1443.227
1077,1443.227
1078,1474.732
1079,1479.839
1080,1471.067
1081,1498.165
1082,1523.822
1083,1553.104
1084,1538.484
1085,1541.408
1086,1545.073
1087,1530.412
1088,1583.868
1089,1554.586
1090,1535.519
1091,1584.609
1092,1578.761
1093,1543.590
1094,1550.180
1095,1545.773
1096,1515.009
1097,1506.237
1098,1545.073
1099,1484.987
1100,1520.898
1101,1516.492
1102,1476.173
1103,1457.888
1104,1489.393
1105,1467.401
1106,1446.892
1107,1446.892
1108,1454.223
1109,1442.485
1110,1441.044
1111,1443.227
1112,1397.060
1113,1406.615
1114,1390.471
1115,1400.726
1116,1409.539
1117,1430.048
1118,1391.212
1119,1430.048
1120,1384.623
1121,1399.284
1122,1389.030
1123,1391.954
1124,1399.984
1125,1397.802
1126,1400.726
1127,1394.878
1128,1399.984
1129,1397.060
1130,1412.463
1131,1405.874
1132,1404.391
1133,1450.557
1134,1419.794
1135,1413.904
1136,1410.239
1137,1416.869
1138,1457.888
1139,1457.147
1140,1465.219
1141,1467.401
1142,1425.642
1143,1453.481
1144,1474.732
1145,1451.299
1146,1444.709
1147,1425.642
1148,1457.888
1149,1473.991
1150,1438.079
1151,1434.455
1152,1418.311
1153,1414.646
1154,1454.223
1155,1431.490
1156,1430.789
1157,1409.539
1158,1394.136
1159,1423.459
1160,1441.744
1161,1441.044
1162,1420.535
1163,1410.980
1164,1410.239
1165,1444.709
1166,1450.557
1167,1446.151
1168,1430.048
1169,1416.869
1170,1423.459
1171,1472.549
1172,1458.629
1173,1443.968
1174,1443.227
1175,1498.165
1176,1494.500
1177,1458.629
1178,1487.169
1179,1467.401
1180,1506.237
1181,1471.067
1182,1489.393
1183,1483.504
1184,1471.808
1185,1490.835
1186,1484.245
1187,1465.919
1188,1460.071
1189,1494.500
1190,1457.888
1191,1452.740
1192,1441.744
1193,1424.900
1194,1415.387
1195,1406.615
1196,1415.387
1197,1441.744
1198,1413.904
1199,1403.650
1200,1410.980
1201,1390.471
1202,1385.364
1203,1389.730
1204,1415.387
1205,1376.551
1206,1383.882
1207,1378.775
1208,1383.882
1209,1372.144
1210,1375.810
1211,1419.052
1212,1406.615
1213,1421.976
1214,1402.208
1215,1365.555
1216,1404.391
1217,1379.475
1218,1369.962
1219,1376.551
1220,1381.699
1221,1365.555
1222,1350.935
1223,1353.859
1224,1346.528
1225,1290.107
1226,1309.875
1227,1326.760
1228,1280.594
1229,1267.415
1230,1284.259
1231,1306.951
1232,1257.861
1233,1285.701
1234,1293.031
1235,1288.666
1236,1260.826
1237,1309.875
1238,1267.415
1239,1296.697
1240,1321.613
1241,1281.335
1242,1323.095
1243,1297.438
1244,1306.210
1245,1328.202
1246,1295.255
1247,1337.715
1248,1320.130
1249,1347.270
1250,1350.935
1251,1342.122
1252,1361.890
1253,1371.444
1254,1350.935
1255,1358.225
1256,1369.220
1257,1377.292
1258,1389.030
1259,1352.376
1260,1336.274
1261,1354.600
1262,1347.270
1263,1339.939
1264,1380.216
1265,1357.524
1266,1323.795
1267,1338.457
1268,1361.890
1269,1311.358
1270,1352.376
1271,1334.791
1272,1306.210
1273,1340.680
1274,1350.194
1275,1298.179
1276,1308.434
1277,1339.939
1278,1291.590
1279,1290.849
1280,1314.282
1281,1331.867
1282,1310.617
1283,1271.781
1284,1313.541
1285,1315.023
1286,1268.115
1287,1306.210
1288,1254.196
1289,1269.598
1290,1289.366
1291,1273.263
1292,1257.861
1293,1242.499
1294,1224.173
1295,1271.081
1296,1227.838
1297,1210.994
1298,1249.089
1299,1244.682
1300,1229.321
1301,1233.686
1302,1241.017
1303,1256.419
1304,1246.906
1305,1242.499
1306,1211.736
1307,1238.093
1308,1247.606
1309,1220.508
1310,1260.085
1311,1274.746
1312,1243.941
1313,1303.286
1314,1313.541
1315,1292.290
1316,1292.290
1317,1336.274
1318,1355.300
1319,1331.867
1320,1359.707
1321,1382.399
1322,1372.886
1323,1403.650
1324,1367.038
1325,1397.060
1326,1425.642
1327,1424.900
1328,1423.459
1329,1417.570
1330,1380.216
1331,1419.052
1332,1424.900
1333,1375.110
1334,1365.555
1335,1377.292
1336,1394.136
1337,1393.395
1338,1404.391
1339,1365.555
1340,1389.030
1341,1411.722
1342,1408.798
1343,1404.391
1344,1421.976
1345,1430.048
1346,1447.633
1347,1441.744
1348,1438.820
1349,1448.334
1350,1467.401
1351,1512.085
1352,1500.348
1353,1513.568
1354,1500.348
1355,1507.679
1356,1512.827
1357,1539.925
1358,1521.599
1359,1501.831
1360,1512.827
1361,1544.332
1362,1493.759
1363,1531.853
1364,1495.983
1365,1484.245
1366,1528.188
1367,1500.348
1368,1471.067
1369,1466.660
1370,1469.584
1371,1503.313
1372,1461.553
1373,1456.405
1374,1438.079
1375,1447.633
1376,1476.915
1377,1451.999
1378,1470.325
1379,1464.477
1380,1460.071
1381,1412.463
1382,1412.463
1383,1433.713
1384,1415.387
1385,1419.794
1386,1443.968
1387,1407.315
1388,1434.455
1389,1460.812
1390,1421.235
1391,1413.904
1392,1417.570
1393,1422.718
1394,1424.159
1395,1441.044
1396,1426.383
1397,1430.048
1398,1451.299
1399,1441.744
1400,1433.713
1401,1439.561
1402,1446.892
1403,1445.410
1404,1449.075
1405,1464.477
1406,1463.736
1407,1448.334
1408,1460.812
1409,1460.812
1410,1464.477
1411,1483.504
1412,1481.321
1413,1482.804
1414,1478.397
1415,1478.397
1416,1460.071
1417,1429.307
1418,1421.235
1419,1420.535
1420,1420.535
1421,1468.884
1422,1448.334
1423,1427.824
1424,1421.976
1425,1423.459
1426,1429.307
1427,1421.976
1428,1424.900
1429,1439.561
1430,1465.919
1431,1478.397
1432,1444.709
1433,1490.093
1434,1447.633
1435,1497.424
1436,1501.831
1437,1455.664
1438,1507.679
1439,1476.173
1440,1496.724
1441,1471.067
1442,1475.473
1443,1513.568
1444,1493.059
1445,1482.063
1446,1468.884
1447,1462.253
1448,1457.147
1449,1456.405
1450,1449.816
1451,1493.059
1452,1474.732
1453,1450.557
1454,1429.307
1455,1424.900
1456,1424.159
1457,1447.633
1458,1435.155
1459,1399.284
1460,1390.471
1461,1406.615
1462,1391.212
1463,1378.034
1464,1390.471
1465,1402.208
1466,1367.779
1467,1348.711
1468,1335.533
1469,1354.600
1470,1376.551
1471,1323.795
1472,1348.711
1473,1331.126
1474,1331.126
1475,1329.684
1476,1353.859
1477,1331.126
1478,1364.114
1479,1391.212
1480,1342.863
1481,1361.190
1482,1399.284
1483,1350.935
1484,1388.288
1485,1394.136
1486,1391.212
1487,1358.966
1488,1348.711
1489,1348.711
1490,1369.220
1491,1390.471
1492,1332.609
1493,1370.703
1494,1370.703
1495,1314.282
1496,1324.537
1497,1351.635
1498,1293.773
1499,1312.841
1500,1330.385
1501,1313.541
1502,1290.107
1503,1311.358
1504,1285.701
1505,1277.670
1506,1299.621
1507,1300.362
1508,1252.754
1509,1303.286
1510,1307.693
1511,1285.701
1512,1287.183
1513,1287.183
1514,1291.590
1515,1288.666
1516,1321.613
1517,1359.707
1518,1331.867
1519,1349.452
1520,1378.775
1521,1393.395
1522,1403.650
1523,1397.802
1524,1417.570
1525,1427.124
1526,1417.570
1527,1437.379
1528,1436.637
1529,1435.155
1530,1438.820
1531,1421.976
1532,1424.900
1533,1430.789
1534,1415.387
1535,1424.900
1536,1388.288
1537,1397.802
1538,1408.056
1539,1402.208
1540,1383.882
1541,1337.015
1542,1356.042
1543,1367.038
1544,1331.126
1545,1337.715
1546,1306.210
1547,1320.871
1548,1310.617
1549,1309.875
1550,1284.259
1551,1276.187
1552,1281.335
1553,1306.210
1554,1273.263
1555,1252.754
1556,1289.366
1557,1277.670
1558,1248.348
1559,1244.682
1560,1222.732
1561,1254.937
1562,1260.085
1563,1235.169
1564,1234.428
1565,1224.173
1566,1247.606
1567,1228.580
1568,1233.686
1569,1266.674
1570,1249.089
1571,1255.678
1572,1242.499
1573,1222.732
1574,1275.446
1575,1230.762
1576,1254.937
1577,1256.419
1578,1233.686
1579,1279.853
1580,1268.857
1581,1238.093
1582,1262.267
1583,1286.442
1584,1268.857
1585,1296.697
1586,1309.175
1587,1277.670
1588,1287.183
1589,1295.255
1590,1303.286
1591,1315.023
1592,1327.461
1593,1331.126
1594,1342.863
1595,1346.528
1596,1365.555
1597,1397.802
1598,1367.038
1599,1388.288
1600,1414.646
1601,1405.874
1602,1414.646
1603,1432.231
1604,1441.044
1605,1436.637
1606,1402.208
1607,1415.387
1608,1433.713
1609,1454.223
1610,1465.919
1611,1443.968
1612,1447.633
1613,1457.147
1614,1476.173
1615,1510.644
1616,1528.929
1617,1496.724
1618,1507.679
1619,1562.658
1620,1532.595
1621,1551.662
1622,1559.693
1623,1537.001
1624,1575.096
1625,1541.408
1626,1567.765
1627,1544.332
1628,1553.104
1629,1567.024
1630,1534.818
1631,1547.997
1632,1553.845
1633,1516.492
1634,1492.317
1635,1504.755
1636,1517.233
1637,1474.732
1638,1468.884
1639,1484.987
1640,1451.999
1641,1452.740
1642,1435.155
1643,1427.124
1644,1421.235
1645,1413.904
1646,1382.399
1647,1377.292
1648,1375.810
1649,1389.030
1650,1413.904
1651,1373.627
1652,1387.547
1653,1417.570
1654,1381.699
1655,1389.030
1656,1441.744
1657,1429.307
1658,1417.570
1659,1458.629
1660,1461.553
1661,1422.718
1662,1442.485
1663,1473.991
1664,1479.839
1665,1466.660
1666,1449.075
1667,1455.664
1668,1473.249
1669,1495.241
1670,1499.648
1671,1456.405
1672,1472.549
1673,1463.736
1674,1464.477
1675,1448.334
1676,1442.485
1677,1439.561
1678,1460.812
1679,1451.999
1680,1463.736
1681,1460.071
1682,1424.159
1683,1424.159
1684,1435.155
1685,1443.968
1686,1445.410
1687,1445.410
1688,1460.812
1689,1454.223
1690,1451.999
1691,1405.874
1692,1408.056
1693,1432.231
1694,1437.379
1695,1443.227
1696,1400.726
1697,1397.060
1698,1423.459
1699,1445.410
1700,1419.052
1701,1409.539
1702,1424.159
1703,1451.999
1704,1460.812
1705,1462.995
1706,1462.253
1707,1453.481
1708,1453.481
1709,1470.325
1710,1457.147
1711,1450.557
1712,1462.253
1713,1479.139
1714,1492.317
1715,1460.812
1716,1454.964
1717,1464.477
1718,1454.223
1719,1467.401
1720,1502.572
1721,1504.755
1722,1507.679
1723,1483.504
1724,1469.584
1725,1465.219
1726,1470.325
1727,1507.679
1728,1481.321
1729,1462.253
1730,1468.143
1731,1470.325
1732,1457.147
1733,1435.896
1734,1447.633
1735,1443.227
1736,1442.485
1737,1430.789
1738,1412.463
1739,1391.954
1740,1381.699
1741,1400.726
1742,1380.216
1743,1356.783
1744,1369.962
1745,1344.305
1746,1358.966
1747,1375.110
1748,1389.030
1749,1381.699
1750,1383.882
1751,1389.030
1752,1361.190
1753,1374.368
1754,1344.305
1755,1356.783
1756,1389.030
1757,1345.046
1758,1358.225
1759,1383.140
1760,1329.684
1761,1337.715
1762,1375.110
1763,1323.795
1764,1353.859
1765,1326.019
1766,1309.875
1767,1336.274
1768,1297.438
1769,1324.537
1770,1321.613
1771,1310.617
1772,1319.430
1773,1316.506
1774,1319.430
1775,1311.358
1776,1323.795
1777,1339.939
1778,1293.773
1779,1309.875
1780,1334.050
1781,1341.381
1782,1353.859
1783,1334.050
1784,1315.023
1785,1353.118
1786,1347.270
1787,1333.350
1788,1346.528
1789,1368.520
1790,1389.030
1791,1407.315
1792,1407.315
1793,1424.900
1794,1382.399
1795,1424.159
1796,1438.079
1797,1432.972
1798,1439.561
1799,1427.124
1800,1398.543
1801,1402.950
1802,1442.485
1803,1389.030
1804,1419.794
1805,1411.722
1806,1376.551
1807,1416.128
1808,1380.216
1809,1379.475
1810,1383.140
1811,1400.726
1812,1356.042
1813,1353.859
1814,1358.966
1815,1369.220
1816,1351.635
1817,1318.689
1818,1367.038
1819,1315.023
1820,1357.524
1821,1315.023
1822,1321.613
1823,1293.031
1824,1329.684
1825,1294.514
1826,1287.183
1827,1272.522
1828,1315.765
1829,1288.666
1830,1254.196
1831,1297.438
1832,1282.035
1833,1266.674
1834,1257.161
1835,1239.575
1836,1260.085
1837,1274.746
1838,1235.169
1839,1262.267
1840,1280.594
1841,1249.089
1842,1270.339
1843,1282.777
1844,1254.196
1845,1252.013
1846,1277.670
1847,1260.085
1848,1263.750
1849,1308.434
1850,1300.362
1851,1295.255
1852,1294.514
1853,1287.183
1854,1345.046
1855,1325.278
1856,1363.372
1857,1320.130
1858,1336.274
1859,1353.859
1860,1392.695
1861,1399.284
1862,1396.319
1863,1360.448
1864,1360.448
1865,1363.372
1866,1363.372
1867,1364.855
1868,1381.699
1869,1398.543
1870,1388.288
1871,1369.220
1872,1355.300
1873,1349.452
1874,1361.190
1875,1353.859
1876,1360.448
1877,1358.966
1878,1359.707
1879,1361.190
1880,1368.520
1881,1405.132
1882,1432.231
1883,1422.718
1884,1430.048
1885,1417.570
1886,1479.839
1887,1457.888
1888,1453.481
1889,1490.093
1890,1504.755
1891,1493.759
1892,1541.408
1893,1515.009
1894,1519.416
1895,1538.484
1896,1570.689
1897,1523.822
1898,1548.738
1899,1556.028
1900,1522.340
1901,1537.001
1902,1526.746
1903,1520.898
1904,1523.822
1905,1493.759
1906,1517.233
1907,1470.325
1908,1475.473
1909,1500.348
1910,1469.584
1911,1430.789
1912,1465.219
1913,1413.204
1914,1453.481
1915,1419.794
1916,1427.124
1917,1431.490
1918,1399.284
1919,1411.722
1920,1434.455
1921,1403.650
1922,1408.798
1923,1426.383
1924,1456.405
1925,1453.481
1926,1449.075
1927,1435.896
1928,1441.044
1929,1443.968
1930,1447.633
1931,1454.964
1932,1441.744
1933,1468.143
1934,1456.405
1935,1451.999
1936,1459.329
1937,1465.919
1938,1505.496
1939,1470.325
1940,1459.329
1941,1455.664
1942,1457.888
1943,1450.557
1944,1461.553
1945,1454.223
1946,1438.820
1947,1437.379
1948,1432.972
1949,1434.455
1950,1438.820
1951,1435.155
1952,1432.972
1953,1455.664
1954,1450.557
1955,1413.204
1956,1398.543
1957,1413.904
1958,1383.882
1959,1412.463
1960,1429.307
1961,1377.292
1962,1395.619
1963,1415.387
1964,1395.619
1965,1385.364
1966,1427.824
1967,1441.744
1968,1440.303
1969,1424.159
1970,1406.615
1971,1427.124
1972,1463.736
1973,1468.143
1974,1465.219
1975,1449.075
1976,1470.325
1977,1476.173
1978,1450.557
1979,1485.728
1980,1474.732
1981,1455.664
1982,1501.831
1983,1465.919
1984,1507.679
1985,1479.139
1986,1504.013
1987,1463.736
1988,1514.268
1989,1470.325
1990,1476.173
1991,1484.245
1992,1479.839
1993,1512.085
1994,1482.063
1995,1457.888
1996,1485.728
1997,1462.995
1998,1465.919
1999,1441.044
2000,1483.504
2001,1447.633
2002,1422.718
2003,1455.664
2004,1435.155
2005,1410.239
2006,1418.311
2007,1451.999
2008,1434.455
2009,1398.543
2010,1399.984
2011,1434.455
2012,1410.239
2013,1389.030
2014,1383.140
2015,1378.034
2016,1372.886
2017,1368.520
2018,1365.555
2019,1375.110
2020,1379.475
2021,1403.650
2022,1347.970
2023,1356.042
2024,1364.114
2025,1368.520
2026,1326.019
2027,1304.769
2028,1350.194
2029,1316.506
2030,1298.921
2031,1327.461
2032,1300.362
2033,1272.522
2034,1276.929
2035,1296.697
2036,1253.495
2037,1287.183
2038,1266.674
2039,1243.941
2040,1265.933
2041,1241.017
2042,1292.290
2043,1258.602
2044,1241.758
2045,1294.514
2046,1260.085
2047,1294.514
2048,1289.366
2049,1266.674
2050,1288.666
2051,1323.795
2052,1342.122
2053,1350.194
2054,1347.270
2055,1326.019
2056,1342.863
2057,1345.787
2058,1365.555
2059,1374.368
2060,1380.216
2061,1383.882
2062,1437.379
2063,1416.869
2064,1401.467
2065,1446.151
2066,1419.052
2067,1431.490
2068,1413.904
2069,1413.904
2070,1402.208
2071,1402.950
2072,1402.950
2073,1422.718
2074,1421.235
2075,1390.471
2076,1378.775
2077,1367.779
2078,1365.555
2079,1402.950
2080,1396.319
2081,1397.060
2082,1391.954
2083,1389.030
2084,1375.810
2085,1381.699
2086,1376.551
2087,1355.300
2088,1337.715
2089,1346.528
2090,1364.855
2091,1353.118
2092,1342.122
2093,1330.385
2094,1335.533
2095,1355.300
2096,1357.524
2097,1355.300
2098,1356.783
2099,1306.210
2100,1306.951
2101,1337.715
2102,1304.769
2103,1323.095
2104,1331.126
2105,1305.510
2106,1304.769
2107,1324.537
2108,1290.107
2109,1318.689
2110,1288.666
2111,1284.259
2112,1275.446
2113,1256.419
2114,1265.933
2115,1272.522
2116,1279.853
2117,1258.602
2118,1230.021
2119,1260.826
2120,1221.249
2121,1209.512
2122,1205.146
2123,1202.181
2124,1229.321
2125,1246.906
2126,1215.401
2127,1213.177
2128,1228.580
2129,1268.115
2130,1230.021
2131,1282.777
2132,1256.419
2133,1279.853
2134,1309.875
2135,1269.598
2136,1289.366
2137,1319.430
2138,1293.031
2139,1295.955
2140,1318.689
2141,1347.970
2142,1358.966
2143,1375.110
2144,1356.042
2145,1340.680
2146,1391.954
2147,1367.038
2148,1364.855
2149,1383.140
2150,1430.789
2151,1438.820
2152,1424.900
2153,1417.570
2154,1431.490
2155,1486.469
2156,1476.915
2157,1492.317
2158,1493.059
2159,1509.903
2160,1528.188
2161,1524.564
2162,1550.921
2163,1542.849
2164,1549.438
2165,1553.845
2166,1560.434
2167,1570.689
2168,1579.502
2169,1566.282
2170,1554.586
2171,1556.769
2172,1546.514
2173,1547.256
2174,1547.997
2175,1552.404
2176,1551.662
2177,1550.921
2178,1540.666
2179,1515.751
2180,1487.169
2181,1486.469
2182,1454.223
2183,1485.728
2184,1441.044
2185,1454.964
2186,1437.379
2187,1403.650
2188,1438.820
2189,1416.128
2190,1389.030
2191,1411.722
2192,1412.463
2193,1426.383
2194,1399.984
2195,1427.124
2196,1435.896
2197,1399.284
2198,1435.155
2199,1443.968
2200,1437.379
2201,1419.052
2202,1410.980
2203,1422.718
2204,1448.334
2205,1436.637
2206,1431.490
2207,1457.888
2208,1445.410
2209,1449.075
2210,1436.637
2211,1478.397
2212,1443.227
2213,1471.067
2214,1438.079
2215,1443.227
2216,1477.656
2217,1439.561
2218,1438.820
2219,1450.557
2220,1436.637
2221,1455.664
2222,1443.968
2223,1422.718
2224,1472.549
2225,1438.820
2226,1416.869
2227,1427.124
2228,1456.405
2229,1425.642
2230,1408.056
2231,1408.798
2232,1436.637
2233,1460.812
2234,1459.329
2235,1457.147
2236,1427.824
2237,1462.253
2238,1466.660
2239,1453.481
2240,1440.303
2241,1435.155
2242,1476.173
2243,1480.580
2244,1446.892
2245,1473.991
2246,1506.237
2247,1461.553
2248,1515.009
2249,1489.393
2250,1467.401
2251,1519.416
2252,1494.500
2253,1474.732
2254,1512.827
2255,1464.477
2256,1495.241
2257,1486.469
2258,1469.584
2259,1446.892
2260,1487.169
2261,1438.820
2262,1477.656
2263,1427.824
2264,1465.219
2265,1411.722
2266,1425.642
2267,1446.892
2268,1397.060
2269,1418.311
2270,1377.292
2271,1424.159
2272,1418.311
2273,1396.319
2274,1369.962
2275,1361.190
2276,1361.190
2277,1348.711
2278,1345.787
2279,1364.114
2280,1386.064
2281,1365.555
2282,1366.296
2283,1364.855
2284,1367.038
2285,1352.376
2286,1354.600
2287,1360.448
2288,1413.204
2289,1400.726
2290,1384.623
2291,1379.475
2292,1386.806
2293,1405.132
2294,1374.368
2295,1420.535
2296,1410.980
2297,1417.570
2298,1416.869
2299,1396.319
2300,1395.619
2301,1372.886
2302,1367.779
2303,1338.457
2304,1342.863
2305,1345.787
2306,1350.935
2307,1299.621
2308,1300.362
2309,1334.050
2310,1282.777
2311,1309.175
2312,1324.537
2313,1290.849
2314,1326.760
2315,1275.446
2316,1325.278
2317,1282.777
2318,1327.461
2319,1296.697
2320,1295.255
2321,1334.791
2322,1303.286
2323,1302.586
2324,1306.951
2325,1330.385
2326,1349.452
2327,1358.966
2328,1359.707
2329,1358.225
2330,1362.631
2331,1370.703
2332,1361.890
2333,1375.810
2334,1394.878
2335,1385.364
2336,1396.319
2337,1385.364
2338,1399.984
2339,1401.467
2340,1416.869
2341,1400.726
2342,1384.623
2343,1394.136
2344,1385.364
2345,1403.650
2346,1379.475
2347,1389.730
2348,1399.284
2349,1410.239
2350,1408.798
2351,1400.726
2352,1402.208
2353,1353.859
2354,1369.962
2355,1391.954
2356,1339.939
2357,1337.015
2358,1356.042
2359,1358.966
2360,1334.791
2361,1371.444
2362,1325.278
2363,1351.635
2364,1345.046
2365,1333.350
2366,1332.609
2367,1328.202
2368,1309.875
2369,1342.122
2370,1306.951
2371,1335.533
2372,1294.514
2373,1268.115
2374,1314.282
2375,1287.925
2376,1260.826
2377,1248.348
2378,1283.518
2379,1246.165
2380,1257.161
2381,1258.602
2382,1221.990
2383,1211.736
2384,1244.682
2385,1227.097
2386,1211.736
2387,1195.592
2388,1239.575
2389,1245.424
2390,1246.165
2391,1233.686
2392,1246.906
2393,1233.686
2394,1238.834
2395,1230.762
2396,1267.415
2397,1297.438
2398,1279.111
2399,1305.510
2400,1339.939
2401,1323.095
2402,1317.947
2403,1349.452
2404,1386.064
2405,1358.966
2406,1366.296
2407,1394.878
2408,1405.874
2409,1420.535
2410,1421.976
2411,1422.718
2412,1432.231
2413,1428.566
2414,1430.789
2415,1440.303
2416,1443.227
2417,1444.709
2418,1479.139
2419,1495.241
2420,1476.915
2421,1465.219
2422,1511.344
2423,1490.835
2424,1545.073
2425,1507.679
2426,1552.404
2427,1531.853
2428,1574.354
2429,1547.256
2430,1575.837
2431,1556.769
2432,1585.350
2433,1563.358
2434,1604.418
2435,1566.282
2436,1608.042
2437,1565.582
2438,1592.681
2439,1583.168
2440,1561.917
2441,1573.613
2442,1573.613
2443,1537.742
2444,1543.590
2445,1558.252
2446,1526.005
2447,1516.492
2448,1495.241
2449,1476.915
2450,1510.644
2451,1478.397
2452,1448.334
2453,1451.999
2454,1479.139
2455,1466.660
2456,1433.713
2457,1423.459
2458,1405.874
2459,1438.079
2460,1446.892
2461,1435.896
2462,1435.155
2463,1441.744
2464,1446.892
2465,1444.709
2466,1432.972
2467,1429.307
2468,1427.124
2469,1428.566
2470,1415.387
2471,1416.869
2472,1441.744
2473,1446.151
2474,1424.900
2475,1468.143
2476,1459.329
2477,1426.383
2478,1469.584
2479,1468.884
2480,1457.147
2481,1440.303
2482,1462.253
2483,1465.219
2484,1476.915
2485,1423.459
2486,1425.642
2487,1441.744
2488,1460.812
2489,1465.919
2490,1432.972
2491,1414.646
2492,1424.900
2493,1454.964
2494,1430.789
2495,1417.570
2496,1435.155
2497,1438.079
2498,1426.383
2499,1422.718
2500,1403.650
2501,1394.136
2502,1430.789
2503,1443.968
2504,1413.204
2505,1399.284
2506,1423.459
2507,1433.713
2508,1405.874
2509,1461.553
2510,1465.219
2511,1428.566
2512,1427.824
2513,1461.553
2514,1480.580
2515,1457.888
2516,1454.223
2517,1446.892
2518,1448.334
2519,1461.553
2520,1465.919
2521,1446.892
2522,1443.227
2523,1434.455
2524,1429.307
2525,1437.379
2526,1433.713
2527,1420.535
2528,1414.646
2529,1405.132
2530,1420.535
2531,1409.539
2532,1439.561
2533,1439.561
2534,1433.713
2535,1429.307
2536,1408.056
2537,1405.874
2538,1399.984
2539,1416.869
2540,1412.463
2541,1408.798
2542,1361.890
2543,1364.114
2544,1384.623
2545,1390.471
2546,1338.457
2547,1381.699
2548,1364.114
2549,1336.274
2550,1362.631
2551,1385.364
2552,1388.288
2553,1380.958
2554,1352.376
2555,1397.802
2556,1399.284
2557,1410.980
2558,1419.794
2559,1418.311
2560,1410.980
2561,1406.615
2562,1405.132
2563,1394.878
2564,1390.471
2565,1385.364
2566,1402.950
2567,1386.064
2568,1353.859
2569,1342.863
2570,1341.381
2571,1358.966
2572,1358.966
2573,1365.555
2574,1347.270
2575,1323.095
2576,1299.621
2577,1294.514
2578,1295.255
2579,1340.680
2580,1309.175
2581,1287.925
2582,1317.947
2583,1337.715
2584,1345.787
2585,1337.715
2586,1350.194
2587,1307.693
2588,1315.765
2589,1364.114
2590,1360.448
2591,1353.118
2592,1343.604
2593,1337.015
2594,1397.060
2595,1399.984
2596,1383.140
2597,1381.699
2598,1420.535
2599,1397.802
2600,1451.299
2601,1430.048
2602,1422.718
2603,1421.235
2604,1473.991
2605,1457.888
2606,1447.633
2607,1467.401
2608,1470.325
2609,1442.485
2610,1437.379
2611,1430.789
2612,1475.473
2613,1474.732
2614,1469.584
2615,1460.812
2616,1446.892
2617,1430.789
2618,1421.235
2619,1407.315
2620,1392.695
2621,1419.052
2622,1408.056
2623,1402.208
2624,1362.631
2625,1351.635
2626,1343.604
2627,1334.050
2628,1331.126
2629,1326.760
2630,1323.795
2631,1317.206
2632,1319.430
2633,1325.278
2634,1270.339
2635,1304.027
2636,1249.830
2637,1268.857
2638,1247.606
2639,1259.343
2640,1227.838
2641,1257.161
2642,1226.356
2643,1232.986
2644,1243.941
2645,1205.146
2646,1189.002
2647,1224.173
2648,1222.732
2649,1223.432
2650,1195.592
2651,1240.276
2652,1192.668
2653,1230.762
2654,1204.405
2655,1234.428
2656,1260.085
2657,1232.986
2658,1231.504
2659,1244.682
2660,1284.259
2661,1249.089
2662,1274.746
2663,1291.590
2664,1317.206
2665,1333.350
2666,1324.537
2667,1306.951
2668,1341.381
2669,1335.533
2670,1326.019
2671,1353.859
2672,1364.855
2673,1342.863
2674,1337.015
2675,1341.381
2676,1360.448
2677,1364.855
2678,1392.695
2679,1389.730
2680,1385.364
2681,1387.547
2682,1384.623
2683,1370.703
2684,1383.140
2685,1379.475
2686,1389.030
2687,1402.950
2688,1454.964
2689,1456.405
2690,1453.481
2691,1465.919
2692,1483.504
2693,1516.492
2694,1507.679
2695,1514.268
2696,1516.492
2697,1551.662
2698,1542.849
2699,1524.564
2700,1530.412
2701,1559.693
2702,1567.765
2703,1537.742
2704,1550.180
2705,1563.358
2706,1553.845
2707,1558.993
2708,1574.354
2709,1564.841
2710,1564.841
2711,1560.434
2712,1524.564
2713,1550.180
2714,1515.751
2715,1562.658
2716,1545.073
2717,1522.340
2718,1501.089
2719,1547.256
2720,1537.001
2721,1497.424
2722,1505.496
2723,1481.321
2724,1531.853
2725,1489.393
2726,1517.933
2727,1496.724
2728,1476.173
2729,1466.660
2730,1497.424
2731,1510.644
2732,1492.317
2733,1454.223
2734,1476.173
2735,1449.075
2736,1446.151
2737,1492.317
2738,1481.321
2739,1477.656
2740,1469.584
2741,1469.584
2742,1465.219
2743,1451.299
2744,1462.253
2745,1461.553
2746,1457.888
2747,1457.888
2748,1436.637
2749,1432.231
2750,1435.896
2751,1434.455
2752,1446.151
2753,1424.900
2754,1419.052
2755,1416.128
2756,1416.869
2757,1412.463
2758,1409.539
2759,1436.637
2760,1398.543
2761,1389.030
2762,1395.619
2763,1405.874
2764,1406.615
2765,1406.615
2766,1407.315
2767,1443.968
2768,1439.561
2769,1427.124
2770,1410.980
2771,1463.736
2772,1435.896
2773,1448.334
2774,1482.063
2775,1454.223
2776,1506.979
2777,1501.831
2778,1484.987
2779,1490.835
2780,1496.724
2781,1532.595
2782,1522.340
2783,1491.576
2784,1493.759
2785,1545.773
2786,1495.983
2787,1526.005
2788,1529.670
2789,1504.755
2790,1528.188
2791,1501.089
2792,1536.260
2793,1521.599
2794,1516.492
2795,1529.670
2796,1546.514
2797,1498.907
2798,1498.165
2799,1526.746
2800,1483.504
2801,1507.679
2802,1512.085
2803,1501.089
2804,1478.397
2805,1457.888
2806,1451.299
2807,1452.740
2808,1457.888
2809,1435.155
2810,1408.056
2811,1388.288
2812,1379.475
2813,1386.806
2814,1403.650
2815,1383.140
2816,1365.555
2817,1356.783
2818,1369.220
2819,1390.471
2820,1402.208
2821,1382.399
2822,1376.551
2823,1395.619
2824,1372.144
2825,1333.350
2826,1369.220
2827,1369.962
2828,1348.711
2829,1317.947
2830,1327.461
2831,1302.586
2832,1275.446
2833,1265.933
2834,1306.210
2835,1257.161
2836,1291.590
2837,1261.526
2838,1253.495
2839,1221.990
2840,1269.598
2841,1246.906
2842,1232.245
2843,1210.253
2844,1254.196
2845,1237.352
2846,1215.401
2847,1254.196
2848,1208.812
2849,1240.276
2850,1265.191
2851,1251.272
2852,1263.009
2853,1243.941
2854,1293.773
2855,1289.366
2856,1282.777
2857,1329.684
2858,1309.175
2859,1321.613
2860,1367.038
2861,1380.216
2862,1403.650
2863,1389.030
2864,1414.646
2865,1430.789
2866,1445.410
2867,1450.557
2868,1451.999
2869,1449.075
2870,1439.561
2871,1435.155
2872,1435.896
2873,1423.459
2874,1426.383
2875,1417.570
2876,1416.869
2877,1432.231
2878,1443.968
2879,1431.490
2880,1403.650
2881,1378.775
2882,1408.056
2883,1370.703
2884,1353.859
2885,1367.779
2886,1389.730
2887,1349.452
2888,1345.046
2889,1358.225
2890,1352.376
2891,1337.015
2892,1290.107
2893,1301.845
2894,1328.202
2895,1266.674
2896,1287.183
2897,1277.670
2898,1286.442
2899,1263.009
2900,1263.750
2901,1252.013
2902,1238.093
2903,1219.066
2904,1194.150
2905,1182.413
2906,1217.584
2907,1216.842
2908,1199.257
2909,1194.150
2910,1194.150
2911,1195.592
2912,1197.816
2913,1175.082
2914,1176.565
2915,1150.167
2916,1197.816
2917,1195.592
2918,1152.390
2919,1212.436
2920,1175.824
2921,1232.245
2922,1201.481
2923,1208.812
2924,1251.272
2925,1284.259
2926,1252.754
2927,1271.781
2928,1296.697
2929,1337.715
2930,1345.046
2931,1359.707
2932,1370.703
2933,1379.475
2934,1386.806
2935,1363.372
2936,1353.859
2937,1361.890
2938,1368.520
2939,1375.810
2940,1392.695
2941,1405.132
2942,1435.896
2943,1438.079
2944,1414.646
2945,1407.315
2946,1413.904
2947,1445.410
2948,1472.549
2949,1490.835
2950,1506.237
2951,1506.979
2952,1488.652
2953,1539.925
2954,1509.161
2955,1529.670
2956,1556.769
2957,1570.689
2958,1553.845
2959,1542.108
2960,1526.746
2961,1539.925
2962,1540.666
2963,1555.328
2964,1517.233
2965,1496.724
2966,1506.979
2967,1494.500
2968,1474.732
2969,1470.325
2970,1481.321
2971,1427.124
2972,1439.561
2973,1453.481
2974,1426.383
2975,1408.798
2976,1394.136
2977,1364.855
2978,1354.600
2979,1350.194
2980,1356.042
2981,1394.136
2982,1368.520
2983,1350.935
2984,1387.547
2985,1402.208
2986,1394.136
2987,1413.904
2988,1435.896
2989,1412.463
2990,1437.379
2991,1479.139
2992,1450.557
2993,1509.903
2994,1521.599
2995,1505.496
2996,1552.404
2997,1535.519
2998,1575.837
2999,1613.931
3000,1575.837
3001,1607.342
3002,1638.106
3003,1615.373
3004,1604.418
3005,1634.441
3006,1634.441
3007,1631.517
3008,1604.418
3009,1632.217
3010,1575.837
3011,1594.864
3012,1602.936
3013,1542.108
3014,1561.917
3015,1512.085
3016,1546.514
3017,1493.059
3018,1515.751
3019,1466.660
3020,1439.561
3021,1468.143
3022,1415.387
3023,1393.395
3024,1422.718
3025,1385.364
3026,1347.270
3027,1363.372
3028,1380.216
3029,1352.376
3030,1326.760
3031,1361.190
3032,1368.520
3033,1364.855
3034,1369.962
3035,1373.627
3036,1383.882
3037,1388.288
3038,1367.038
3039,1364.855
3040,1398.543
3041,1410.980
3042,1382.399
3043,1368.520
3044,1419.052
3045,1396.319
3046,1403.650
3047,1436.637
3048,1417.570
3049,1446.892
3050,1426.383
3051,1475.473
3052,1439.561
3053,1498.165
3054,1460.812
3055,1490.835
3056,1524.564
3057,1484.245
3058,1495.241
3059,1523.081
3060,1539.925
3061,1504.013
3062,1522.340
3063,1541.408
3064,1552.404
3065,1537.001
3066,1503.313
3067,1499.648
3068,1502.572
3069,1515.009
3070,1506.979
3071,1493.059
3072,1484.987
3073,1490.835
3074,1497.424
3075,1531.853
3076,1520.898
3077,1525.264
3078,1501.831
3079,1497.424
3080,1498.907
3081,1517.233
3082,1542.849
3083,1515.751
3084,1508.420
3085,1524.564
3086,1553.104
3087,1549.438
3088,1519.416
3089,1517.233
3090,1504.755
3091,1473.249
3092,1456.405
3093,1471.808
3094,1473.249
3095,1425.642
3096,1416.128
3097,1360.448
3098,1372.886
3099,1359.707
3100,1342.863
3101,1324.537
3102,1304.769
3103,1266.674
3104,1215.401
3105,1224.173
3106,1183.154
3107,1206.588
3108,1166.310
3109,1167.052
3110,1156.797
3111,1122.327
3112,1153.832
3113,1144.319
3114,1147.984
3115,1119.403
3116,1166.310
3117,1153.832
3118,1190.485
3119,1178.006
3120,1178.748
3121,1233.686
3122,1219.766
3123,1259.343
3124,1240.276
3125,1297.438
3126,1278.370
3127,1323.095
3128,1343.604
3129,1338.457
3130,1356.042
3131,1366.296
3132,1369.962
3133,1367.779
3134,1367.779
3135,1385.364
3136,1358.225
3137,1339.198
3138,1356.042
3139,1330.385
3140,1315.765
3141,1311.358
3142,1312.099
3143,1262.267
3144,1290.849
3145,1218.325
3146,1239.575
3147,1217.584
3148,1192.668
3149,1166.310
3150,1142.136
3151,1109.889
3152,1068.871
3153,1068.871
3154,1019.039
3155,987.534
3156,981.686
3157,990.458
3158,934.078
3159,968.507
3160,952.363
3161,953.105
3162,959.694
3163,942.109
3164,920.899
3165,973.614
3166,968.507
3167,961.918
3168,1015.374
3169,1010.267
3170,1029.294
3171,1076.201
3172,1060.799
3173,1073.978
3174,1101.817
3175,1132.623
3176,1214.660
3177,1208.070
3178,1258.602
3179,1296.697
3180,1321.613
3181,1387.547
3182,1380.216
3183,1462.995
3184,1479.139
3185,1495.983
3186,1534.818
3187,1569.948
3188,1597.088
3189,1617.597
3190,1691.562
3191,1665.946
3192,1716.478
3193,1697.451
3194,1746.542
3195,1704.782
3196,1731.880
3197,1746.542
3198,1739.911
3199,1700.375
3200,1725.991
3201,1730.398
3202,1698.151
3203,1676.201
3204,1668.870
3205,1669.611
3206,1699.634
3207,1703.299
3208,1688.638
3209,1673.977
3210,1660.057
3211,1668.129
3212,1710.630
3213,1678.383
3214,1687.197
3215,1722.367
3216,1695.227
3217,1750.166
3218,1718.702
3219,1755.314
3220,1727.474
3221,1727.474
3222,1764.086
3223,1719.402
3224,1761.903
3225,1725.291
3226,1698.151
3227,1706.223
3228,1677.642
3229,1654.209
3230,1633.699
3231,1600.012
3232,1577.278
3233,1571.430
3234,1551.662
3235,1543.590
3236,1495.241
3237,1453.481
3238,1457.888
3239,1435.896
3240,1394.136
3241,1358.966
3242,1358.966
3243,1357.524
3244,1344.305
3245,1326.019
3246,1274.746
3247,1314.282
3248,1266.674
3249,1287.183
3250,1311.358
3251,1268.857
3252,1268.115
3253,1283.518
3254,1303.286
3255,1297.438
3256,1341.381
3257,1348.711
3258,1353.118
3259,1374.368
3260,1375.110
3261,1386.806
3262,1392.695
3263,1399.984
3264,1416.128
3265,1476.915
3266,1485.728
3267,1479.139
3268,1472.549
3269,1467.401
3270,1508.420
3271,1528.929
3272,1503.313
3273,1485.728
3274,1507.679
3275,1503.313
3276,1535.519
3277,1488.652
3278,1484.987
3279,1523.081
3280,1471.808
3281,1468.143
3282,1482.804
3283,1446.892
3284,1490.835
3285,1466.660
3286,1449.075
3287,1472.549
3288,1435.155
3289,1478.397
3290,1443.968
3291,1479.839
3292,1484.245
3293,1439.561
3294,1491.576
3295,1479.839
3296,1456.405
3297,1446.151
3298,1490.093
3299,1464.477
3300,1443.968
3301,1447.633
3302,1449.816
3303,1439.561
3304,1436.637
3305,1426.383
3306,1419.052
3307,1443.227
3308,1453.481
3309,1451.999
3310,1445.410
3311,1443.968
3312,1423.459
3313,1390.471
3314,1385.364
3315,1375.810
3316,1384.623
3317,1398.543
3318,1377.292
3319,1356.783
3320,1324.537
3321,1326.760
3322,1314.282
3323,1296.697
3324,1306.951
3325,1238.093
3326,1255.678
3327,1227.097
3328,1235.910
3329,1252.754
3330,1201.481
3331,1235.910
3332,1236.651
3333,1224.173
3334,1274.746
3335,1294.514
3336,1316.506
3337,1323.095
3338,1322.354
3339,1349.452
3340,1385.364
3341,1453.481
3342,1473.991
3343,1471.808
3344,1467.401
3345,1484.245
3346,1470.325
3347,1521.599
3348,1476.915
3349,1462.253
3350,1490.093
3351,1468.884
3352,1435.896
3353,1439.561
3354,1410.980
3355,1416.128
3356,1364.114
3357,1324.537
3358,1295.255
3359,1313.541
3360,1255.678
3361,1290.107
3362,1263.009
3363,1208.812
3364,1244.682
3365,1238.093
3366,1200.740
3367,1179.489
3368,1196.333
3369,1196.333
3370,1236.651
3371,1241.017
3372,1247.606
3373,1225.656
3374,1225.656
3375,1238.093
3376,1276.929
3377,1309.175
3378,1314.282
3379,1314.282
3380,1367.038
3381,1391.954
3382,1380.216
3383,1428.566
3384,1461.553
3385,1467.401
3386,1457.147
3387,1452.740
3388,1509.903
3389,1467.401
3390,1500.348
3391,1493.759
3392,1528.929
3393,1502.572
3394,1489.393
3395,1533.336
3396,1485.728
3397,1510.644
3398,1509.903
3399,1494.500
3400,1527.488
3401,1523.081
3402,1474.732
3403,1520.157
3404,1480.580
3405,1477.656
3406,1477.656
3407,1455.664
3408,1466.660
3409,1460.071
3410,1453.481
3411,1488.652
3412,1454.964
3413,1506.979
3414,1485.728
3415,1519.416
3416,1528.929
3417,1515.751
3418,1486.469
3419,1487.911
3420,1513.568
3421,1527.488
3422,1479.839
3423,1473.991
3424,1502.572
3425,1435.896
3426,1450.557
3427,1399.284
3428,1425.642
3429,1377.292
3430,1326.760
3431,1304.027
3432,1276.929
3433,1276.187
3434,1263.750
3435,1183.154
3436,1191.926
3437,1132.623
3438,1161.904
3439,1087.197
3440,1064.464
3441,1076.943
3442,1029.294
3443,1010.267
3444,1032.218
3445,1015.374
3446,971.431
3447,1000.012
3448,983.869
3449,969.248
3450,961.177
3451,979.503
3452,923.082
3453,962.659
3454,940.667
3455,915.010
3456,937.002
3457,928.189
3458,920.899
3459,894.501
3460,917.934
3461,960.435
3462,945.074
3463,997.788
3464,1027.852
3465,1060.058
3466,1087.897
3467,1092.304
3468,1148.725
3469,1231.504
3470,1263.009
3471,1297.438
3472,1380.216
3473,1427.124
3474,1505.496
3475,1571.430
3476,1590.498
3477,1659.357
3478,1715.036
3479,1781.671
3480,1855.677
3481,1878.410
3482,1921.612
3483,1971.444
3484,2024.899
3485,2043.967
3486,2070.325
3487,2084.245
3488,2132.594
3489,2123.080
3490,2130.411
3491,2126.746
3492,2145.072
3493,2117.932
3494,2123.822
3495,2139.924
3496,2086.468
3497,2080.579
3498,2049.074
3499,2017.569
3500,1981.698
3501,1943.604
3502,1900.361
3503,1883.517
3504,1854.936
3505,1781.671
3506,1753.131
3507,1693.786
3508,1682.049
3509,1643.213
3510,1570.689
3511,1561.176
3512,1526.746
3513,1475.473
3514,1432.972
3515,1441.744
3516,1405.132
3517,1364.114
3518,1337.715
3519,1336.274
3520,1277.670
3521,1251.272
3522,1274.005
3523,1223.432
3524,1224.914
3525,1232.245
3526,1178.006
3527,1221.249
3528,1203.664
3529,1160.421
3530,1185.337
3531,1148.725
3532,1134.064
3533,1162.645
3534,1149.466
3535,1126.733
3536,1114.296
3537,1136.988
3538,1157.497
3539,1141.395
3540,1145.801
3541,1123.068
3542,1178.006
3543,1145.060
3544,1214.660
3545,1232.245
3546,1218.325
3547,1267.415
3548,1318.689
3549,1360.448
3550,1380.216
3551,1403.650
3552,1468.143
3553,1457.888
3554,1526.005
3555,1536.260
3556,1564.100
3557,1619.038
3558,1655.691
3559,1674.718
3560,1663.722
3561,1705.482
3562,1715.036
3563,1696.710
3564,1690.862
3565,1673.977
3566,1684.973
3567,1660.798
3568,1653.467
3569,1630.775
3570,1616.855
3571,1611.708
3572,1616.855
3573,1546.514
3574,1550.921
3575,1494.500
3576,1515.009
3577,1452.740
3578,1408.798
3579,1375.110
3580,1345.046
3581,1319.430
3582,1346.528
3583,1279.111
3584,1312.841
3585,1263.009
3586,1246.906
3587,1264.450
3588,1273.263
3589,1293.031
3590,1306.210
3591,1309.175
3592,1329.684
3593,1356.042
3594,1413.204
3595,1412.463
3596,1407.315
3597,1466.660
3598,1431.490
3599,1441.044
3600,1450.557
3601,1426.383
3602,1410.980
3603,1444.709
3604,1408.798
3605,1376.551
3606,1359.707
3607,1346.528
3608,1351.635
3609,1336.274
3610,1281.335
3611,1268.115
3612,1268.857
3613,1289.366
3614,1271.781
3615,1230.762
3616,1241.017
3617,1257.861
3618,1233.686
3619,1204.405
3620,1244.682
3621,1220.508
3622,1221.990
3623,1230.021
3624,1268.857
3625,1255.678
3626,1294.514
3627,1256.419
3628,1288.666
3629,1328.202
3630,1362.631
3631,1366.296
3632,1369.220
3633,1375.110
3634,1446.892
3635,1419.794
3636,1483.504
3637,1469.584
3638,1506.979
3639,1504.013
3640,1522.340
3641,1543.590
3642,1524.564
3643,1544.332
3644,1537.742
3645,1533.336
3646,1528.188
3647,1550.921
3648,1515.751
3649,1501.089
3650,1504.755
3651,1503.313
3652,1470.325
3653,1485.728
3654,1418.311
3655,1404.391
3656,1414.646
3657,1361.190
3658,1342.122
3659,1348.711
3660,1341.381
3661,1285.701
3662,1290.107
3663,1255.678
3664,1221.249
3665,1250.571
3666,1232.245
3667,1213.918
3668,1197.816
3669,1167.752
3670,1164.087
3671,1147.243
3672,1127.475
3673,1159.721
3674,1173.641
3675,1163.386
3676,1156.056
3677,1164.828
3678,1173.641
3679,1176.565
3680,1175.082
3681,1155.314
3682,1179.489
3683,1186.820
3684,1165.569
3685,1199.257
3686,1212.436
3687,1180.230
3688,1241.017
3689,1200.740
3690,1231.504
3691,1213.177
3692,1267.415
3693,1246.165
3694,1238.834
3695,1268.857
3696,1287.925
3697,1306.951
3698,1298.179
3699,1285.701
3700,1316.506
3701,1337.015
3702,1335.533
3703,1339.198
3704,1337.015
3705,1285.001
3706,1289.366
3707,1322.354
3708,1267.415
3709,1301.845
3710,1301.103
3711,1289.366
3712,1271.781
3713,1228.580
3714,1229.321
3715,1273.263
3716,1240.276
3717,1234.428
3718,1240.276
3719,1254.937
3720,1268.115
3721,1320.130
3722,1360.448
3723,1354.600
3724,1397.802
3725,1391.212
3726,1449.816
3727,1424.900
3728,1467.401
3729,1517.933
3730,1537.742
3731,1564.841
3732,1587.533
3733,1605.860
3734,1608.042
3735,1594.864
3736,1657.874
3737,1640.289
3738,1644.695
3739,1686.455
3740,1674.718
3741,1681.307
3742,1720.884
3743,1679.866
3744,1684.231
3745,1706.223
3746,1667.387
3747,1687.197
3748,1650.543
3749,1654.950
3750,1623.445
3751,1656.433
3752,1598.529
3753,1576.578
3754,1586.092
3755,1578.020
3756,1509.161
3757,1537.742
3758,1497.424
3759,1460.812
3760,1460.071
3761,1449.075
3762,1420.535
3763,1453.481
3764,1445.410
3765,1418.311
3766,1423.459
3767,1397.802
3768,1400.726
3769,1380.958
3770,1383.140
3771,1390.471
3772,1381.699
3773,1381.699
3774,1389.730
3775,1387.547
3776,1352.376
3777,1356.042
3778,1344.305
3779,1336.274
3780,1374.368
3781,1398.543
3782,1357.524
3783,1362.631
3784,1365.555
3785,1414.646
3786,1421.976
3787,1432.231
3788,1409.539
3789,1402.950
3790,1447.633
3791,1409.539
3792,1461.553
3793,1464.477
3794,1459.329
3795,1445.410
3796,1469.584
3797,1470.325
3798,1459.329
3799,1455.664
3800,1485.728
3801,1465.219
3802,1494.500
3803,1476.915
3804,1513.568
3805,1478.397
3806,1517.933
3807,1486.469
3808,1531.853
3809,1503.313
3810,1552.404
3811,1504.013
3812,1529.670
3813,1557.510
3814,1513.568
3815,1559.693
3816,1516.492
3817,1561.176
3818,1526.746
3819,1515.009
3820,1520.898
3821,1532.595
3822,1558.252
3823,1559.693
3824,1535.519
3825,1513.568
3826,1554.586
3827,1523.081
3828,1515.751
3829,1561.176
3830,1514.268
3831,1561.176
3832,1513.568
3833,1545.773
3834,1501.089
3835,1539.925
3836,1514.268
3837,1497.424
3838,1504.755
3839,1462.995
3840,1449.816
3841,1446.151
3842,1429.307
3843,1421.235
3844,1410.239
3845,1429.307
3846,1420.535
3847,1443.227
3848,1408.798
3849,1391.954
3850,1431.490
3851,1397.802
3852,1420.535
3853,1443.968
3854,1417.570
3855,1454.964
3856,1433.713
3857,1439.561
3858,1428.566
3859,1401.467
3860,1427.124
3861,1393.395
3862,1387.547
3863,1372.144
3864,1347.970
3865,1320.130
3866,1287.925
3867,1238.093
3868,1201.481
3869,1181.672
3870,1172.158
3871,1111.372
3872,1102.559
3873,1091.563
3874,1071.795
3875,1033.700
3876,1011.708
3877,997.088
3878,1024.187
3879,1032.959
3880,1023.446
3881,1020.522
3882,1004.378
3883,1035.883
3884,1082.791
3885,1104.783
3886,1117.961
3887,1134.064
3888,1139.912
3889,1159.721
3890,1210.253
3891,1265.933
3892,1301.845
3893,1332.609
3894,1345.787
3895,1347.270
3896,1408.798
3897,1449.075
3898,1435.896
3899,1512.085
3900,1484.987
3901,1533.336
3902,1569.248
3903,1590.498
3904,1578.020
3905,1619.038
3906,1611.708
3907,1611.007
3908,1610.266
3909,1595.605
3910,1613.190
3911,1640.289
3912,1635.882
3913,1614.673
3914,1586.092
3915,1574.354
3916,1568.506
3917,1577.278
3918,1569.248
3919,1511.344
3920,1504.013
3921,1509.903
3922,1451.299
3923,1466.660
3924,1429.307
3925,1389.730
3926,1383.140
3927,1340.680
3928,1334.050
3929,1309.875
3930,1275.446
3931,1290.849
3932,1270.339
3933,1249.830
3934,1233.686
3935,1238.093
3936,1228.580
3937,1194.150
3938,1169.976
3939,1159.721
3940,1162.645
3941,1127.475
3942,1095.228
3943,1095.228
3944,1114.296
3945,1099.635
3946,1101.817
3947,1101.117
3948,1095.969
3949,1093.787
3950,1090.121
3951,1082.791
3952,1068.871
3953,1066.688
3954,1078.384
3955,1063.723
3956,1093.045
3957,1136.988
3958,1116.479
3959,1116.479
3960,1178.006
3961,1163.386
3962,1160.421
3963,1212.436
3964,1198.557
3965,1191.226
3966,1249.830
3967,1253.495
3968,1241.017
3969,1274.005
3970,1282.035
3971,1284.259
3972,1276.929
3973,1274.746
3974,1291.590
3975,1317.947
3976,1337.015
3977,1315.765
3978,1364.855
3979,1384.623
3980,1406.615
3981,1416.869
3982,1480.580
3983,1493.059
3984,1493.759
3985,1525.264
3986,1554.586
3987,1570.689
3988,1621.262
3989,1645.437
3990,1641.030
3991,1682.790
3992,1654.209
3993,1689.379
3994,1711.371
3995,1670.353
3996,1708.447
3997,1681.307
3998,1650.543
3999,1682.790
4000,1645.437
4001,1628.593
4002,1619.038
4003,1594.122
4004,1564.100
4005,1539.925
4006,1467.401
4007,1482.804
4008,1422.718
4009,1423.459
4010,1405.132
4011,1383.882
4012,1361.190
4013,1294.514
4014,1325.278
4015,1260.826
4016,1303.286
4017,1260.826
4018,1241.017
4019,1275.446
4020,1247.606
4021,1252.754
4022,1286.442
4023,1319.430
4024,1332.609
4025,1308.434
4026,1350.935
4027,1378.775
4028,1360.448
4029,1394.878
4030,1408.056
4031,1408.056
4032,1415.387
4033,1419.794
4034,1482.804
4035,1482.063
4036,1473.991
4037,1481.321
4038,1478.397
4039,1484.245
4040,1519.416
4041,1507.679
4042,1509.903
4043,1529.670
4044,1525.264
4045,1520.898
4046,1489.393
4047,1499.648
4048,1526.005
4049,1497.424
4050,1470.325
4051,1483.504
4052,1494.500
4053,1457.888
4054,1504.013
4055,1462.995
4056,1463.736
4057,1463.736
4058,1501.831
4059,1510.644
4060,1519.416
4061,1492.317
4062,1482.063
4063,1519.416
4064,1538.484
4065,1493.059
4066,1515.751
4067,1523.822
4068,1513.568
4069,1540.666
4070,1490.093
4071,1487.169
4072,1493.059
4073,1504.755
4074,1514.268
4075,1498.165
4076,1501.831
4077,1543.590
4078,1503.313
4079,1557.510
4080,1523.822
4081,1539.925
4082,1579.502
4083,1561.176
4084,1565.582
4085,1572.913
4086,1578.020
4087,1583.168
4088,1601.453
4089,1558.252
4090,1561.917
4091,1591.940
4092,1539.184
4093,1577.278
4094,1537.001
4095,1498.165
4096,1520.898
4097,1502.572
4098,1451.299
4099,1432.972
4100,1435.896
4101,1423.459
4102,1445.410
4103,1403.650
4104,1391.954
4105,1428.566
4106,1412.463
4107,1409.539
4108,1387.547
4109,1385.364
4110,1374.368
4111,1381.699
4112,1393.395
4113,1358.966
4114,1338.457
4115,1368.520
4116,1351.635
4117,1326.019
4118,1278.370
4119,1240.276
4120,1242.499
4121,1215.401
4122,1191.926
4123,1134.805
4124,1111.372
4125,1082.049
4126,1056.392
4127,1033.700
4128,1007.343
4129,1002.195
4130,1011.008
4131,976.538
4132,922.341
4133,957.511
4134,936.261
4135,911.345
4136,899.649
4137,921.599
4138,919.417
4139,962.659
4140,999.271
4141,1028.552
4142,1054.210
4143,1109.148
4144,1142.136
4145,1178.006
4146,1271.081
4147,1308.434
4148,1345.046
4149,1446.151
4150,1463.736
4151,1508.420
4152,1559.693
4153,1616.855
4154,1665.205
4155,1682.049
4156,1731.880
4157,1709.889
4158,1756.796
4159,1736.246
4160,1764.827
4161,1733.322
4162,1701.817
4163,1701.817
4164,1707.706
4165,1660.798
4166,1597.788
4167,1583.168
4168,1574.354
4169,1509.161
4170,1451.999
4171,1418.311
4172,1429.307
4173,1386.806
4174,1349.452
4175,1323.095
4176,1249.830
4177,1268.115
4178,1199.257
4179,1224.914
4180,1189.744
4181,1167.052
4182,1147.984
4183,1134.805
4184,1137.729
4185,1140.653
4186,1134.064
4187,1114.296
4188,1101.117
4189,1116.479
4190,1124.551
4191,1131.140
4192,1102.559
4193,1100.376
4194,1110.631
4195,1137.729
4196,1178.748
4197,1172.158
4198,1163.386
4199,1212.436
4200,1196.333
4201,1221.249
4202,1257.861
4203,1247.606
4204,1221.249
4205,1237.352
4206,1260.085
4207,1274.746
4208,1288.666
4209,1289.366
4210,1285.001
4211,1303.286
4212,1282.035
4213,1288.666
4214,1301.845
4215,1306.210
4216,1306.210
4217,1303.286
4218,1309.175
4219,1310.617
4220,1308.434
4221,1314.282
4222,1315.023
4223,1320.871
4224,1315.765
4225,1330.385
4226,1317.206
4227,1326.019
4228,1315.023
4229,1302.586
4230,1358.966
4231,1345.046
4232,1323.795
4233,1354.600
4234,1397.802
4235,1385.364
4236,1374.368
4237,1397.060
4238,1458.629
4239,1469.584
4240,1452.740
4241,1526.005
4242,1520.157
4243,1574.354
4244,1545.773
4245,1580.944
4246,1619.038
4247,1627.851
4248,1654.950
4249,1652.767
4250,1643.954
4251,1679.125
4252,1704.782
4253,1680.607
4254,1676.201
4255,1654.950
4256,1649.802
4257,1636.623
4258,1627.851
4259,1621.262
4260,1566.282
4261,1569.248
4262,1550.921
4263,1499.648
4264,1462.253
4265,1433.713
4266,1408.056
4267,1379.475
4268,1353.118
4269,1337.715
4270,1337.015
4271,1332.609
4272,1276.929
4273,1254.937
4274,1283.518
4275,1243.241
4276,1210.253
4277,1258.602
4278,1224.914
4279,1219.066
4280,1238.093
4281,1263.009
4282,1224.914
4283,1241.758
4284,1266.674
4285,1299.621
4286,1309.875
4287,1338.457
4288,1331.126
4289,1348.711
4290,1397.060
4291,1383.140
4292,1409.539
4293,1446.151
4294,1495.241
4295,1480.580
4296,1511.344
4297,1504.755
4298,1537.001
4299,1563.358
4300,1589.016
4301,1570.689
4302,1564.841
4303,1575.837
4304,1583.868
4305,1602.194
4306,1618.297
4307,1591.940
4308,1580.202
4309,1596.346
4310,1625.628
4311,1592.681
4312,1565.582
4313,1562.658
4314,1597.088
4315,1558.252
4316,1542.849
4317,1535.519
4318,1533.336
4319,1563.358
4320,1529.670
4321,1507.679
4322,1513.568
4323,1515.009
4324,1499.648
4325,1522.340
4326,1517.233
4327,1465.919
4328,1462.253
4329,1485.728
4330,1501.831
4331,1501.831
4332,1475.473
4333,1457.888
4334,1478.397
4335,1463.736
4336,1490.093
4337,1513.568
4338,1497.424
4339,1495.983
4340,1504.013
4341,1533.336
4342,1486.469
4343,1495.241
4344,1517.233
4345,1518.675
4346,1531.853
4347,1511.344
4348,1485.728
4349,1490.093
4350,1520.157
4351,1495.983
4352,1495.983
4353,1491.576
4354,1456.405
4355,1490.835
4356,1442.485
4357,1465.919
4358,1403.650
4359,1405.132
4360,1422.718
4361,1405.132
4362,1382.399
4363,1351.635
4364,1344.305
4365,1343.604
4366,1340.680
4367,1330.385
4368,1328.202
4369,1330.385
4370,1322.354
4371,1323.795
4372,1323.795
4373,1319.430
4374,1330.385
4375,1357.524
4376,1345.787
4377,1313.541
4378,1326.019
4379,1327.461
4380,1305.510
4381,1281.335
4382,1245.424
4383,1230.021
4384,1239.575
4385,1245.424
4386,1175.082
4387,1189.744
4388,1162.645
4389,1142.877
4390,1130.399
4391,1125.292
4392,1084.232
4393,1082.049
4394,1062.281
4395,1059.357
4396,1071.795
4397,1087.197
4398,1095.969
4399,1098.893
4400,1101.817
4401,1112.813
4402,1120.144
4403,1134.064
4404,1157.497
4405,1171.417
4406,1172.158
4407,1167.052
4408,1227.838
4409,1229.321
4410,1249.830
4411,1292.290
4412,1316.506
4413,1339.198
4414,1375.810
4415,1384.623
4416,1455.664
4417,1438.820
4418,1489.393
4419,1471.808
4420,1506.237
4421,1524.564
4422,1520.898
4423,1489.393
4424,1515.751
4425,1480.580
4426,1504.013
4427,1502.572
4428,1459.329
4429,1461.553
4430,1466.660
4431,1413.204
4432,1432.972
4433,1421.976
4434,1406.615
4435,1360.448
4436,1310.617
4437,1292.290
4438,1298.179
4439,1267.415
4440,1221.249
4441,1225.656
4442,1180.972
4443,1136.988
4444,1169.234
4445,1137.729
4446,1125.992
4447,1104.041
4448,1055.692
4449,1026.370
4450,1044.696
4451,1008.784
4452,956.770
4453,997.088
4454,963.359
4455,926.006
4456,971.431
4457,920.899
4458,923.082
4459,975.096
4460,939.185
4461,988.275
4462,963.359
4463,992.682
4464,1011.008
4465,1031.518
4466,1065.947
4467,1120.885
4468,1122.327
4469,1126.733
4470,1197.816
4471,1216.842
4472,1235.169
4473,1287.925
4474,1306.210
4475,1321.613
4476,1366.296
4477,1402.950
4478,1398.543
4479,1460.812
4480,1463.736
4481,1523.822
4482,1507.679
4483,1580.944
4484,1558.252
4485,1602.194
4486,1632.958
4487,1675.459
4488,1698.893
4489,1682.790
4490,1709.147
4491,1733.322
4492,1783.154
4493,1797.074
4494,1808.069
4495,1829.320
4496,1846.905
4497,1862.267
4498,1876.187
4499,1886.441
4500,1905.509
4501,1897.437
4502,1901.844
4503,1898.920
4504,1903.285
4505,1901.844
4506,1915.022
4507,1858.601
4508,1857.860
4509,1832.985
4510,1808.069
4511,1736.987
4512,1731.880
4513,1668.129
4514,1616.855
4515,1594.864
4516,1506.237
4517,1462.995
4518,1398.543
4519,1348.711
4520,1317.947
4521,1304.027
4522,1241.758
4523,1190.485
4524,1164.828
4525,1150.167
4526,1125.292
4527,1096.711
4528,1097.452
4529,1054.210
4530,1054.951
4531,1076.201
4532,1098.893
4533,1106.965
4534,1113.555
4535,1126.733
4536,1125.992
4537,1138.471
4538,1164.087
4539,1184.637
4540,1183.154
4541,1205.846
4542,1242.499
4543,1227.838
4544,1255.678
4545,1312.841
4546,1359.707
4547,1370.703
4548,1364.114
4549,1390.471
4550,1450.557
4551,1426.383
4552,1477.656
4553,1486.469
4554,1482.804
4555,1508.420
4556,1539.925
4557,1556.028
4558,1519.416
4559,1523.081
4560,1550.180
4561,1573.613
4562,1586.833
4563,1545.073
4564,1550.921
4565,1550.921
4566,1550.921
4567,1569.248
4568,1570.689
4569,1575.837
4570,1580.202
4571,1594.864
4572,1595.605
4573,1589.757
4574,1592.681
4575,1632.958
4576,1641.030
4577,1617.597
4578,1599.270
4579,1614.673
4580,1640.289
4581,1601.453
4582,1609.525
4583,1638.106
4584,1621.262
4585,1624.927
4586,1643.954
4587,1613.190
4588,1608.784
4589,1611.007
4590,1611.007
4591,1608.784
4592,1625.628
4593,1635.182
4594,1627.851
4595,1632.217
4596,1625.628
4597,1610.266
4598,1596.346
4599,1606.601
4600,1607.342
4601,1602.936
4602,1576.578
4603,1568.506
4604,1512.085
4605,1501.831
4606,1512.085
4607,1467.401
4608,1450.557
4609,1463.736
4610,1467.401
4611,1431.490
4612,1459.329
4613,1425.642
4614,1418.311
4615,1396.319
4616,1441.744
4617,1419.052
4618,1435.896
4619,1409.539
4620,1402.950
4621,1400.726
4622,1405.874
4623,1394.136
4624,1389.730
4625,1359.707
4626,1320.130
4627,1340.680
4628,1287.925
4629,1287.183
4630,1249.830
4631,1230.762
4632,1226.356
4633,1180.230
4634,1192.668
4635,1160.421
4636,1126.733
4637,1096.711
4638,1084.973
4639,1083.532
4640,1065.205
4641,1049.803
4642,1024.187
4643,968.507
4644,983.168
4645,1011.008
4646,983.869
4647,965.583
4648,1018.298
4649,1027.852
4650,1047.620
4651,1063.023
4652,1079.125
4653,1095.228
4654,1110.631
4655,1113.555
4656,1139.212
4657,1136.988
4658,1152.390
4659,1184.637
4660,1187.561
4661,1197.074
4662,1181.672
4663,1241.017
4664,1209.512
4665,1234.428
4666,1263.009
4667,1292.290
4668,1339.198
4669,1365.555
4670,1389.730
4671,1399.984
4672,1441.044
4673,1476.173
4674,1508.420
4675,1527.488
4676,1581.685
4677,1607.342
4678,1632.217
4679,1665.205
4680,1734.063
4681,1720.143
4682,1754.572
4683,1770.716
4684,1775.082
4685,1778.747
4686,1784.636
4687,1780.230
4688,1772.899
4689,1762.644
4690,1742.876
4691,1755.314
4692,1696.710
4693,1693.045
4694,1652.026
4695,1601.453
4696,1569.248
4697,1526.005
4698,1509.903
4699,1501.831
4700,1440.303
4701,1390.471
4702,1369.220
4703,1339.939
4704,1326.019
4705,1279.853
4706,1252.754
4707,1257.861
4708,1212.436
4709,1183.896
4710,1196.333
4711,1137.729
4712,1147.984
4713,1116.479
4714,1099.635
4715,1097.452
4716,1086.456
4717,1076.943
4718,1060.799
4719,1010.267
4720,998.530
4721,1029.294
4722,987.534
4723,971.431
4724,1016.856
4725,1008.784
4726,971.431
4727,1002.936
4728,961.918
4729,1001.454
4730,956.029
4731,1002.195
4732,958.994
4733,1012.450
4734,972.914
4735,992.682
4736,1039.548
4737,1034.442
4738,1076.201
4739,1060.799
4740,1092.304
4741,1147.243
4742,1153.132
4743,1171.417
4744,1224.914
4745,1289.366
4746,1311.358
4747,1375.810
4748,1397.060
4749,1432.972
4750,1483.504
4751,1545.073
4752,1578.020
4753,1621.262
4754,1655.691
4755,1725.991
4756,1720.143
4757,1758.979
4758,1794.150
4759,1838.833
4760,1893.772
4761,1876.187
4762,1905.509
4763,1952.376
4764,1958.265
4765,1958.965
4766,1934.790
4767,1923.794
4768,1912.098
4769,1887.183
4770,1882.776
4771,1851.271
4772,1854.195
4773,1781.671
4774,1771.416
4775,1710.630
4776,1693.045
4777,1641.771
4778,1597.788
4779,1560.434
4780,1567.024
4781,1495.241
4782,1478.397
4783,1488.652
4784,1463.736
4785,1441.744
4786,1397.802
4787,1382.399
4788,1356.783
4789,1345.046
4790,1383.140
4791,1380.216
4792,1363.372
4793,1336.274
4794,1359.707
4795,1343.604
4796,1320.871
4797,1351.635
4798,1367.779
4799,1337.715
4800,1329.684
4801,1358.966
4802,1342.122
4803,1330.385
4804,1334.791
4805,1361.190
4806,1361.890
4807,1366.296
4808,1387.547
4809,1363.372
4810,1359.707
4811,1405.874
4812,1369.220
4813,1424.159
4814,1408.056
4815,1399.284
4816,1400.726
4817,1403.650
4818,1399.284
4819,1400.726
4820,1402.950
4821,1451.999
4822,1435.155
4823,1422.718
4824,1465.919
4825,1449.075
4826,1431.490
4827,1463.736
4828,1488.652
4829,1452.740
4830,1495.241
4831,1514.268
4832,1513.568
4833,1485.728
4834,1513.568
4835,1541.408
4836,1534.077
4837,1514.268
4838,1516.492
4839,1522.340
4840,1553.104
4841,1519.416
4842,1512.827
4843,1517.233
4844,1525.264
4845,1522.340
4846,1542.108
4847,1529.670
4848,1546.514
4849,1539.184
4850,1546.514
4851,1545.773
4852,1545.773
4853,1548.738
4854,1548.738
4855,1547.997
4856,1547.997
4857,1542.849
4858,1531.853
4859,1537.001
4860,1541.408
4861,1542.849
4862,1478.397
4863,1494.500
4864,1488.652
4865,1432.972
4866,1404.391
4867,1436.637
4868,1392.695
4869,1364.855
4870,1401.467
4871,1350.194
4872,1398.543
4873,1382.399
4874,1350.194
4875,1404.391
4876,1399.984
4877,1381.699
4878,1399.984
4879,1408.798
4880,1413.904
4881,1399.284
4882,1448.334
4883,1423.459
4884,1402.208
4885,1389.030
4886,1408.056
4887,1405.132
4888,1403.650
4889,1356.042
4890,1332.609
4891,1307.693
4892,1285.701
4893,1275.446
4894,1258.602
4895,1273.263
4896,1268.115
4897,1209.512
4898,1231.504
4899,1241.017
4900,1202.181
4901,1224.914
4902,1178.006
4903,1184.637
4904,1214.660
4905,1194.150
4906,1194.892
4907,1176.565
4908,1226.356
4909,1194.150
4910,1239.575
4911,1242.499
4912,1231.504
4913,1255.678
4914,1275.446
4915,1246.906
4916,1279.853
4917,1323.795
4918,1333.350
4919,1364.114
4920,1383.140
4921,1394.878
4922,1380.216
4923,1443.968
4924,1454.223
4925,1460.812
4926,1503.313
4927,1488.652
4928,1558.252
4929,1529.670
4930,1550.921
4931,1590.498
4932,1614.673
4933,1630.775
4934,1638.847
4935,1624.927
4936,1608.042
4937,1596.346
4938,1587.533
4939,1583.868
4940,1575.096
4941,1570.689
4942,1547.256
4943,1535.519
4944,1539.925
4945,1528.929
4946,1539.184
4947,1478.397
4948,1498.165
4949,1484.245
4950,1434.455
4951,1434.455
4952,1399.284
4953,1392.695
4954,1369.220
4955,1353.118
4956,1354.600
4957,1347.970
4958,1326.019
4959,1263.009
4960,1288.666
4961,1253.495
4962,1219.766
4963,1259.343
4964,1229.321
4965,1185.337
4966,1199.257
4967,1210.253
4968,1203.664
4969,1181.672
4970,1180.230
4971,1161.904
4972,1159.721
4973,1155.314
4974,1111.372
4975,1129.657
4976,1118.703
4977,1118.703
4978,1115.737
4979,1117.961
4980,1116.479
4981,1115.737
4982,1119.403
4983,1123.809
4984,1121.627
4985,1120.885
4986,1134.805
4987,1109.148
4988,1120.885
4989,1168.493
4990,1168.493
4991,1157.497
4992,1131.881
4993,1159.721
4994,1165.569
4995,1139.212
4996,1177.306
4997,1133.323
4998,1167.052
4999,1128.216
5000,1169.234
5001,1166.310
5002,1155.314
5003,1178.748
5004,1222.732
5005,1255.678
5006,1300.362
5007,1345.787
5008,1400.726
5009,1405.132
5010,1499.648
5011,1542.849
5012,1553.104
5013,1648.361
5014,1701.116
5015,1741.394
5016,1798.556
5017,1791.926
5018,1866.673
5019,1870.339
5020,1897.437
5021,1933.349
5022,1960.448
5023,1968.520
5024,1972.144
5025,1975.809
5026,2006.614
5027,1979.474
5028,1950.934
5029,1920.870
5030,1915.764
5031,1854.195
5032,1830.020
5033,1793.408
5034,1747.983
5035,1709.889
5036,1627.110
5037,1594.122
5038,1560.434
5039,1498.907
5040,1448.334
5041,1402.208
5042,1398.543
5043,1326.019
5044,1323.095
5045,1274.746
5046,1237.352
5047,1264.450
5048,1203.664
5049,1227.838
5050,1197.074
5051,1222.732
5052,1254.937
5053,1262.267
5054,1254.196
5055,1243.941
5056,1263.009
5057,1286.442
5058,1315.023
5059,1374.368
5060,1385.364
5061,1374.368
5062,1387.547
5063,1441.744
5064,1428.566
5065,1460.812
5066,1446.151
5067,1501.831
5068,1520.898
5069,1478.397
5070,1500.348
5071,1519.416
5072,1543.590
5073,1539.925
5074,1504.013
5075,1501.831
5076,1523.822
5077,1529.670
5078,1503.313
5079,1479.839
5080,1459.329
5081,1474.732
5082,1461.553
5083,1475.473
5084,1465.219
5085,1440.303
5086,1394.136
5087,1391.212
5088,1391.954
5089,1380.958
5090,1400.726
5091,1403.650
5092,1402.950
5093,1410.980
5094,1369.962
5095,1370.703
5096,1380.958
5097,1392.695
5098,1384.623
5099,1378.034
5100,1416.128
5101,1402.950
5102,1396.319
5103,1382.399
5104,1402.208
5105,1389.030
5106,1388.288
5107,1416.869
5108,1419.052
5109,1397.060
5110,1449.816
5111,1449.075
5112,1419.052
5113,1418.311
5114,1456.405
5115,1478.397
5116,1440.303
5117,1477.656
5118,1446.151
5119,1468.143
5120,1484.245
5121,1456.405
5122,1433.713
5123,1476.173
5124,1440.303
5125,1405.874
5126,1412.463
5127,1424.900
5128,1394.136
5129,1374.368
5130,1359.707
5131,1356.783
5132,1366.296
5133,1398.543
5134,1430.048
5135,1441.744
5136,1460.071
5137,1435.155
5138,1451.299
5139,1474.732
5140,1501.831
5141,1545.073
5142,1537.001
5143,1568.506
5144,1542.108
5145,1591.940
5146,1564.100
5147,1531.153
5148,1539.184
5149,1549.438
5150,1512.085
5151,1505.496
5152,1451.999
5153,1427.824
5154,1437.379
5155,1357.524
5156,1369.220
5157,1308.434
5158,1326.019
5159,1257.861
5160,1241.758
5161,1250.571
5162,1229.321
5163,1161.163
5164,1172.900
5165,1180.972
5166,1175.082
5167,1164.087
5168,1167.752
5169,1162.645
5170,1172.158
5171,1161.163
5172,1183.896
5173,1199.257
5174,1216.101
5175,1218.325
5176,1209.512
5177,1259.343
5178,1287.183
5179,1304.027
5180,1326.760
5181,1361.890
5182,1410.980
5183,1424.159
5184,1467.401
5185,1479.139
5186,1482.804
5187,1547.256
5188,1526.005
5189,1586.833
5190,1563.358
5191,1607.342
5192,1595.605
5193,1616.855
5194,1633.699
5195,1652.767
5196,1643.954
5197,1607.342
5198,1611.007
5199,1627.110
5200,1587.533
5201,1615.373
5202,1566.282
5203,1579.502
5204,1580.944
5205,1517.933
5206,1506.979
5207,1518.675
5208,1491.576
5209,1481.321
5210,1426.383
5211,1414.646
5212,1368.520
5213,1367.779
5214,1342.863
5215,1284.259
5216,1293.773
5217,1245.424
5218,1263.009
5219,1212.436
5220,1175.824
5221,1177.306
5222,1143.577
5223,1142.136
5224,1158.980
5225,1156.797
5226,1147.984
5227,1139.212
5228,1125.992
5229,1128.216
5230,1125.292
5231,1120.144
5232,1125.292
5233,1126.733
5234,1130.399
5235,1132.623
5236,1139.912
5237,1144.319
5238,1142.136
5239,1159.721
5240,1166.310
5241,1156.056
5242,1224.914
5243,1209.512
5244,1259.343
5245,1235.910
5246,1280.594
5247,1303.286
5248,1331.126
5249,1329.684
5250,1354.600
5251,1355.300
5252,1360.448
5253,1356.783
5254,1353.118
5255,1323.795
5256,1292.290
5257,1286.442
5258,1283.518
5259,1307.693
5260,1333.350
5261,1290.107
5262,1328.202
5263,1369.962
5264,1344.305
5265,1377.292
5266,1438.820
5267,1473.991
5268,1488.652
5269,1550.921
5270,1537.742
5271,1576.578
5272,1622.704
5273,1673.277
5274,1709.889
5275,1718.702
5276,1717.960
5277,1753.131
5278,1772.899
5279,1761.162
5280,1739.211
5281,1780.230
5282,1772.899
5283,1744.318
5284,1706.965
5285,1689.379
5286,1687.897
5287,1644.695
5288,1614.673
5289,1629.293
5290,1558.252
5291,1534.818
5292,1517.233
5293,1468.884
5294,1413.204
5295,1405.874
5296,1368.520
5297,1323.095
5298,1304.027
5299,1312.841
5300,1285.001
5301,1275.446
5302,1248.348
5303,1287.183
5304,1272.522
5305,1265.933
5306,1315.023
5307,1304.769
5308,1306.210
5309,1331.126
5310,1345.787
5311,1373.627
5312,1394.136
5313,1410.980
5314,1430.048
5315,1450.557
5316,1475.473
5317,1496.724
5318,1486.469
5319,1540.666
5320,1517.233
5321,1569.248
5322,1531.853
5323,1545.073
5324,1583.868
5325,1550.180
5326,1537.001
5327,1555.328
5328,1566.282
5329,1528.929
5330,1557.510
5331,1515.009
5332,1548.738
5333,1534.077
5334,1492.317
5335,1490.093
5336,1512.085
5337,1455.664
5338,1475.473
5339,1459.329
5340,1451.299
5341,1441.044
5342,1414.646
5343,1399.984
5344,1408.798
5345,1355.300
5346,1356.042
5347,1382.399
5348,1353.859
5349,1345.046
5350,1386.064
5351,1389.030
5352,1350.935
5353,1357.524
5354,1399.984
5355,1408.798
5356,1369.220
5357,1368.520
5358,1375.110
5359,1389.030
5360,1400.726
5361,1394.136
5362,1390.471
5363,1390.471
5364,1394.878
5365,1397.060
5366,1425.642
5367,1462.253
5368,1438.820
5369,1441.744
5370,1430.789
5371,1437.379
5372,1456.405
5373,1472.549
5374,1449.075
5375,1480.580
5376,1460.071
5377,1448.334
5378,1414.646
5379,1395.619
5380,1375.810
5381,1374.368
5382,1364.855
5383,1334.050
5384,1288.666
5385,1303.286
5386,1299.621
5387,1276.187
5388,1256.419
5389,1284.259
5390,1248.348
5391,1247.606
5392,1293.773
5393,1264.450
5394,1299.621
5395,1347.270
5396,1349.452
5397,1358.225
5398,1356.783
5399,1372.144
5400,1389.030
5401,1424.900
5402,1447.633
5403,1454.964
5404,1446.151
5405,1436.637
5406,1418.311
5407,1436.637
5408,1425.642
5409,1409.539
5410,1394.136
5411,1372.144
5412,1334.050
5413,1319.430
5414,1315.023
5415,1271.081
5416,1289.366
5417,1263.750
5418,1219.066
5419,1250.571
5420,1225.656
5421,1199.257
5422,1245.424
5423,1206.588
5424,1256.419
5425,1230.021
5426,1233.686
5427,1274.746
5428,1294.514
5429,1290.107
5430,1309.875
5431,1314.282
5432,1376.551
5433,1401.467
5434,1411.722
5435,1446.151
5436,1511.344
5437,1549.438
5438,1547.256
5439,1595.605
5440,1647.619
5441,1643.213
5442,1708.447
5443,1694.527
5444,1746.542
5445,1764.086
5446,1809.511
5447,1781.671
5448,1794.891
5449,1816.841
5450,1840.316
5451,1808.069
5452,1789.002
5453,1778.006
5454,1779.488
5455,1769.975
5456,1771.416
5457,1732.622
5458,1695.969
5459,1657.874
5460,1675.459
5461,1642.513
5462,1568.506
5463,1563.358
5464,1537.001
5465,1459.329
5466,1468.143
5467,1405.132
5468,1339.198
5469,1351.635
5470,1309.175
5471,1234.428
5472,1235.910
5473,1221.249
5474,1184.637
5475,1169.234
5476,1152.390
5477,1147.243
5478,1084.232
5479,1070.312
5480,1084.232
5481,1106.224
5482,1100.376
5483,1055.692
5484,1081.308
5485,1090.863
5486,1102.559
5487,1057.134
5488,1093.045
5489,1106.965
5490,1075.460
5491,1072.536
5492,1102.559
5493,1100.376
5494,1061.540
5495,1091.563
5496,1101.817
5497,1104.783
5498,1106.965
5499,1120.885
5500,1131.140
5501,1115.037
5502,1109.889
5503,1119.403
5504,1183.896
5505,1186.078
5506,1188.261
5507,1161.904
5508,1216.101
5509,1177.306
5510,1232.245
5511,1198.557
5512,1245.424
5513,1248.348
5514,1232.986
5515,1231.504
5516,1262.267
5517,1298.179
5518,1285.701
5519,1338.457
5520,1347.970
5521,1354.600
5522,1391.954
5523,1458.629
5524,1515.009
5525,1525.264
5526,1561.917
5527,1595.605
5528,1643.954
5529,1691.562
5530,1758.238
5531,1747.242
5532,1818.324
5533,1841.757
5534,1821.248
5535,1856.419
5536,1860.084
5537,1868.115
5538,1882.035
5539,1889.365
5540,1859.343
5541,1890.107
5542,1846.905
5543,1851.271
5544,1804.404
5545,1756.055
5546,1724.550
5547,1696.710
5548,1674.718
5549,1637.365
5550,1614.673
5551,1553.845
5552,1512.085
5553,1460.812
5554,1435.896
5555,1399.984
5556,1353.118
5557,1374.368
5558,1305.510
5559,1323.095
5560,1276.929
5561,1312.841
5562,1282.777
5563,1302.586
5564,1260.085
5565,1304.027
5566,1273.263
5567,1312.099
5568,1270.339
5569,1314.282
5570,1308.434
5571,1327.461
5572,1361.190
5573,1334.050
5574,1382.399
5575,1395.619
5576,1407.315
5577,1403.650
5578,1421.235
5579,1413.904
5580,1387.547
5581,1396.319
5582,1389.030
5583,1394.136
5584,1412.463
5585,1391.212
5586,1407.315
5587,1415.387
5588,1432.231
5589,1424.900
5590,1416.128
5591,1430.789
5592,1422.718
5593,1417.570
5594,1375.110
5595,1380.216
5596,1413.204
5597,1384.623
5598,1349.452
5599,1391.954
5600,1391.212
5601,1391.954
5602,1384.623
5603,1344.305
5604,1331.867
5605,1365.555
5606,1374.368
5607,1337.015
5608,1334.791
5609,1350.935
5610,1373.627
5611,1386.806
5612,1391.212
5613,1375.810
5614,1368.520
5615,1387.547
5616,1385.364
5617,1414.646
5618,1442.485
5619,1418.311
5620,1402.950
5621,1452.740
5622,1438.820
5623,1428.566
5624,1420.535
5625,1430.789
5626,1430.789
5627,1432.972
5628,1459.329
5629,1463.736
5630,1449.075
5631,1503.313
5632,1481.321
5633,1490.835
5634,1488.652
5635,1467.401
5636,1465.919
5637,1494.500
5638,1492.317
5639,1481.321
5640,1465.219
5641,1443.968
5642,1391.212
5643,1367.779
5644,1358.225
5645,1362.631
5646,1377.292
5647,1378.775
5648,1384.623
5649,1379.475
5650,1348.711
5651,1353.118
5652,1367.779
5653,1380.958
5654,1428.566
5655,1459.329
5656,1465.219
5657,1458.629
5658,1462.995
5659,1515.751
5660,1511.344
5661,1487.169
5662,1512.085
5663,1484.987
5664,1528.929
5665,1495.241
5666,1464.477
5667,1446.151
5668,1479.139
5669,1438.820
5670,1397.802
5671,1428.566
5672,1389.730
5673,1346.528
5674,1362.631
5675,1348.711
5676,1309.875
5677,1328.943
5678,1281.335
5679,1286.442
5680,1299.621
5681,1295.955
5682,1247.606
5683,1247.606
5684,1247.606
5685,1283.518
5686,1287.183
5687,1304.769
5688,1328.943
5689,1329.684
5690,1341.381
5691,1375.810
5692,1380.958
5693,1401.467
5694,1405.874
5695,1452.740
5696,1462.253
5697,1458.629
5698,1493.059
5699,1535.519
5700,1522.340
5701,1536.260
5702,1578.020
5703,1587.533
5704,1589.757
5705,1591.198
5706,1598.529
5707,1615.373
5708,1625.628
5709,1631.517
5710,1668.870
5711,1646.137
5712,1628.593
5713,1631.517
5714,1616.855
5715,1599.270
5716,1589.757
5717,1566.282
5718,1554.586
5719,1557.510
5720,1561.176
5721,1525.264
5722,1505.496
5723,1548.738
5724,1495.983
5725,1506.979
5726,1505.496
5727,1489.393
5728,1447.633
5729,1429.307
5730,1451.299
5731,1422.718
5732,1386.064
5733,1385.364
5734,1371.444
5735,1361.890
5736,1345.046
5737,1344.305
5738,1327.461
5739,1263.009
5740,1252.754
5741,1271.781
5742,1231.504
5743,1232.986
5744,1194.150
5745,1180.230
5746,1171.417
5747,1172.900
5748,1166.310
5749,1144.319
5750,1083.532
5751,1122.327
5752,1060.799
5753,1084.232
5754,1039.548
5755,1076.943
5756,1051.286
5757,1016.856
5758,1058.616
5759,1022.704
5760,1051.286
5761,1032.218
5762,1061.540
5763,1018.298
5764,1045.438
5765,1053.468
5766,1015.374
5767,1063.023
5768,1038.848
5769,1059.357
5770,1048.362
5771,1068.129
5772,1044.696
5773,1061.540
5774,1104.041
5775,1113.555
5776,1120.885
5777,1153.832
5778,1145.060
5779,1193.409
5780,1197.074
5781,1278.370
5782,1313.541
5783,1359.707
5784,1371.444
5785,1395.619
5786,1488.652
5787,1482.063
5788,1542.108
5789,1593.422
5790,1600.753
5791,1643.954
5792,1673.277
5793,1719.402
5794,1753.131
5795,1728.215
5796,1736.987
5797,1779.488
5798,1756.055
5799,1782.412
5800,1761.903
5801,1739.911
5802,1766.310
5803,1706.965
5804,1697.451
5805,1682.790
5806,1676.942
5807,1626.369
5808,1567.765
5809,1557.510
5810,1546.514
5811,1476.915
5812,1496.724
5813,1429.307
5814,1397.060
5815,1427.824
5816,1391.954
5817,1351.635
5818,1390.471
5819,1369.962
5820,1364.114
5821,1350.935
5822,1408.798
5823,1375.110
5824,1424.159
5825,1435.155
5826,1439.561
5827,1461.553
5828,1466.660
5829,1524.564
5830,1510.644
5831,1538.484
5832,1528.929
5833,1580.944
5834,1541.408
5835,1596.346
5836,1547.997
5837,1555.328
5838,1593.422
5839,1545.073
5840,1581.685
5841,1542.108
5842,1578.020
5843,1534.077
5844,1517.233
5845,1552.404
5846,1528.929
5847,1530.412
5848,1512.827
5849,1496.724
5850,1487.911
5851,1467.401
5852,1448.334
5853,1452.740
5854,1438.079
5855,1376.551
5856,1378.034
5857,1403.650
5858,1399.984
5859,1356.042
5860,1367.779
5861,1372.144
5862,1381.699
5863,1408.056
5864,1406.615
5865,1379.475
5866,1385.364
5867,1416.128
5868,1446.892
5869,1417.570
5870,1413.204
5871,1437.379
5872,1435.896
5873,1442.485
5874,1441.744
5875,1441.044
5876,1448.334
5877,1497.424
5878,1474.732
5879,1468.884
5880,1504.013
5881,1476.173
5882,1533.336
5883,1495.241
5884,1556.769
5885,1516.492
5886,1573.613
5887,1547.997
5888,1589.757
5889,1580.202
5890,1584.609
5891,1632.217
5892,1592.681
5893,1616.114
5894,1621.962
5895,1605.860
5896,1584.609
5897,1621.262
5898,1575.096
5899,1580.202
5900,1547.256
5901,1518.675
5902,1498.165
5903,1528.188
5904,1517.233
5905,1493.059
5906,1481.321
5907,1463.736
5908,1459.329
5909,1451.999
5910,1461.553
5911,1480.580
5912,1505.496
5913,1487.169
5914,1473.991
5915,1522.340
5916,1471.067
5917,1517.933
5918,1511.344
5919,1500.348
5920,1482.804
5921,1449.816
5922,1447.633
5923,1435.155
5924,1430.048
5925,1408.056
5926,1387.547
5927,1315.765
5928,1319.430
5929,1274.005
5930,1267.415
5931,1212.436
5932,1244.682
5933,1218.325
5934,1195.592
5935,1174.341
5936,1155.314
5937,1147.243
5938,1145.801
5939,1092.304
5940,1077.643
5941,1102.559
5942,1121.627
5943,1092.304
5944,1122.327
5945,1099.635
5946,1092.304
5947,1147.243
5948,1158.239
5949,1173.641
5950,1150.908
5951,1197.816
5952,1216.842
5953,1230.762
5954,1252.754
5955,1263.009
5956,1256.419
5957,1304.769
5958,1330.385
5959,1316.506
5960,1328.202
5961,1354.600
5962,1397.802
5963,1413.904
5964,1402.950
5965,1398.543
5966,1462.995
5967,1462.995
5968,1476.173
5969,1497.424
5970,1490.835
5971,1506.979
5972,1517.933
5973,1520.157
5974,1504.755
5975,1487.169
5976,1472.549
5977,1515.751
5978,1500.348
5979,1483.504
5980,1459.329
5981,1457.147
5982,1430.789
5983,1419.794
5984,1419.052
5985,1411.722
5986,1423.459
5987,1407.315
5988,1399.284
5989,1372.886
5990,1335.533
5991,1299.621
5992,1300.362
5993,1325.278
5994,1277.670
5995,1298.179
5996,1295.955
5997,1260.826
5998,1225.656
5999,1269.598
6000,1238.093
6001,1210.994
6002,1227.838
6003,1225.656
6004,1178.006
6005,1176.565
6006,1210.994
6007,1218.325
6008,1182.413
6009,1169.234
6010,1186.820
6011,1210.253
6012,1227.097
6013,1212.436
6014,1186.078
6015,1190.485
6016,1205.146
6017,1235.910
6018,1253.495
6019,1263.750
6020,1276.187
6021,1298.921
6022,1323.795
6023,1361.190
6024,1335.533
6025,1342.863
6026,1393.395
6027,1360.448
6028,1350.194
6029,1391.212
6030,1344.305
6031,1390.471
6032,1334.050
6033,1368.520
6034,1326.760
6035,1350.194
6036,1320.130
6037,1307.693
6038,1332.609
6039,1320.871
6040,1364.855
6041,1369.962
6042,1376.551
6043,1369.220
6044,1438.820
6045,1443.227
6046,1451.999
6047,1516.492
6048,1537.742
6049,1534.818
6050,1539.184
6051,1567.024
6052,1619.038
6053,1608.042
6054,1635.882
6055,1605.118
6056,1612.449
6057,1627.110
6058,1633.699
6059,1656.433
6060,1599.270
6061,1608.784
6062,1573.613
6063,1571.430
6064,1529.670
6065,1553.104
6066,1509.903
6067,1456.405
6068,1419.794
6069,1380.958
6070,1386.064
6071,1358.966
6072,1304.769
6073,1270.339
6074,1286.442
6075,1241.758
6076,1201.481
6077,1238.834
6078,1220.508
6079,1209.512
6080,1213.918
6081,1205.146
6082,1239.575
6083,1239.575
6084,1219.066
6085,1261.526
6086,1273.263
6087,1298.921
6088,1334.050
6089,1383.140
6090,1408.056
6091,1406.615
6092,1438.820
6093,1465.919
6094,1466.660
6095,1464.477
6096,1504.013
6097,1522.340
6098,1531.153
6099,1551.662
6100,1534.818
6101,1542.108
6102,1553.845
6103,1557.510
6104,1537.742
6105,1534.818
6106,1535.519
6107,1569.248
6108,1525.264
6109,1522.340
6110,1544.332
6111,1498.907
6112,1495.983
6113,1512.085
6114,1489.393
6115,1452.740
6116,1456.405
6117,1426.383
6118,1397.802
6119,1395.619
6120,1417.570
6121,1366.296
6122,1390.471
6123,1366.296
6124,1359.707
6125,1373.627
6126,1359.707
6127,1394.878
6128,1367.779
6129,1402.208
6130,1361.890
6131,1412.463
6132,1380.216
6133,1421.976
6134,1375.110
6135,1384.623
6136,1406.615
6137,1422.718
6138,1383.882
6139,1417.570
6140,1399.984
6141,1402.950
6142,1414.646
6143,1435.155
6144,1408.798
6145,1392.695
6146,1397.060
6147,1426.383
6148,1443.968
6149,1397.060
6150,1402.208
6151,1395.619
6152,1416.128
6153,1432.231
6154,1411.722
6155,1399.984
6156,1402.208
6157,1407.315
6158,1421.235
6159,1431.490
6160,1418.311
6161,1419.052
6162,1359.707
6163,1352.376
6164,1350.935
6165,1347.970
6166,1351.635
6167,1356.783
6168,1370.703
6169,1407.315
6170,1443.227
6171,1438.079
6172,1439.561
6173,1508.420
6174,1484.987
6175,1506.979
6176,1545.773
6177,1570.689
6178,1546.514
6179,1563.358
6180,1604.418
6181,1597.088
6182,1574.354
6183,1550.921
6184,1517.233
6185,1495.983
6186,1471.808
6187,1444.709
6188,1435.896
6189,1437.379
6190,1354.600
6191,1347.270
6192,1287.925
6193,1309.175
6194,1279.853
6195,1251.272
6196,1225.656
6197,1175.082
6198,1159.721
6199,1123.809
6200,1127.475
6201,1142.136
6202,1125.992
6203,1109.148
6204,1116.479
6205,1160.421
6206,1156.056
6207,1142.877
6208,1158.980
6209,1227.097
6210,1222.732
6211,1239.575
6212,1309.875
6213,1309.175
6214,1363.372
6215,1391.954
6216,1421.976
6217,1434.455
6218,1474.732
6219,1494.500
6220,1506.237
6221,1505.496
6222,1504.755
6223,1569.948
6224,1549.438
6225,1596.346
6226,1558.252
6227,1612.449
6228,1572.913
6229,1593.422
6230,1607.342
6231,1635.882
6232,1626.369
6233,1584.609
6234,1618.297
6235,1580.202
6236,1597.088
6237,1558.252
6238,1578.020
6239,1532.595
6240,1549.438
6241,1548.738
6242,1531.853
6243,1510.644
6244,1517.933
6245,1502.572
6246,1480.580
6247,1461.553
6248,1443.968
6249,1424.159
6250,1433.713
6251,1412.463
6252,1374.368
6253,1384.623
6254,1397.060
6255,1359.707
6256,1329.684
6257,1331.867
6258,1312.841
6259,1319.430
6260,1338.457
6261,1320.871
6262,1279.853
6263,1320.130
6264,1270.339
6265,1298.179
6266,1233.686
6267,1257.861
6268,1210.253
6269,1229.321
6270,1199.257
6271,1161.904
6272,1145.801
6273,1183.896
6274,1167.752
6275,1154.573
6276,1148.725
6277,1137.729
6278,1137.729
6279,1137.729
6280,1138.471
6281,1134.805
6282,1146.501
6283,1148.725
6284,1145.801
6285,1145.801
6286,1148.725
6287,1129.657
6288,1116.479
6289,1106.965
6290,1069.612
6291,1085.715
6292,1073.277
6293,1071.054
6294,1103.300
6295,1114.296
6296,1121.627
6297,1095.228
6298,1112.813
6299,1134.064
6300,1182.413
6301,1219.066
6302,1261.526
6303,1320.871
6304,1389.030
6305,1445.410
6306,1490.093
6307,1534.818
6308,1545.773
6309,1617.597
6310,1679.866
6311,1717.960
6312,1742.135
6313,1762.644
6314,1799.998
6315,1814.659
6316,1857.160
6317,1846.905
6318,1899.620
6319,1866.673
6320,1898.920
6321,1874.004
6322,1848.347
6323,1843.940
6324,1805.145
6325,1821.989
6326,1784.636
6327,1743.576
6328,1714.295
6329,1672.535
6330,1603.677
6331,1586.092
6332,1572.172
6333,1522.340
6334,1495.983
6335,1440.303
6336,1445.410
6337,1404.391
6338,1414.646
6339,1394.136
6340,1371.444
6341,1367.038
6342,1357.524
6343,1352.376
6344,1310.617
6345,1321.613
6346,1333.350
6347,1343.604
6348,1311.358
6349,1331.126
6350,1356.783
6351,1364.855
6352,1368.520
6353,1379.475
6354,1409.539
6355,1421.235
6356,1435.155
6357,1415.387
6358,1404.391
6359,1425.642
6360,1466.660
6361,1429.307
6362,1430.048
6363,1466.660
6364,1439.561
6365,1421.235
6366,1418.311
6367,1442.485
6368,1457.147
6369,1458.629
6370,1449.075
6371,1440.303
6372,1416.128
6373,1400.726
6374,1390.471
6375,1383.882
6376,1378.034
6377,1383.882
6378,1381.699
6379,1372.886
6380,1391.954
6381,1333.350
6382,1365.555
6383,1331.867
6384,1356.042
6385,1391.212
6386,1356.783
6387,1364.855
6388,1393.395
6389,1424.159
6390,1432.972
6391,1438.820
6392,1453.481
6393,1452.740
6394,1520.157
6395,1490.093
6396,1547.256
6397,1509.161
6398,1543.590
6399,1547.256
6400,1558.252
6401,1534.077
6402,1583.168
6403,1551.662
6404,1556.028
6405,1576.578
6406,1537.001
6407,1567.765
6408,1524.564
6409,1547.997
6410,1512.085
6411,1542.108
6412,1494.500
6413,1500.348
6414,1476.173
6415,1453.481
6416,1456.405
6417,1453.481
6418,1441.744
6419,1426.383
6420,1405.132
6421,1343.604
6422,1327.461
6423,1301.103
6424,1275.446
6425,1279.111
6426,1279.853
6427,1301.103
6428,1293.773
6429,1310.617
6430,1326.019
6431,1335.533
6432,1348.711
6433,1348.711
6434,1353.118
6435,1380.958
6436,1439.561
6437,1444.709
6438,1467.401
6439,1466.660
6440,1477.656
6441,1513.568
6442,1469.584
6443,1484.987
6444,1452.740
6445,1486.469
6446,1443.968
6447,1434.455
6448,1410.980
6449,1331.126
6450,1339.198
6451,1272.522
6452,1254.196
6453,1248.348
6454,1215.401
6455,1169.976
6456,1108.407
6457,1133.323
6458,1086.456
6459,1067.388
6460,1016.115
6461,1036.624
6462,1045.438
6463,1001.454
6464,1032.959
6465,1046.138
6466,1009.526
6467,1017.598
6468,1075.460
6469,1106.224
6470,1106.965
6471,1115.737
6472,1163.386
6473,1223.432
6474,1232.245
6475,1285.701
6476,1299.621
6477,1354.600
6478,1421.976
6479,1454.223
6480,1456.405
6481,1542.108
6482,1539.184
6483,1605.118
6484,1657.874
6485,1663.022
6486,1683.531
6487,1728.956
6488,1746.542
6489,1750.907
6490,1761.903
6491,1782.412
6492,1819.766
6493,1814.659
6494,1790.484
6495,1810.993
6496,1825.655
6497,1767.051
6498,1781.671
6499,1764.086
6500,1732.622
6501,1698.893
6502,1673.977
6503,1637.365
6504,1602.936
6505,1588.274
6506,1542.849
6507,1498.907
6508,1470.325
6509,1446.892
6510,1378.034
6511,1370.703
6512,1298.179
6513,1315.023
6514,1284.259
6515,1261.526
6516,1237.352
6517,1205.846
6518,1195.592
6519,1187.561
6520,1172.900
6521,1111.372
6522,1101.117
6523,1106.224
6524,1125.292
6525,1126.733
6526,1122.327
6527,1116.479
6528,1077.643
6529,1059.357
6530,1090.121
6531,1106.224
6532,1054.951
6533,1093.045
6534,1109.889
6535,1070.312
6536,1129.657
6537,1147.243
6538,1147.243
6539,1139.912
6540,1177.306
6541,1186.078
6542,1197.074
6543,1190.485
6544,1207.329
6545,1192.668
6546,1197.074
6547,1194.150
6548,1196.333
6549,1207.329
6550,1208.812
6551,1207.329
6552,1190.485
6553,1193.409
6554,1215.401
6555,1208.070
6556,1180.972
6557,1237.352
6558,1227.097
6559,1232.245
6560,1294.514
6561,1338.457
6562,1356.783
6563,1387.547
6564,1400.726
6565,1458.629
6566,1500.348
6567,1557.510
6568,1604.418
6569,1630.775
6570,1673.277
6571,1714.295
6572,1734.063
6573,1774.382
6574,1792.667
6575,1861.525
6576,1837.351
6577,1876.187
6578,1862.267
6579,1871.080
6580,1885.000
6581,1845.423
6582,1851.271
6583,1847.605
6584,1788.301
6585,1749.466
6586,1715.737
6587,1679.866
6588,1620.521
6589,1584.609
6590,1519.416
6591,1476.173
6592,1465.219
6593,1367.038
6594,1352.376
6595,1279.111
6596,1243.241
6597,1223.432
6598,1209.512
6599,1194.892
6600,1158.239
6601,1106.224
6602,1109.148
6603,1122.327
6604,1134.805
6605,1091.563
6606,1106.965
6607,1151.649
6608,1161.163
6609,1159.721
6610,1158.980
6611,1181.672
6612,1213.177
6613,1250.571
6614,1243.941
6615,1246.906
6616,1321.613
6617,1294.514
6618,1364.855
6619,1354.600
6620,1402.208
6621,1372.144
6622,1394.136
6623,1430.048
6624,1441.044
6625,1492.317
6626,1484.987
6627,1487.911
6628,1484.245
6629,1493.059
6630,1548.738
6631,1562.658
6632,1533.336
6633,1576.578
6634,1551.662
6635,1552.404
6636,1593.422
6637,1571.430
6638,1554.586
6639,1587.533
6640,1562.658
6641,1580.944
6642,1597.788
6643,1578.761
6644,1565.582
6645,1579.502
6646,1604.418
6647,1563.358
6648,1562.658
6649,1579.502
6650,1576.578
6651,1579.502
6652,1524.564
6653,1552.404
6654,1556.028
6655,1497.424
6656,1512.085
6657,1468.143
6658,1501.089
6659,1476.915
6660,1446.151
6661,1423.459
6662,1459.329
6663,1405.132
6664,1449.816
6665,1411.722
6666,1396.319
6667,1419.052
6668,1387.547
6669,1375.110
6670,1364.855
6671,1372.886
6672,1355.300
6673,1371.444
6674,1367.779
6675,1368.520
6676,1357.524
6677,1361.190
6678,1299.621
6679,1290.107
6680,1292.290
6681,1293.031
6682,1306.951
6683,1330.385
6684,1342.122
6685,1341.381
6686,1360.448
6687,1345.046
6688,1364.114
6689,1421.235
6690,1410.980
6691,1444.709
6692,1464.477
6693,1506.237
6694,1498.907
6695,1554.586
6696,1523.081
6697,1555.328
6698,1569.248
6699,1560.434
6700,1564.841
6701,1555.328
6702,1530.412
6703,1560.434
6704,1513.568
6705,1491.576
6706,1464.477
6707,1487.911
6708,1449.075
6709,1409.539
6710,1352.376
6711,1346.528
6712,1303.286
6713,1298.921
6714,1228.580
6715,1250.571
6716,1213.177
6717,1186.820
6718,1173.641
6719,1151.649
6720,1125.292
6721,1110.631
6722,1052.768
6723,1088.639
6724,1071.054
6725,1063.023
6726,1046.879
6727,1056.392
6728,1087.197
6729,1090.863
6730,1169.234
6731,1169.976
6732,1186.078
6733,1229.321
6734,1289.366
6735,1349.452
6736,1398.543
6737,1441.044
6738,1465.219
6739,1494.500
6740,1569.948
6741,1580.944
6742,1597.088
6743,1636.623
6744,1671.053
6745,1690.862
6746,1706.223
6747,1735.546
6748,1774.382
6749,1741.394
6750,1753.131
6751,1784.636
6752,1754.572
6753,1725.991
6754,1706.965
6755,1716.478
6756,1712.813
6757,1649.102
6758,1650.543
6759,1604.418
6760,1621.262
6761,1583.168
6762,1553.104
6763,1535.519
6764,1455.664
6765,1443.227
6766,1427.124
6767,1396.319
6768,1350.194
6769,1334.791
6770,1319.430
6771,1298.921
6772,1273.263
6773,1261.526
6774,1219.766
6775,1177.306
6776,1188.261
6777,1175.082
6778,1160.421
6779,1138.471
6780,1153.132
6781,1115.737
6782,1153.832
6783,1109.889
6784,1142.136
6785,1121.627
6786,1117.220
6787,1164.087
6788,1136.247
6789,1173.641
6790,1151.649
6791,1152.390
6792,1178.748
6793,1183.154
6794,1200.740
6795,1216.101
6796,1224.914
6797,1239.575
6798,1230.021
6799,1249.089
6800,1271.781
6801,1308.434
6802,1307.693
6803,1298.179
6804,1347.270
6805,1330.385
6806,1305.510
6807,1339.939
6808,1293.773
6809,1283.518
6810,1287.183
6811,1280.594
6812,1315.765
6813,1268.115
6814,1306.951
6815,1285.701
6816,1323.795
6817,1301.845
6818,1348.711
6819,1312.099
6820,1371.444
6821,1356.783
6822,1383.140
6823,1429.307
6824,1469.584
6825,1497.424
6826,1524.564
6827,1544.332
6828,1568.506
6829,1568.506
6830,1561.917
6831,1598.529
6832,1608.042
6833,1604.418
6834,1616.114
6835,1643.954
6836,1612.449
6837,1643.213
6838,1589.757
6839,1599.270
6840,1602.194
6841,1591.940
6842,1558.252
6843,1524.564
6844,1502.572
6845,1495.983
6846,1457.888
6847,1428.566
6848,1424.159
6849,1422.718
6850,1380.958
6851,1379.475
6852,1332.609
6853,1357.524
6854,1340.680
6855,1317.206
6856,1306.210
6857,1329.684
6858,1339.198
6859,1321.613
6860,1362.631
6861,1386.806
6862,1391.954
6863,1379.475
6864,1400.726
6865,1424.900
6866,1482.804
6867,1511.344
6868,1485.728
6869,1548.738
6870,1523.822
6871,1569.248
6872,1606.601
6873,1579.502
6874,1588.274
6875,1613.190
6876,1628.593
6877,1630.034
6878,1619.038
6879,1626.369
6880,1658.615
6881,1611.007
6882,1626.369
6883,1593.422
6884,1594.864
6885,1613.931
6886,1590.498
6887,1535.519
6888,1564.100
6889,1511.344
6890,1472.549
6891,1497.424
6892,1459.329
6893,1429.307
6894,1421.976
6895,1391.954
6896,1379.475
6897,1328.943
6898,1307.693
6899,1330.385
6900,1323.795
6901,1263.009
6902,1287.925
6903,1243.941
6904,1266.674
6905,1243.241
6906,1284.259
6907,1246.906
6908,1232.986
6909,1286.442
6910,1236.651
6911,1276.929
6912,1265.933
6913,1249.089
6914,1285.701
6915,1306.951
6916,1261.526
6917,1270.339
6918,1288.666
6919,1302.586
6920,1308.434
6921,1339.198
6922,1293.031
6923,1323.095
6924,1355.300
6925,1370.703
6926,1356.042
6927,1364.114
6928,1365.555
6929,1377.292
6930,1399.984
6931,1419.052
6932,1421.235
6933,1454.964
6934,1469.584
6935,1449.816
6936,1457.147
6937,1484.987
6938,1484.245
6939,1492.317
6940,1534.818
6941,1498.907
6942,1539.925
6943,1546.514
6944,1559.693
6945,1589.016
6946,1613.931
6947,1628.593
6948,1632.958
6949,1668.129
6950,1709.147
6951,1709.147
6952,1712.813
6953,1736.246
6954,1762.644
6955,1731.880
6956,1736.987
6957,1715.036
6958,1693.045
6959,1670.353
6960,1627.851
6961,1593.422
6962,1564.100
6963,1529.670
6964,1489.393
6965,1444.709
6966,1372.886
6967,1320.130
6968,1260.826
6969,1250.571
6970,1183.896
6971,1149.466
6972,1117.961
6973,1062.281
6974,1037.366
6975,970.690
6976,1002.936
6977,965.583
6978,961.177
6979,963.359
6980,972.914
6981,947.998
6982,1013.932
6983,1014.674
6984,1019.039
6985,1054.951
6986,1098.893
6987,1180.972
6988,1189.744
6989,1242.499
6990,1295.255
6991,1352.376
6992,1425.642
6993,1460.071
6994,1524.564
6995,1590.498
6996,1641.030
6997,1640.289
6998,1667.387
6999,1698.893
7000,1743.576
7001,1772.899
7002,1767.751
7003,1773.640
7004,1777.306
7005,1814.659
7006,1773.640
7007,1774.382
7008,1780.230
7009,1733.322
7010,1750.166
7011,1693.045
7012,1715.737
7013,1665.946
7014,1635.182
7015,1624.927
7016,1594.864
7017,1538.484
7018,1470.325
7019,1464.477
7020,1408.798
7021,1372.886
7022,1347.970
7023,1334.050
7024,1303.286
7025,1255.678
7026,1246.165
7027,1205.146
7028,1156.056
7029,1180.972
7030,1119.403
7031,1140.653
7032,1126.733
7033,1138.471
7034,1131.140
7035,1126.733
7036,1123.809
7037,1106.224
7038,1092.304
7039,1063.723
7040,1095.228
7041,1090.863
7042,1105.483
7043,1109.148
7044,1078.384
7045,1089.380
7046,1101.817
7047,1101.117
7048,1117.220
7049,1112.072
7050,1122.327
7051,1159.721
7052,1133.323
7053,1175.824
7054,1217.584
7055,1214.660
7056,1228.580
7057,1287.183
7058,1319.430
7059,1314.282
7060,1381.699
7061,1362.631
7062,1364.855
7063,1403.650
7064,1421.976
7065,1365.555
7066,1378.775
7067,1362.631
7068,1346.528
7069,1297.438
7070,1298.921
7071,1287.183
7072,1268.115
7073,1210.253
7074,1195.592
7075,1194.892
7076,1204.405
7077,1211.736
7078,1220.508
7079,1234.428
7080,1290.849
7081,1342.863
7082,1388.288
7083,1431.490
7084,1450.557
7085,1511.344
7086,1564.100
7087,1603.677
7088,1656.433
7089,1712.071
7090,1755.314
7091,1814.659
7092,1843.240
7093,1827.837
7094,1841.757
7095,1874.745
7096,1854.195
7097,1837.351
7098,1836.651
7099,1841.016
7100,1777.306
7101,1761.903
7102,1712.071
7103,1644.695
7104,1617.597
7105,1542.849
7106,1528.929
7107,1430.048
7108,1390.471
7109,1346.528
7110,1313.541
7111,1267.415
7112,1225.656
7113,1183.154
7114,1146.501
7115,1134.064
7116,1123.068
7117,1154.573
7118,1156.056
7119,1184.637
7120,1195.592
7121,1218.325
7122,1219.066
7123,1247.606
7124,1271.081
7125,1323.795
7126,1315.023
7127,1349.452
7128,1399.284
7129,1416.869
7130,1451.999
7131,1511.344
7132,1501.831
7133,1572.172
7134,1558.993
7135,1607.342
7136,1624.186
7137,1638.106
7138,1646.878
7139,1641.771
7140,1629.293
7141,1654.209
7142,1680.607
7143,1641.030
7144,1619.780
7145,1620.521
7146,1642.513
7147,1587.533
7148,1607.342
7149,1563.358
7150,1522.340
7151,1533.336
7152,1506.237
7153,1487.911
7154,1487.169
7155,1467.401
7156,1435.896
7157,1386.064
7158,1363.372
7159,1345.046
7160,1368.520
7161,1310.617
7162,1343.604
7163,1289.366
7164,1328.202
7165,1281.335
7166,1323.095
7167,1283.518
7168,1274.746
7169,1319.430
7170,1267.415
7171,1315.765
7172,1282.035
7173,1270.339
7174,1316.506
7175,1276.187
7176,1298.921
7177,1315.023
7178,1284.259
7179,1331.867
7180,1288.666
7181,1331.867
7182,1328.943
7183,1296.697
7184,1326.760
7185,1298.921
7186,1304.027
7187,1326.760
7188,1342.863
7189,1356.042
7190,1353.118
7191,1323.095
7192,1305.510
7193,1299.621
7194,1293.773
7195,1294.514
7196,1282.777
7197,1271.781
7198,1274.005
7199,1272.522
7200,1304.027
7201,1263.009
7202,1268.857
7203,1309.875
7204,1337.715
7205,1360.448
7206,1381.699
7207,1362.631
7208,1443.968
7209,1430.048
7210,1482.804
7211,1499.648
7212,1556.028
7213,1545.773
7214,1557.510
7215,1569.948
7216,1589.016
7217,1590.498
7218,1604.418
7219,1569.948
7220,1531.853
7221,1527.488
7222,1517.933
7223,1472.549
7224,1409.539
7225,1372.144
7226,1382.399
7227,1310.617
7228,1309.175
7229,1227.097
7230,1237.352
7231,1186.820
7232,1189.744
7233,1176.565
7234,1142.877
7235,1117.220
7236,1121.627
7237,1119.403
7238,1134.064
7239,1134.064
7240,1146.501
7241,1142.877
7242,1216.842
7243,1200.740
7244,1271.081
7245,1258.602
7246,1297.438
7247,1338.457
7248,1378.034
7249,1438.820
7250,1444.709
7251,1463.736
7252,1526.005
7253,1563.358
7254,1610.266
7255,1594.122
7256,1613.931
7257,1639.547
7258,1653.467
7259,1671.053
7260,1686.455
7261,1709.889
7262,1750.166
7263,1712.813
7264,1731.880
7265,1734.063
7266,1752.390
7267,1710.630
7268,1711.371
7269,1690.862
7270,1722.367
7271,1684.231
7272,1666.687
7273,1644.695
7274,1637.365
7275,1607.342
7276,1569.248
7277,1532.595
7278,1481.321
7279,1493.759
7280,1435.155
7281,1402.950
7282,1397.802
7283,1315.765
7284,1307.693
7285,1244.682
7286,1248.348
7287,1227.838
7288,1192.668
7289,1172.900
7290,1147.243
7291,1117.961
7292,1103.300
7293,1030.776
7294,1040.290
7295,1044.696
7296,1037.366
7297,1000.754
7298,997.788
7299,1013.191
7300,969.248
7301,1002.936
7302,975.096
7303,1002.195
7304,1028.552
7305,986.834
7306,1022.704
7307,1063.023
7308,1063.723
7309,1081.308
7310,1108.407
7311,1125.292
7312,1140.653
7313,1121.627
7314,1199.257
7315,1219.066
7316,1203.664
7317,1262.267
7318,1296.697
7319,1274.005
7320,1336.274
7321,1298.921
7322,1352.376
7323,1306.951
7324,1339.198
7325,1315.023
7326,1309.875
7327,1327.461
7328,1284.259
7329,1300.362
7330,1246.165
7331,1279.853
7332,1224.173
7333,1251.272
7334,1273.263
7335,1235.169
7336,1258.602
7337,1308.434
7338,1290.849
7339,1322.354
7340,1364.855
7341,1443.968
7342,1447.633
7343,1526.005
7344,1572.913
7345,1586.833
7346,1651.285
7347,1689.379
7348,1716.478
7349,1766.310
7350,1807.328
7351,1805.145
7352,1837.351
7353,1820.507
7354,1839.575
7355,1854.195
7356,1819.065
7357,1793.408
7358,1810.993
7359,1752.390
7360,1708.447
7361,1676.942
7362,1619.780
7363,1602.936
7364,1517.933
7365,1520.157
7366,1458.629
7367,1407.315
7368,1351.635
7369,1323.095
7370,1287.925
7371,1220.508
7372,1202.181
7373,1148.725
7374,1169.234
7375,1147.984
7376,1123.068
7377,1138.471
7378,1125.992
7379,1115.737
7380,1106.965
7381,1154.573
7382,1195.592
7383,1219.066
7384,1249.830
7385,1284.259
7386,1319.430
7387,1346.528
7388,1356.042
7389,1380.958
7390,1430.789
7391,1476.915
7392,1465.919
7393,1509.903
7394,1541.408
7395,1561.917
7396,1575.837
7397,1585.350
7398,1616.855
7399,1638.106
7400,1615.373
7401,1635.882
7402,1649.802
7403,1652.767
7404,1618.297
7405,1613.190
7406,1602.936
7407,1590.498
7408,1575.837
7409,1566.282
7410,1569.248
7411,1538.484
7412,1525.264
7413,1485.728
7414,1517.933
7415,1450.557
7416,1476.173
7417,1430.789
7418,1401.467
7419,1393.395
7420,1415.387
7421,1372.886
7422,1356.783
7423,1398.543
7424,1370.703
7425,1362.631
7426,1365.555
7427,1404.391
7428,1426.383
7429,1389.730
7430,1407.315
7431,1459.329
7432,1421.235
7433,1457.147
7434,1441.044
7435,1501.831
7436,1466.660
7437,1493.759
7438,1486.469
7439,1476.173
7440,1504.755
7441,1477.656
7442,1505.496
7443,1512.085
7444,1473.249
7445,1517.233
7446,1486.469
7447,1463.736
7448,1501.089
7449,1469.584
7450,1443.968
7451,1442.485
7452,1459.329
7453,1458.629
7454,1435.896
7455,1426.383
7456,1405.874
7457,1384.623
7458,1353.118
7459,1301.845
7460,1301.845
7461,1299.621
7462,1309.175
7463,1261.526
7464,1275.446
7465,1249.089
7466,1298.179
7467,1301.103
7468,1287.925
7469,1323.095
7470,1317.206
7471,1344.305
7472,1361.890
7473,1381.699
7474,1405.874
7475,1471.067
7476,1435.155
7477,1490.835
7478,1464.477
7479,1496.724
7480,1467.401
7481,1482.804
7482,1428.566
7483,1410.980
7484,1435.896
7485,1424.159
7486,1396.319
7487,1339.939
7488,1337.015
7489,1333.350
7490,1299.621
7491,1295.955
7492,1229.321
7493,1252.754
7494,1241.017
7495,1204.405
7496,1191.226
7497,1156.797
7498,1177.306
7499,1191.226
7500,1143.577
7501,1175.082
7502,1193.409
7503,1154.573
7504,1161.904
7505,1205.846
7506,1230.021
7507,1214.660
7508,1245.424
7509,1287.925
7510,1306.210
7511,1296.697
7512,1378.775
7513,1378.034
7514,1402.208
7515,1441.744
7516,1483.504
7517,1523.081
7518,1562.658
7519,1580.944
7520,1600.753
7521,1676.942
7522,1673.277
7523,1678.383
7524,1699.634
7525,1732.622
7526,1748.724
7527,1772.158
7528,1743.576
7529,1742.876
7530,1725.991
7531,1747.242
7532,1706.965
7533,1669.611
7534,1643.954
7535,1611.708
7536,1584.609
7537,1552.404
7538,1539.925
7539,1519.416
7540,1454.964
7541,1472.549
7542,1434.455
7543,1394.878
7544,1351.635
7545,1332.609
7546,1313.541
7547,1303.286
7548,1231.504
7549,1249.830
7550,1222.732
7551,1166.310
7552,1181.672
7553,1153.832
7554,1149.466
7555,1151.649
7556,1136.988
7557,1115.037
7558,1104.783
7559,1104.041
7560,1063.023
7561,1086.456
7562,1079.125
7563,1069.612
7564,1060.799
7565,1065.205
7566,1065.205
7567,1065.205
7568,1060.058
7569,1063.023
7570,1058.616
7571,1077.643
7572,1085.715
7573,1101.117
7574,1107.707
7575,1126.733
7576,1115.037
7577,1160.421
7578,1175.824
7579,1160.421
7580,1199.998
7581,1217.584
7582,1236.651
7583,1200.740
7584,1211.736
7585,1205.146
7586,1180.230
7587,1219.766
7588,1198.557
7589,1158.239
7590,1175.824
7591,1197.816
7592,1169.234
7593,1150.167
7594,1198.557
7595,1192.668
7596,1168.493
7597,1196.333
7598,1253.495
7599,1289.366
7600,1323.095
7601,1353.118
7602,1364.855
7603,1429.307
7604,1500.348
7605,1537.001
7606,1585.350
7607,1616.855
7608,1651.285
7609,1677.642
7610,1734.804
7611,1789.743
7612,1772.899
7613,1815.400
7614,1818.324
7615,1863.749
7616,1826.396
7617,1822.731
7618,1830.020
7619,1796.332
7620,1794.891
7621,1780.230
7622,1713.554
7623,1686.455
7624,1681.307
7625,1602.194
7626,1605.860
7627,1541.408
7628,1475.473
7629,1451.299
7630,1440.303
7631,1380.216
7632,1340.680
7633,1352.376
7634,1279.853
7635,1298.179
7636,1241.758
7637,1264.450
7638,1222.732
7639,1262.267
7640,1238.093
7641,1234.428
7642,1273.263
7643,1268.857
7644,1277.670
7645,1328.943
7646,1299.621
7647,1318.689
7648,1339.198
7649,1394.878
7650,1414.646
7651,1431.490
7652,1432.972
7653,1429.307
7654,1449.075
7655,1495.241
7656,1473.991
7657,1487.169
7658,1498.907
7659,1559.693
7660,1545.073
7661,1575.837
7662,1555.328
7663,1530.412
7664,1546.514
7665,1554.586
7666,1561.176
7667,1568.506
7668,1564.100
7669,1564.841
7670,1529.670
7671,1554.586
7672,1497.424
7673,1495.983
7674,1495.983
7675,1512.085
7676,1451.299
7677,1458.629
7678,1473.249
7679,1413.904
7680,1417.570
7681,1439.561
7682,1403.650
7683,1383.140
7684,1421.235
7685,1397.060
7686,1380.216
7687,1415.387
7688,1398.543
7689,1379.475
7690,1361.190
7691,1360.448
7692,1391.212
7693,1399.284
7694,1405.132
7695,1410.980
7696,1409.539
7697,1405.132
7698,1384.623
7699,1355.300
7700,1369.962
7701,1404.391
7702,1402.950
7703,1403.650
7704,1376.551
7705,1353.859
7706,1367.779
7707,1409.539
7708,1386.806
7709,1369.220
7710,1379.475
7711,1377.292
7712,1371.444
7713,1369.220
7714,1362.631
7715,1358.225
7716,1365.555
7717,1350.194
7718,1356.783
7719,1349.452
7720,1346.528
7721,1350.935
7722,1364.855
7723,1324.537
7724,1320.871
7725,1332.609
7726,1356.042
7727,1393.395
7728,1369.962
7729,1412.463
7730,1429.307
7731,1416.128
7732,1416.869
7733,1471.808
7734,1490.835
7735,1461.553
7736,1497.424
7737,1502.572
7738,1473.991
7739,1471.808
7740,1481.321
7741,1473.249
7742,1435.155
7743,1408.056
7744,1389.030
7745,1367.779
7746,1345.787
7747,1342.122
7748,1338.457
7749,1329.684
7750,1276.929
7751,1285.001
7752,1287.925
7753,1224.914
7754,1243.241
7755,1240.276
7756,1210.253
7757,1221.990
7758,1186.078
7759,1183.896
7760,1218.325
7761,1177.306
7762,1224.914
7763,1218.325
7764,1204.405
7765,1250.571
7766,1244.682
7767,1232.245
7768,1260.826
7769,1309.175
7770,1322.354
7771,1338.457
7772,1347.970
7773,1377.292
7774,1448.334
7775,1457.147
7776,1457.888
7777,1514.268
7778,1506.979
7779,1539.184
7780,1550.921
7781,1586.092
7782,1610.266
7783,1629.293
7784,1640.289
7785,1681.307
7786,1666.687
7787,1706.223
7788,1680.607
7789,1679.125
7790,1664.463
7791,1694.527
7792,1648.361
7793,1619.038
7794,1600.012
7795,1572.913
7796,1563.358
7797,1569.948
7798,1509.161
7799,1507.679
7800,1462.995
7801,1425.642
7802,1396.319
7803,1375.110
7804,1295.255
7805,1274.746
7806,1272.522
7807,1236.651
7808,1199.257
7809,1153.132
7810,1152.390
7811,1141.395
7812,1123.809
7813,1108.407
7814,1091.563
7815,1043.214
7816,1076.201
7817,1032.218
7818,1021.263
7819,1065.947
7820,1019.780
7821,1065.947
7822,1027.111
7823,1042.472
7824,1082.791
7825,1033.700
7826,1079.867
7827,1072.536
7828,1059.357
7829,1098.893
7830,1110.631
7831,1103.300
7832,1115.037
7833,1128.957
7834,1138.471
7835,1203.664
7836,1209.512
7837,1214.660
7838,1243.941
7839,1285.701
7840,1276.187
7841,1309.875
7842,1332.609
7843,1356.783
7844,1375.110
7845,1342.863
7846,1371.444
7847,1318.689
7848,1326.760
7849,1335.533
7850,1306.210
7851,1279.111
7852,1306.210
7853,1261.526
7854,1290.849
7855,1290.849
7856,1265.191
7857,1287.925
7858,1326.019
7859,1360.448
7860,1368.520
7861,1402.950
7862,1414.646
7863,1495.983
7864,1487.911
7865,1553.845
7866,1605.118
7867,1603.677
7868,1674.718
7869,1685.714
7870,1729.656
7871,1747.242
7872,1795.591
7873,1799.256
7874,1836.651
7875,1810.993
7876,1821.989
7877,1835.909
7878,1824.913
7879,1800.739
7880,1824.913
7881,1765.568
7882,1758.238
7883,1723.808
7884,1730.398
7885,1677.642
7886,1645.437
7887,1635.182
7888,1554.586
7889,1545.073
7890,1479.839
7891,1498.165
7892,1462.253
7893,1438.820
7894,1409.539
7895,1359.707
7896,1348.711
7897,1350.194
7898,1335.533
7899,1278.370
7900,1315.023
7901,1280.594
7902,1265.933
7903,1284.259
7904,1316.506
7905,1307.693
7906,1304.769
7907,1298.921
7908,1328.943
7909,1347.970
7910,1356.042
7911,1363.372
7912,1420.535
7913,1410.239
7914,1397.802
7915,1441.044
7916,1468.884
7917,1438.079
7918,1450.557
7919,1478.397
7920,1475.473
7921,1457.147
7922,1489.393
7923,1458.629
7924,1466.660
7925,1486.469
7926,1469.584
7927,1457.888
7928,1435.896
7929,1464.477
7930,1423.459
7931,1435.896
7932,1459.329
7933,1403.650
7934,1449.816
7935,1406.615
7936,1432.972
7937,1409.539
7938,1382.399
7939,1426.383
7940,1399.984
7941,1410.239
7942,1416.869
7943,1389.030
7944,1438.820
7945,1409.539
7946,1437.379
7947,1476.915
7948,1455.664
7949,1482.063
7950,1484.245
7951,1534.077
7952,1499.648
7953,1540.666
7954,1561.176
7955,1575.837
7956,1561.917
7957,1555.328
7958,1565.582
7959,1602.194
7960,1624.186
7961,1604.418
7962,1604.418
7963,1614.673
7964,1572.913
7965,1618.297
7966,1609.525
7967,1562.658
7968,1567.024
7969,1580.202
7970,1586.833
7971,1572.172
7972,1517.233
7973,1553.845
7974,1497.424
7975,1513.568
7976,1493.759
7977,1459.329
7978,1448.334
7979,1442.485
7980,1424.159
7981,1376.551
7982,1380.958
7983,1369.962
7984,1364.114
7985,1367.038
7986,1359.707
7987,1352.376
7988,1340.680
7989,1326.019
7990,1326.019
7991,1384.623
7992,1352.376
7993,1413.904
7994,1422.718
7995,1427.124
7996,1465.219
7997,1483.504
7998,1506.237
7999,1533.336
8000,1493.059
8001,1505.496
8002,1544.332
8003,1490.093
8004,1509.161
8005,1471.067
8006,1500.348
8007,1432.231
8008,1457.147
8009,1436.637
8010,1384.623
8011,1361.190
8012,1319.430
8013,1323.795
8014,1285.001
8015,1257.161
8016,1216.842
8017,1216.101
8018,1220.508
8019,1197.816
8020,1183.896
8021,1137.729
8022,1127.475
8023,1120.885
8024,1117.961
8025,1112.072
8026,1113.555
8027,1107.707
8028,1106.965
8029,1101.117
8030,1092.304
8031,1156.797
8032,1142.877
8033,1148.725
8034,1185.337
8035,1241.758
8036,1260.085
8037,1256.419
8038,1270.339
8039,1317.947
8040,1326.760
8041,1389.730
8042,1424.900
8043,1435.155
8044,1435.155
8045,1452.740
8046,1494.500
8047,1501.089
8048,1524.564
8049,1521.599
8050,1532.595
8051,1569.948
8052,1542.108
8053,1529.670
8054,1526.746
8055,1566.282
8056,1513.568
8057,1541.408
8058,1507.679
8059,1490.835
8060,1473.249
8061,1498.165
8062,1496.724
8063,1479.839
8064,1473.991
8065,1410.239
8066,1402.950
8067,1387.547
8068,1419.794
8069,1358.225
8070,1358.225
8071,1357.524
8072,1359.707
8073,1309.175
8074,1269.598
8075,1297.438
8076,1266.674
8077,1224.173
8078,1238.834
8079,1196.333
8080,1167.052
8081,1134.064
8082,1125.992
8083,1137.729
8084,1105.483
8085,1065.205
8086,1099.635
8087,1066.688
8088,1026.370
8089,1067.388
8090,1065.205
8091,1023.446
8092,1063.023
8093,1082.791
8094,1077.643
8095,1107.707
8096,1090.121
8097,1117.961
8098,1139.912
8099,1176.565
8100,1252.013
8101,1275.446
8102,1267.415
8103,1347.970
8104,1321.613
8105,1383.882
8106,1412.463
8107,1421.976
8108,1421.976
8109,1431.490
8110,1432.231
8111,1416.128
8112,1413.204
8113,1404.391
8114,1388.288
8115,1393.395
8116,1396.319
8117,1413.904
8118,1417.570
8119,1431.490
8120,1461.553
8121,1482.804
8122,1506.237
8123,1557.510
8124,1597.788
8125,1598.529
8126,1630.034
8127,1647.619
8128,1682.790
8129,1713.554
8130,1760.462
8131,1748.724
8132,1806.587
8133,1780.971
8134,1783.895
8135,1799.998
8136,1815.400
8137,1782.412
8138,1775.082
8139,1778.747
8140,1711.371
8141,1720.143
8142,1678.383
8143,1602.194
8144,1609.525
8145,1531.153
8146,1473.249
8147,1434.455
8148,1392.695
8149,1347.270
8150,1335.533
8151,1312.099
8152,1268.857
8153,1222.732
8154,1191.226
8155,1162.645
8156,1172.158
8157,1181.672
8158,1170.717
8159,1156.056
8160,1158.980
8161,1157.497
8162,1142.136
8163,1208.070
8164,1200.740
8165,1250.571
8166,1257.861
8167,1249.830
8168,1327.461
8169,1320.871
8170,1383.882
8171,1371.444
8172,1388.288
8173,1418.311
8174,1438.820
8175,1467.401
8176,1496.724
8177,1503.313
8178,1531.153
8179,1546.514
8180,1557.510
8181,1543.590
8182,1546.514
8183,1582.426
8184,1546.514
8185,1575.837
8186,1579.502
8187,1564.841
8188,1579.502
8189,1542.849
8190,1547.997
8191,1530.412
8192,1547.997
8193,1509.903
8194,1484.987
8195,1498.165
8196,1501.089
8197,1473.991
8198,1429.307
8199,1422.718
8200,1431.490
8201,1422.718
8202,1430.048
8203,1405.874
8204,1384.623
8205,1417.570
8206,1430.048
8207,1405.132
8208,1397.802
8209,1429.307
8210,1408.798
8211,1383.882
8212,1409.539
8213,1425.642
8214,1382.399
8215,1380.216
8216,1427.124
8217,1378.034
8218,1405.874
8219,1405.874
8220,1423.459
8221,1421.976
8222,1432.231
8223,1450.557
8224,1443.227
8225,1424.900
8226,1434.455
8227,1460.071
8228,1463.736
8229,1510.644
8230,1490.835
8231,1549.438
8232,1507.679
8233,1529.670
8234,1519.416
8235,1533.336
8236,1544.332
8237,1545.773
8238,1501.089
8239,1515.751
8240,1535.519
8241,1545.773
8242,1518.675
8243,1523.822
8244,1523.822
8245,1536.260
8246,1564.100
8247,1604.418
8248,1575.096
8249,1603.677
8250,1639.547
8251,1615.373
8252,1635.182
8253,1646.878
8254,1646.878
8255,1657.874
8256,1680.607
8257,1645.437
8258,1627.851
8259,1653.467
8260,1632.217
8261,1582.426
8262,1555.328
8263,1553.104
8264,1523.822
8265,1490.093
8266,1476.173
8267,1416.869
8268,1380.216
8269,1348.711
8270,1339.198
8271,1258.602
8272,1255.678
8273,1223.432
8274,1205.846
8275,1175.824
8276,1116.479
8277,1082.049
8278,1099.635
8279,1066.688
8280,1085.715
8281,1030.035
8282,1061.540
8283,1053.468
8284,1093.045
8285,1088.639
8286,1112.072
8287,1107.707
8288,1158.239
8289,1183.154
8290,1206.588
8291,1207.329
8292,1280.594
8293,1259.343
8294,1337.015
8295,1346.528
8296,1391.954
8297,1396.319
8298,1405.132
8299,1440.303
8300,1499.648
8301,1497.424
8302,1509.903
8303,1572.913
8304,1600.753
8305,1584.609
8306,1625.628
8307,1636.623
8308,1652.767
8309,1665.946
8310,1704.782
8311,1724.550
8312,1730.398
8313,1728.215
8314,1726.732
8315,1717.960
8316,1707.706
8317,1712.071
8318,1696.710
8319,1700.375
8320,1701.116
8321,1699.634
8322,1637.365
8323,1643.213
8324,1589.757
8325,1562.658
8326,1562.658
8327,1520.157
8328,1490.835
8329,1445.410
8330,1416.869
8331,1377.292
8332,1389.730
8333,1306.951
8334,1311.358
8335,1249.830
8336,1213.177
8337,1180.972
8338,1164.087
8339,1083.532
8340,1090.863
8341,1002.936
8342,1005.860
8343,950.181
8344,906.979
8345,873.250
8346,846.152
8347,837.380
8348,816.870
8349,808.798
8350,792.655
8351,796.320
8352,806.574
8353,835.156
8354,891.577
8355,904.014
8356,931.854
8357,925.265
8358,967.025
8359,1015.374
8360,1016.856
8361,1013.932
8362,1039.548
8363,1044.696
8364,1074.719
8365,1115.037
8366,1127.475
8367,1138.471
8368,1194.892
8369,1210.994
8370,1221.990
8371,1283.518
8372,1331.126
8373,1355.300
8374,1372.886
8375,1441.044
8376,1512.085
8377,1570.689
8378,1603.677
8379,1637.365
8380,1734.063
8381,1736.987
8382,1787.560
8383,1854.936
8384,1895.254
8385,1898.178
8386,1912.098
8387,1934.049
8388,1983.140
8389,1975.809
8390,1941.380
8391,1948.710
8392,1923.094
8393,1900.361
8394,1904.026
8395,1845.423
8396,1827.837
8397,1793.408
8398,1751.648
8399,1659.357
8400,1632.217
8401,1557.510
8402,1510.644
8403,1460.071
8404,1407.315
8405,1383.140
8406,1350.194
8407,1272.522
8408,1227.838
8409,1229.321
8410,1169.976
8411,1164.087
8412,1141.395
8413,1128.957
8414,1135.547
8415,1125.992
8416,1115.737
8417,1127.475
8418,1112.072
8419,1160.421
8420,1186.078
8421,1215.401
8422,1196.333
8423,1216.842
8424,1268.857
8425,1298.179
8426,1313.541
8427,1328.943
8428,1402.208
8429,1387.547
8430,1408.056
8431,1471.067
8432,1495.983
8433,1490.093
8434,1506.237
8435,1509.161
8436,1545.773
8437,1527.488
8438,1529.670
8439,1547.256
8440,1575.837
8441,1583.168
8442,1569.948
8443,1558.252
8444,1562.658
8445,1556.769
8446,1567.024
8447,1564.100
8448,1562.658
8449,1539.925
8450,1498.165
8451,1502.572
8452,1523.081
8453,1460.812
8454,1477.656
8455,1451.999
8456,1440.303
8457,1465.919
8458,1416.128
8459,1452.740
8460,1405.874
8461,1415.387
8462,1438.820
8463,1436.637
8464,1425.642
8465,1479.839
8466,1440.303
8467,1495.983
8468,1456.405
8469,1499.648
8470,1468.143
8471,1484.245
8472,1521.599
8473,1489.393
8474,1506.237
8475,1468.884
8476,1506.237
8477,1492.317
8478,1479.139
8479,1476.173
8480,1468.143
8481,1483.504
8482,1502.572
8483,1485.728
8484,1534.818
8485,1488.652
8486,1494.500
8487,1499.648
8488,1546.514
8489,1525.264
8490,1501.089
8491,1511.344
8492,1534.818
8493,1515.009
8494,1476.173
8495,1449.075
8496,1435.155
8497,1405.874
8498,1392.695
8499,1382.399
8500,1386.064
8501,1383.882
8502,1392.695
8503,1391.212
8504,1380.216
8505,1380.958
8506,1411.722
8507,1422.718
8508,1414.646
8509,1449.075
8510,1438.820
8511,1452.740
8512,1443.968
8513,1498.907
8514,1465.919
8515,1478.397
8516,1447.633
8517,1471.808
8518,1424.900
8519,1408.798
8520,1428.566
8521,1356.783
8522,1371.444
8523,1358.966
8524,1297.438
8525,1268.115
8526,1261.526
8527,1261.526
8528,1238.834
8529,1219.066
8530,1208.070
8531,1143.577
8532,1178.748
8533,1155.314
8534,1150.167
8535,1150.908
8536,1144.319
8537,1174.341
8538,1156.797
8539,1176.565
8540,1203.664
8541,1208.070
8542,1202.922
8543,1252.754
8544,1271.781
8545,1289.366
8546,1309.875
8547,1300.362
8548,1358.966
8549,1361.190
8550,1375.110
8551,1384.623
8552,1440.303
8553,1481.321
8554,1449.816
8555,1472.549
8556,1512.085
8557,1551.662
8558,1520.898
8559,1525.264
8560,1534.818
8561,1542.849
8562,1574.354
8563,1586.833
8564,1582.426
8565,1573.613
8566,1534.077
8567,1514.268
8568,1512.827
8569,1526.005
8570,1456.405
8571,1487.169
8572,1446.892
8573,1412.463
8574,1408.798
8575,1408.798
8576,1371.444
8577,1328.943
8578,1334.791
8579,1320.130
8580,1260.826
8581,1282.035
8582,1221.249
8583,1230.762
8584,1226.356
8585,1171.417
8586,1196.333
8587,1180.972
8588,1132.623
8589,1151.649
8590,1173.641
8591,1137.729
8592,1133.323
8593,1124.551
8594,1120.885
8595,1114.296
8596,1134.805
8597,1164.828
8598,1142.877
8599,1169.976
8600,1159.721
8601,1205.146
8602,1169.976
8603,1210.994
8604,1179.489
8605,1210.994
8606,1239.575
8607,1205.846
8608,1240.276
8609,1268.115
8610,1234.428
8611,1232.245
8612,1282.777
8613,1302.586
8614,1293.031
8615,1286.442
8616,1335.533
8617,1325.278
8618,1312.099
8619,1326.019
8620,1365.555
8621,1350.194
8622,1323.095
8623,1331.867
8624,1315.765
8625,1349.452
8626,1339.198
8627,1324.537
8628,1310.617
8629,1254.196
8630,1232.245
8631,1248.348
8632,1246.165
8633,1253.495
8634,1249.089
8635,1252.754
8636,1256.419
8637,1271.781
8638,1276.929
8639,1271.081
8640,1307.693
8641,1360.448
8642,1376.551
8643,1449.075
8644,1485.728
8645,1510.644
8646,1534.077
8647,1567.024
8648,1637.365
8649,1624.927
8650,1693.045
8651,1679.125
8652,1736.246
