'sample interval','wrist_ppg'
'0.00390625 sec','mV'
0,1305.488
1,1325.990
2,1309.878
3,1295.982
4,1342.870
5,1312.095
6,1328.207
7,1346.536
8,1369.213
9,1399.263
10,1439.544
11,1457.873
12,1466.654
13,1479.868
14,1504.761
15,1550.925
16,1521.598
17,1545.809
18,1558.256
19,1578.034
20,1550.925
21,1573.644
22,1589.032
23,1575.818
24,1564.820
25,1589.032
26,1572.877
27,1556.764
28,1583.874
29,1589.032
30,1577.310
31,1564.820
32,1560.430
33,1572.877
34,1536.261
35,1562.647
36,1539.927
37,1560.430
38,1556.040
39,1553.098
40,1559.705
41,1590.481
42,1601.478
43,1594.871
44,1620.532
45,1595.596
46,1625.647
47,1630.762
48,1635.152
49,1649.815
50,1643.208
51,1632.254
52,1638.818
53,1654.930
54,1689.372
55,1686.431
56,1712.091
57,1725.262
58,1745.808
59,1764.094
60,1743.591
61,1781.698
62,1786.089
63,1821.255
64,1832.252
65,1882.039
66,1892.311
67,1895.977
68,1946.531
69,1963.368
70,2004.416
71,2016.863
72,2024.919
73,2073.256
74,2098.192
75,2093.034
76,2136.981
77,2132.591
78,2161.917
79,2176.580
80,2182.420
81,2187.535
82,2192.692
83,2191.925
84,2205.864
85,2208.805
86,2186.810
87,2206.588
88,2205.139
89,2198.532
90,2192.692
91,2190.476
92,2165.583
93,2181.695
94,2158.251
95,2164.091
96,2162.641
97,2161.192
98,2144.312
99,2122.360
100,2093.034
101,2100.366
102,2082.804
103,2057.868
104,2019.804
105,1999.983
106,1973.640
107,1963.368
108,1911.365
109,1864.477
110,1828.586
111,1794.870
112,1726.754
113,1671.810
114,1648.366
115,1565.588
116,1535.537
117,1446.876
118,1374.370
119,1301.097
120,1224.158
121,1195.599
122,1081.321
123,1048.371
124,956.769
125,887.162
126,809.541
127,757.496
128,668.153
129,619.773
130,547.267
131,453.491
132,446.160
133,368.496
134,309.162
135,286.443
136,258.608
137,230.774
138,206.605
139,183.161
140,153.110
141,180.220
142,142.838
143,190.493
144,195.608
145,220.501
146,227.833
147,269.606
148,252.001
149,285.718
150,325.274
151,373.611
152,422.716
153,479.834
154,527.489
155,562.655
156,591.214
157,613.209
158,665.212
159,741.383
160,754.597
161,821.988
162,855.662
163,896.710
164,927.486
165,927.486
166,997.818
167,992.660
168,1038.099
169,1070.323
170,1107.706
171,1129.658
172,1147.987
173,1156.768
174,1166.316
175,1188.992
176,1203.656
177,1197.091
178,1186.819
179,1194.875
180,1224.926
181,1249.094
182,1250.543
183,1234.431
184,1232.257
185,1246.153
186,1301.097
187,1273.987
188,1328.932
189,1318.701
190,1353.867
191,1389.758
192,1424.199
193,1442.486
194,1462.988
195,1506.978
196,1497.430
197,1551.649
198,1563.371
199,1612.476
200,1641.035
201,1650.540
202,1687.198
203,1743.591
204,1773.642
205,1779.482
206,1808.808
207,1835.151
208,1861.536
209,1856.421
210,1869.592
211,1881.314
212,1917.972
213,1893.760
214,1928.926
215,1912.814
216,1906.250
217,1911.365
218,1913.539
219,1927.477
220,1936.983
221,1936.258
222,1907.699
223,1934.809
224,1894.528
225,1909.873
226,1895.977
227,1904.758
228,1868.143
229,1869.592
230,1860.811
231,1863.028
232,1829.311
233,1851.306
234,1828.586
235,1802.201
236,1788.263
237,1775.816
238,1761.920
239,1787.538
240,1741.375
241,1721.597
242,1710.642
243,1699.645
244,1706.251
245,1676.925
246,1649.815
247,1613.200
248,1592.697
249,1567.762
250,1538.478
251,1509.152
252,1450.542
253,1430.039
254,1375.819
255,1363.373
256,1321.600
257,1271.814
258,1213.204
259,1136.989
260,1138.481
261,1067.382
262,1014.655
263,1002.208
264,988.994
265,959.710
266,934.817
267,898.884
268,857.154
269,884.988
270,835.159
271,874.715
272,830.769
273,873.266
274,878.381
275,861.544
276,877.657
277,884.988
278,904.766
279,949.438
280,965.550
281,980.213
282,1013.930
283,1053.486
284,1101.099
285,1095.984
286,1152.377
287,1168.490
288,1175.821
289,1245.428
290,1242.487
291,1271.814
292,1317.210
293,1312.095
294,1326.758
295,1340.654
296,1364.822
297,1380.210
298,1405.146
299,1413.927
300,1461.539
301,1483.534
302,1463.756
303,1518.700
304,1493.764
305,1534.812
306,1530.422
307,1534.088
308,1580.208
309,1588.264
310,1578.759
311,1578.034
312,1605.144
313,1610.259
314,1644.700
315,1611.708
316,1632.254
317,1642.484
318,1646.874
319,1678.374
320,1657.147
321,1667.420
322,1679.142
323,1687.198
324,1690.096
325,1682.807
326,1713.540
327,1680.591
328,1693.762
329,1680.591
330,1720.147
331,1686.431
332,1723.088
333,1696.703
334,1724.538
335,1729.653
336,1724.538
337,1763.369
338,1750.923
339,1775.091
340,1818.314
341,1812.474
342,1827.862
343,1846.873
344,1883.530
345,1909.148
346,1895.252
347,1945.039
348,1930.418
349,1968.483
350,1976.582
351,1990.477
352,1991.927
353,1999.983
354,2014.646
355,2028.585
356,2026.368
357,2013.921
358,2016.138
359,2007.315
360,2008.082
361,2012.472
362,2013.197
363,1988.261
364,2012.472
365,1979.480
366,1999.983
367,1969.250
368,1955.312
369,1983.146
370,1943.590
371,1939.199
372,1939.199
373,1923.811
374,1899.643
375,1910.640
376,1893.760
377,1890.095
378,1857.145
379,1846.148
380,1847.640
381,1829.311
382,1815.372
383,1793.420
384,1802.926
385,1797.811
386,1786.813
387,1777.308
388,1770.701
389,1762.645
390,1761.920
391,1775.091
392,1764.819
393,1766.311
394,1780.974
395,1810.257
396,1793.420
397,1783.872
398,1802.926
399,1808.808
400,1816.140
401,1813.199
402,1814.648
403,1824.196
404,1827.094
405,1853.480
406,1847.640
407,1870.317
408,1876.199
409,1860.086
410,1899.643
411,1879.140
412,1887.921
413,1884.255
414,1889.370
415,1871.084
416,1890.095
417,1868.867
418,1847.640
419,1820.530
420,1800.752
421,1780.974
422,1749.474
423,1717.206
424,1711.366
425,1640.310
426,1607.318
427,1550.925
428,1512.093
429,1476.202
430,1384.600
431,1317.934
432,1255.701
433,1213.204
434,1168.490
435,1074.714
436,1011.713
437,961.160
438,915.039
439,819.047
440,782.432
441,749.439
442,696.712
443,610.268
444,605.110
445,576.551
446,549.441
447,502.553
448,489.382
449,446.885
450,452.000
451,435.887
452,411.719
453,409.545
454,356.774
455,353.109
456,372.162
457,355.325
458,324.550
459,352.384
460,308.437
461,353.109
462,329.665
463,323.825
464,367.772
465,367.772
466,393.390
467,403.662
468,424.890
469,410.269
470,484.992
471,480.601
472,506.944
473,542.877
474,627.829
475,644.709
476,683.498
477,707.709
478,790.488
479,816.830
480,857.878
481,868.876
482,912.823
483,965.550
484,994.876
485,1004.382
486,1077.655
487,1065.933
488,1130.425
489,1132.599
490,1128.209
491,1147.262
492,1168.490
493,1177.270
494,1216.102
495,1244.704
496,1241.763
497,1229.316
498,1275.479
499,1273.987
500,1287.926
501,1312.095
502,1365.589
503,1373.646
504,1397.090
505,1424.199
506,1484.258
507,1482.042
508,1498.154
509,1563.371
510,1561.155
511,1589.032
512,1582.425
513,1605.144
514,1649.815
515,1620.532
516,1636.644
517,1650.540
518,1657.872
519,1653.481
520,1638.818
521,1651.265
522,1643.976
523,1654.930
524,1679.142
525,1687.198
526,1699.645
527,1717.931
528,1758.254
529,1740.650
530,1797.086
531,1781.698
532,1804.418
533,1805.867
534,1845.423
535,1815.372
536,1846.148
537,1803.650
538,1799.260
539,1799.985
540,1763.369
541,1742.142
542,1695.979
543,1654.930
544,1616.866
545,1594.147
546,1531.871
547,1498.154
548,1482.767
549,1417.592
550,1390.483
551,1393.424
552,1345.811
553,1342.870
554,1288.651
555,1310.645
556,1257.150
557,1233.706
558,1254.209
559,1216.102
560,1174.372
561,1167.040
562,1169.214
563,1108.430
564,1098.158
565,1052.762
566,1057.152
567,1002.208
568,1027.101
569,999.991
570,971.432
571,947.989
572,934.050
573,914.272
574,913.547
575,899.651
576,858.603
577,882.772
578,893.044
579,863.718
580,846.881
581,882.772
582,882.772
583,893.044
584,894.494
585,911.373
586,923.095
587,939.932
588,954.595
589,975.823
590,1000.716
591,1023.435
592,1028.593
593,1036.649
594,1049.821
595,1093.043
596,1118.703
597,1114.270
598,1159.709
599,1176.546
600,1197.816
601,1213.204
602,1235.880
603,1235.880
604,1268.872
605,1274.712
606,1278.378
607,1278.378
608,1278.378
609,1278.378
610,1317.934
611,1318.701
612,1296.707
613,1330.423
614,1336.988
615,1318.701
616,1329.656
617,1335.538
618,1345.044
619,1378.761
620,1353.867
621,1352.376
622,1356.041
623,1396.322
624,1404.378
625,1386.092
626,1402.929
627,1414.651
628,1432.980
629,1461.539
630,1502.587
631,1485.708
632,1528.930
633,1545.042
634,1587.540
635,1582.425
636,1595.596
637,1646.874
638,1632.254
639,1675.476
640,1696.703
641,1690.096
642,1690.096
643,1701.818
644,1709.875
645,1742.867
646,1704.760
647,1720.147
648,1726.030
649,1693.038
650,1693.038
651,1672.535
652,1657.147
653,1643.976
654,1639.543
655,1583.874
656,1573.644
657,1561.922
658,1532.596
659,1515.759
660,1492.315
661,1487.200
662,1468.871
663,1441.761
664,1415.376
665,1403.654
666,1359.707
667,1331.148
668,1335.538
669,1283.536
670,1284.985
671,1227.100
672,1223.434
673,1215.378
674,1199.990
675,1147.987
676,1128.209
677,1139.931
678,1151.653
679,1122.326
680,1123.094
681,1130.425
682,1106.981
683,1146.538
684,1117.936
685,1153.869
686,1112.821
687,1152.377
688,1153.102
689,1130.425
690,1172.155
691,1192.658
692,1188.992
693,1218.319
694,1217.594
695,1241.038
696,1243.212
697,1230.041
698,1266.656
699,1277.653
700,1291.592
701,1301.097
702,1300.373
703,1341.378
704,1317.934
705,1340.654
706,1372.878
707,1369.980
708,1347.260
709,1364.822
710,1404.378
711,1375.095
712,1383.876
713,1392.656
714,1391.207
715,1404.378
716,1417.592
717,1419.766
718,1438.820
719,1475.478
720,1457.149
721,1471.812
722,1475.478
723,1487.924
724,1498.922
725,1507.702
726,1511.368
727,1542.144
728,1551.649
729,1571.427
730,1563.371
731,1574.369
732,1548.708
733,1539.927
734,1542.144
735,1553.098
736,1577.310
737,1548.708
738,1543.593
739,1562.647
740,1520.149
741,1547.983
742,1503.312
743,1483.534
744,1479.143
745,1456.424
746,1448.368
747,1462.988
748,1441.036
749,1385.368
750,1369.213
751,1376.544
752,1325.990
753,1324.541
754,1312.819
755,1292.316
756,1248.370
757,1232.257
758,1217.594
759,1210.262
760,1159.709
761,1144.321
762,1133.324
763,1115.762
764,1135.540
765,1094.492
766,1087.928
767,1090.102
768,1093.043
769,1090.102
770,1087.160
771,1104.040
772,1068.149
773,1113.545
774,1082.770
775,1124.543
776,1087.928
777,1109.155
778,1145.046
779,1137.714
780,1128.933
781,1121.602
782,1160.433
783,1128.209
784,1173.647
785,1142.147
786,1191.209
787,1164.099
788,1205.147
789,1214.653
790,1220.535
791,1235.156
792,1244.704
793,1257.150
794,1238.821
795,1260.816
796,1288.651
797,1274.712
798,1281.319
799,1318.701
800,1343.595
801,1320.875
802,1351.651
803,1391.207
804,1416.868
805,1414.651
806,1482.767
807,1480.593
808,1506.211
809,1540.652
810,1575.818
811,1610.984
812,1659.364
813,1709.875
814,1742.867
815,1753.097
816,1818.314
817,1816.140
818,1873.982
819,1890.095
820,1889.370
821,1909.873
822,1945.806
823,1953.862
824,1953.138
825,1962.643
826,1978.031
827,1983.871
828,1979.480
829,1969.250
830,1961.194
831,1957.528
832,1950.197
833,1959.702
834,1940.648
835,1945.039
836,1969.975
837,1956.036
838,1942.865
839,1954.587
840,1941.416
841,1939.199
842,1956.036
843,1961.194
844,1943.590
845,1931.143
846,1928.926
847,1906.974
848,1901.817
849,1895.977
850,1868.867
851,1850.538
852,1821.255
853,1827.862
854,1812.474
855,1799.985
856,1791.928
857,1788.263
858,1786.089
859,1778.033
860,1758.979
861,1772.150
862,1764.819
863,1739.925
864,1731.869
865,1716.482
866,1698.153
867,1684.257
868,1669.594
869,1649.091
870,1644.700
871,1652.032
872,1621.256
873,1647.642
874,1619.765
875,1643.208
876,1679.142
877,1681.316
878,1689.372
879,1722.364
880,1748.706
881,1783.148
882,1811.707
883,1851.306
884,1908.424
885,1934.809
886,1949.472
887,1975.090
888,2025.643
889,2046.146
890,2059.360
891,2097.425
892,2115.029
893,2120.869
894,2117.970
895,2139.197
896,2139.922
897,2134.807
898,2126.751
899,2117.203
900,2086.470
901,2064.475
902,2020.528
903,2002.924
904,1983.146
905,1956.036
906,1913.539
907,1901.092
908,1866.651
909,1819.038
910,1805.867
911,1766.311
912,1736.260
913,1695.979
914,1658.596
915,1629.313
916,1641.035
917,1591.930
918,1612.476
919,1561.922
920,1598.537
921,1554.590
922,1587.540
923,1558.981
924,1588.264
925,1592.697
926,1642.484
927,1641.035
928,1643.976
929,1670.318
930,1693.038
931,1713.540
932,1719.423
933,1731.869
934,1752.372
935,1759.704
936,1772.918
937,1779.482
938,1808.808
939,1818.314
940,1796.361
941,1805.867
942,1817.589
943,1834.426
944,1838.092
945,1817.589
946,1852.030
947,1812.474
948,1838.816
949,1819.763
950,1815.372
951,1796.361
952,1784.640
953,1743.591
954,1711.366
955,1704.760
956,1678.374
957,1665.203
958,1657.872
959,1665.928
960,1680.591
961,1652.032
962,1642.484
963,1648.366
964,1655.698
965,1668.869
966,1681.316
967,1698.920
968,1705.484
969,1723.813
970,1745.808
971,1764.819
972,1755.313
973,1767.760
974,1788.263
975,1783.148
976,1797.811
977,1791.204
978,1769.976
979,1750.923
980,1706.251
981,1676.201
982,1687.198
983,1618.315
984,1598.537
985,1589.032
986,1522.366
987,1493.764
988,1470.320
989,1454.932
990,1446.151
991,1444.702
992,1411.710
993,1395.598
994,1410.985
995,1424.199
996,1402.929
997,1402.929
998,1408.044
999,1433.705
1000,1443.977
1001,1416.100
1002,1449.817
1003,1430.039
1004,1444.702
1005,1478.376
1006,1442.486
1007,1462.988
1008,1485.708
1009,1461.539
1010,1471.045
1011,1495.256
1012,1452.034
1013,1457.873
1014,1487.924
1015,1445.427
1016,1442.486
1017,1469.595
1018,1426.373
1019,1413.202
1020,1424.199
1021,1378.036
1022,1384.600
1023,1349.434
1024,1336.263
1025,1342.145
1026,1293.041
1027,1273.987
1028,1231.490
1029,1231.490
1030,1182.428
1031,1193.425
1032,1143.596
1033,1125.267
1034,1125.267
1035,1063.759
1036,1062.992
1037,1020.494
1038,996.326
1039,972.882
1040,889.379
1041,889.379
1042,853.488
1043,813.207
1044,778.041
1045,732.602
1046,650.549
1047,645.434
1048,597.821
1049,566.321
1050,490.107
1051,446.885
1052,401.446
1053,400.721
1054,336.996
1055,333.330
1056,300.381
1057,238.105
1058,196.333
1059,205.881
1060,158.225
1061,175.830
1062,118.669
1063,138.447
1064,98.891
1065,109.164
1066,79.837
1067,99.616
1068,114.279
1069,140.664
1070,108.439
1071,144.330
1072,168.498
1073,185.335
1074,242.496
1075,271.055
1076,255.667
1077,319.435
1078,357.499
1079,345.052
1080,422.716
1081,431.497
1082,478.385
1083,512.826
1084,530.388
1085,553.107
1086,562.655
1087,610.992
1088,639.551
1089,675.442
1090,698.161
1091,721.605
1092,739.209
1093,726.720
1094,786.097
1095,791.937
1096,807.325
1097,840.274
1098,870.325
1099,876.207
1100,900.376
1101,906.216
1102,909.157
1103,945.772
1104,944.323
1105,994.152
1106,981.705
1107,1032.216
1108,1012.438
1109,1038.823
1110,1067.382
1111,1086.436
1112,1098.158
1113,1114.270
1114,1136.265
1115,1120.152
1116,1135.540
1117,1183.877
1118,1175.097
1119,1167.765
1120,1214.653
1121,1193.425
1122,1234.431
1123,1232.982
1124,1261.541
1125,1241.038
1126,1282.768
1127,1309.153
1128,1318.701
1129,1312.095
1130,1308.429
1131,1322.367
1132,1364.097
1133,1357.491
1134,1375.819
1135,1393.424
1136,1435.921
1137,1463.756
1138,1503.312
1139,1502.587
1140,1558.981
1141,1547.259
1142,1603.652
1143,1604.419
1144,1633.703
1145,1662.262
1146,1679.142
1147,1701.094
1148,1691.588
1149,1684.981
1150,1672.535
1151,1674.709
1152,1671.810
1153,1664.479
1154,1661.537
1155,1649.815
1156,1618.315
1157,1597.812
1158,1621.256
1159,1580.975
1160,1557.531
1161,1550.200
1162,1523.090
1163,1539.927
1164,1518.700
1165,1514.309
1166,1485.708
1167,1488.649
1168,1513.542
1169,1538.478
1170,1522.366
1171,1528.205
1172,1578.034
1173,1553.866
1174,1575.093
1175,1577.310
1176,1596.321
1177,1605.144
1178,1620.532
1179,1622.706
1180,1619.765
1181,1608.810
1182,1593.422
1183,1613.925
1184,1589.032
1185,1599.262
1186,1575.818
1187,1553.098
1188,1576.542
1189,1550.200
1190,1509.876
1191,1490.098
1192,1461.539
1193,1444.702
1194,1417.592
1195,1387.541
1196,1341.378
1197,1328.207
1198,1270.322
1199,1271.046
1200,1214.653
1201,1160.433
1202,1139.206
1203,1108.430
1204,1076.930
1205,1070.323
1206,1013.205
1207,1020.494
1208,978.039
1209,1002.933
1210,958.986
1211,972.882
1212,994.152
1213,994.152
1214,988.269
1215,990.486
1216,1016.104
1217,1006.598
1218,1055.660
1219,1050.545
1220,1081.321
1221,1071.048
1222,1082.770
1223,1100.374
1224,1133.324
1225,1158.260
1226,1162.650
1227,1160.433
1228,1219.768
1229,1203.656
1230,1250.543
1231,1235.880
1232,1276.929
1233,1279.102
1234,1294.490
1235,1296.707
1236,1330.423
1237,1361.924
1238,1345.044
1239,1377.311
1240,1394.148
1241,1413.927
1242,1479.143
1243,1493.039
1244,1503.312
1245,1560.430
1246,1556.040
1247,1594.147
1248,1623.430
1249,1666.652
1250,1686.431
1251,1706.251
1252,1720.872
1253,1741.375
1254,1767.035
1255,1792.696
1256,1827.094
1257,1856.421
1258,1871.084
1259,1857.870
1260,1903.309
1261,1890.862
1262,1931.868
1263,1923.087
1264,1945.806
1265,1943.590
1266,1964.092
1267,1953.862
1268,1978.756
1269,1983.146
1270,1986.087
1271,1961.918
1272,1987.536
1273,1969.250
1274,1947.980
1275,1936.983
1276,1925.261
1277,1904.758
1278,1870.317
1279,1835.918
1280,1782.423
1281,1756.038
1282,1739.201
1283,1661.537
1284,1647.642
1285,1584.599
1286,1529.654
1287,1484.983
1288,1452.034
1289,1413.202
1290,1383.151
1291,1380.935
1292,1321.600
1293,1308.429
1294,1323.817
1295,1276.204
1296,1306.212
1297,1272.538
1298,1273.263
1299,1304.038
1300,1324.541
1301,1301.822
1302,1304.763
1303,1339.929
1304,1309.878
1305,1298.156
1306,1320.875
1307,1326.758
1308,1334.814
1309,1304.763
1310,1294.490
1311,1299.648
1312,1301.097
1313,1333.322
1314,1356.766
1315,1331.873
1316,1366.314
1317,1392.656
1318,1410.985
1319,1427.098
1320,1433.705
1321,1430.764
1322,1457.873
1323,1481.317
1324,1526.756
1325,1565.588
1326,1586.815
1327,1591.206
1328,1612.476
1329,1664.479
1330,1660.088
1331,1663.754
1332,1702.586
1333,1711.366
1334,1715.032
1335,1684.257
1336,1703.310
1337,1709.150
1338,1665.928
1339,1640.310
1340,1657.147
1341,1596.321
1342,1581.700
1343,1529.654
1344,1500.371
1345,1455.699
1346,1426.373
1347,1412.477
1348,1365.589
1349,1307.704
1350,1279.102
1351,1193.425
1352,1174.372
1353,1101.824
1354,1090.826
1355,1027.101
1356,987.545
1357,945.772
1358,917.938
1359,905.491
1360,864.485
1361,858.603
1362,824.929
1363,791.937
1364,808.774
1365,771.434
1366,787.547
1367,747.990
1368,745.049
1369,787.547
1370,783.156
1371,769.218
1372,799.993
1373,819.771
1374,831.493
1375,819.047
1376,878.381
1377,898.159
1378,907.708
1379,913.547
1380,911.373
1381,974.374
1382,978.039
1383,973.649
1384,1015.379
1385,1013.930
1386,1070.323
1387,1046.155
1388,1088.652
1389,1112.096
1390,1122.326
1391,1125.267
1392,1180.212
1393,1181.703
1394,1175.821
1395,1194.150
1396,1216.869
1397,1244.704
1398,1268.872
1399,1292.316
1400,1319.426
1401,1383.151
1402,1385.368
1403,1408.044
1404,1466.654
1405,1463.756
1406,1514.309
1407,1532.596
1408,1597.088
1409,1589.756
1410,1625.647
1411,1663.754
1412,1685.706
1413,1717.206
1414,1757.530
1415,1803.650
1416,1819.038
1417,1840.308
1418,1873.982
1419,1871.084
1420,1892.311
1421,1905.482
1422,1939.924
1423,1955.312
1424,1977.306
1425,1958.977
1426,1989.028
1427,1988.261
1428,2010.256
1429,2032.975
1430,2041.756
1431,2059.360
1432,2074.748
1433,2073.256
1434,2076.922
1435,2105.481
1436,2117.970
1437,2106.973
1438,2130.417
1439,2123.085
1440,2107.697
1441,2084.978
1442,2067.416
1443,2043.248
1444,2024.194
1445,2001.475
1446,1986.087
1447,1926.753
1448,1910.640
1449,1849.089
1450,1805.867
1451,1765.586
1452,1730.420
1453,1686.431
1454,1667.420
1455,1601.478
1456,1558.981
1457,1513.542
1458,1473.261
1459,1424.199
1460,1377.311
1461,1363.373
1462,1296.707
1463,1266.656
1464,1191.209
1465,1120.152
1466,1103.315
1467,1029.318
1468,1005.149
1469,939.208
1470,901.101
1471,861.544
1472,793.429
1473,780.215
1474,758.988
1475,728.937
1476,725.996
1477,715.765
1478,711.375
1479,710.608
1480,668.878
1481,724.546
1482,731.878
1483,713.549
1484,764.103
1485,788.271
1486,824.162
1487,845.432
1488,859.328
1489,866.659
1490,882.772
1491,927.486
1492,917.938
1493,939.208
1494,984.604
1495,1011.713
1496,1024.927
1497,1040.315
1498,1054.936
1499,1068.874
1500,1080.596
1501,1090.826
1502,1090.102
1503,1068.874
1504,1115.762
1505,1123.818
1506,1091.593
1507,1136.989
1508,1115.037
1509,1150.203
1510,1158.260
1511,1188.992
1512,1172.880
1513,1204.380
1514,1233.706
1515,1254.209
1516,1278.378
1517,1308.429
1518,1344.319
1519,1364.097
1520,1395.598
1521,1389.758
1522,1434.429
1523,1444.702
1524,1499.646
1525,1493.764
1526,1538.478
1527,1592.697
1528,1614.649
1529,1610.259
1530,1638.818
1531,1676.201
1532,1696.703
1533,1751.647
1534,1755.313
1535,1794.145
1536,1824.921
1537,1822.704
1538,1846.148
1539,1885.704
1540,1904.033
1541,1901.092
1542,1920.870
1543,1928.926
1544,1916.480
1545,1904.758
1546,1889.370
1547,1900.367
1548,1879.865
1549,1890.095
1550,1882.039
1551,1868.143
1552,1860.811
1553,1850.538
1554,1874.750
1555,1861.536
1556,1838.092
1557,1862.260
1558,1840.308
1559,1843.974
1560,1858.595
1561,1841.033
1562,1871.084
1563,1867.418
1564,1868.867
1565,1881.314
1566,1900.367
1567,1918.696
1568,1947.980
1569,1931.868
1570,1946.531
1571,1973.640
1572,1966.309
1573,1971.424
1574,1971.424
1575,1978.756
1576,1958.977
1577,1960.427
1578,1972.149
1579,1964.092
1580,1949.472
1581,1947.980
1582,1926.028
1583,1918.696
1584,1900.367
1585,1873.982
1586,1852.030
1587,1824.921
1588,1835.151
1589,1771.426
1590,1750.923
1591,1726.754
1592,1687.923
1593,1660.813
1594,1632.254
1595,1588.264
1596,1578.759
1597,1542.144
1598,1538.478
1599,1489.373
1600,1514.309
1601,1458.598
1602,1442.486
1603,1442.486
1604,1471.812
1605,1471.045
1606,1441.036
1607,1446.151
1608,1482.042
1609,1472.536
1610,1525.264
1611,1515.034
1612,1558.256
1613,1552.374
1614,1577.310
1615,1617.591
1616,1626.371
1617,1616.866
1618,1639.543
1619,1657.147
1620,1664.479
1621,1646.150
1622,1669.594
1623,1663.754
1624,1637.369
1625,1619.765
1626,1599.986
1627,1574.369
1628,1564.096
1629,1526.031
1630,1494.489
1631,1437.371
1632,1384.600
1633,1347.260
1634,1312.819
1635,1235.880
1636,1171.431
1637,1101.099
1638,1066.658
1639,989.761
1640,925.994
1641,894.494
1642,848.373
1643,799.269
1644,747.990
1645,702.552
1646,667.386
1647,613.209
1648,577.276
1649,558.222
1650,528.938
1651,495.989
1652,465.213
1653,419.050
1654,441.045
1655,402.938
1656,383.160
1657,399.997
1658,378.002
1659,419.775
1660,386.825
1661,435.887
1662,406.604
1663,421.267
1664,455.665
1665,500.379
1666,477.660
1667,543.602
1668,530.388
1669,581.666
1670,624.163
1671,658.605
1672,651.273
1673,724.546
1674,760.437
1675,782.432
1676,789.763
1677,811.715
1678,850.547
1679,909.157
1680,916.488
1681,946.539
1682,995.601
1683,989.761
1684,1013.205
1685,1062.992
1686,1079.871
1687,1073.989
1688,1075.481
1689,1135.540
1690,1124.543
1691,1158.984
1692,1143.596
1693,1182.428
1694,1210.987
1695,1229.316
1696,1211.712
1697,1235.880
1698,1268.872
1699,1297.431
1700,1293.766
1701,1358.258
1702,1353.100
1703,1364.822
1704,1399.263
1705,1427.098
1706,1466.654
1707,1506.211
1708,1528.930
1709,1511.368
1710,1547.259
1711,1558.981
1712,1577.310
1713,1608.043
1714,1630.037
1715,1648.366
1716,1647.642
1717,1655.698
1718,1690.864
1719,1693.038
1720,1692.313
1721,1672.535
1722,1672.535
1723,1657.147
1724,1632.254
1725,1621.256
1726,1639.543
1727,1594.147
1728,1569.253
1729,1550.200
1730,1520.149
1731,1520.874
1732,1473.986
1733,1466.654
1734,1408.812
1735,1414.651
1736,1354.592
1737,1350.202
1738,1339.929
1739,1315.036
1740,1262.265
1741,1217.594
1742,1200.714
1743,1205.872
1744,1158.260
1745,1115.762
1746,1103.315
1747,1118.703
1748,1093.767
1749,1076.206
1750,1089.377
1751,1070.323
1752,1070.323
1753,1060.818
1754,1070.323
1755,1076.206
1756,1083.537
1757,1087.928
1758,1085.711
1759,1112.096
1760,1125.267
1761,1108.430
1762,1152.377
1763,1131.150
1764,1172.155
1765,1151.653
1766,1195.599
1767,1214.653
1768,1188.268
1769,1204.380
1770,1226.375
1771,1247.602
1772,1271.814
1773,1286.434
1774,1309.878
1775,1345.811
1776,1336.263
1777,1378.036
1778,1390.483
1779,1403.654
1780,1416.100
1781,1412.477
1782,1460.090
1783,1479.143
1784,1475.478
1785,1485.708
1786,1524.539
1787,1517.208
1788,1574.369
1789,1570.703
1790,1588.264
1791,1631.487
1792,1654.930
1793,1671.810
1794,1679.142
1795,1693.038
1796,1673.259
1797,1661.537
1798,1656.422
1799,1638.093
1800,1633.703
1801,1628.588
1802,1599.986
1803,1569.253
1804,1534.088
1805,1517.208
1806,1481.317
1807,1442.486
1808,1422.707
1809,1399.988
1810,1397.090
1811,1389.033
1812,1335.538
1813,1329.656
1814,1315.760
1815,1296.707
1816,1279.870
1817,1258.600
1818,1227.100
1819,1204.380
1820,1186.819
1821,1119.428
1822,1107.706
1823,1112.821
1824,1041.764
1825,1063.759
1826,1022.711
1827,982.430
1828,955.320
1829,934.050
1830,956.769
1831,918.662
1832,946.539
1833,919.430
1834,953.828
1835,962.652
1836,955.320
1837,1004.382
1838,1005.149
1839,1069.599
1840,1112.821
1841,1156.768
1842,1167.765
1843,1265.207
1844,1287.926
1845,1347.985
1846,1417.592
1847,1471.812
1848,1509.876
1849,1583.874
1850,1598.537
1851,1664.479
1852,1682.040
1853,1690.864
1854,1695.254
1855,1701.818
1856,1713.540
1857,1711.366
1858,1695.254
1859,1680.591
1860,1660.813
1861,1627.821
1862,1586.090
1863,1567.762
1864,1558.981
1865,1514.309
1866,1484.258
1867,1471.045
1868,1471.045
1869,1452.758
1870,1449.093
1871,1485.708
1872,1477.652
1873,1452.758
1874,1449.817
1875,1468.871
1876,1478.376
1877,1468.871
1878,1521.598
1879,1522.366
1880,1526.756
1881,1515.034
1882,1569.253
1883,1552.374
1884,1573.644
1885,1619.765
1886,1609.534
1887,1632.978
1888,1632.978
1889,1676.925
1890,1674.709
1891,1709.150
1892,1692.313
1893,1704.035
1894,1715.032
1895,1726.754
1896,1708.425
1897,1695.254
1898,1703.310
1899,1674.709
1900,1657.147
1901,1671.810
1902,1619.040
1903,1641.759
1904,1602.928
1905,1590.481
1906,1596.321
1907,1552.374
1908,1532.596
1909,1522.366
1910,1520.149
1911,1504.037
1912,1505.486
1913,1492.315
1914,1488.649
1915,1486.432
1916,1445.427
1917,1476.927
1918,1421.983
1919,1453.483
1920,1399.263
1921,1421.258
1922,1376.544
1923,1396.322
1924,1357.491
1925,1388.266
1926,1383.151
1927,1339.929
1928,1323.817
1929,1347.985
1930,1310.645
1931,1326.758
1932,1304.763
1933,1280.594
1934,1281.319
1935,1260.816
1936,1248.370
1937,1213.204
1938,1199.265
1939,1167.765
1940,1138.481
1941,1144.321
1942,1101.824
1943,1063.759
1944,1074.714
1945,1038.823
1946,1016.104
1947,994.876
1948,986.096
1949,960.435
1950,937.716
1951,926.761
1952,873.266
1953,863.718
1954,843.940
1955,852.763
1956,867.384
1957,851.996
1958,824.162
1959,849.822
1960,819.047
1961,806.600
1962,846.156
1963,829.319
1964,854.937
1965,823.437
1966,856.429
1967,876.207
1968,884.988
1969,912.823
1970,902.550
1971,895.261
1972,936.991
1973,967.767
1974,964.101
1975,1002.208
1976,1024.160
1977,1039.548
1978,1044.706
1979,1044.706
1980,1093.767
1981,1123.818
1982,1098.158
1983,1145.770
1984,1181.703
1985,1175.097
1986,1177.270
1987,1206.597
1988,1215.378
1989,1231.490
1990,1260.816
1991,1293.041
1992,1323.817
1993,1320.875
1994,1329.656
1995,1324.541
1996,1341.378
1997,1393.424
1998,1367.039
1999,1383.876
2000,1402.929
2001,1437.371
2002,1416.100
2003,1419.042
2004,1435.154
2005,1437.371
2006,1465.930
2007,1481.317
2008,1503.312
2009,1483.534
2010,1482.767
2011,1495.256
2012,1498.154
2013,1524.539
2014,1501.820
2015,1545.809
2016,1516.483
2017,1542.144
2018,1534.088
2019,1574.369
2020,1581.700
2021,1570.703
2022,1599.262
2023,1573.644
2024,1600.754
2025,1621.981
2026,1616.866
2027,1617.591
2028,1646.874
2029,1651.265
2030,1645.425
2031,1654.206
2032,1672.535
2033,1681.316
2034,1643.208
2035,1654.206
2036,1625.647
2037,1636.644
2038,1616.141
2039,1596.321
2040,1549.433
2041,1536.986
2042,1512.093
2043,1449.093
2044,1433.705
2045,1432.980
2046,1366.314
2047,1372.878
2048,1350.202
2049,1339.929
2050,1297.431
2051,1282.768
2052,1306.979
2053,1290.100
2054,1264.482
2055,1270.322
2056,1276.204
2057,1303.314
2058,1260.092
2059,1273.263
2060,1290.824
2061,1279.102
2062,1238.821
2063,1265.931
2064,1227.824
2065,1212.436
2066,1232.257
2067,1230.765
2068,1196.324
2069,1191.209
2070,1204.380
2071,1196.324
2072,1192.658
2073,1191.934
2074,1177.270
2075,1175.097
2076,1147.262
2077,1179.487
2078,1161.158
2079,1172.155
2080,1218.319
2081,1191.934
2082,1241.038
2083,1251.268
2084,1290.824
2085,1281.319
2086,1313.544
2087,1369.213
2088,1373.646
2089,1395.598
2090,1432.255
2091,1490.098
2092,1493.764
2093,1528.930
2094,1545.042
2095,1563.371
2096,1594.147
2097,1628.588
2098,1628.588
2099,1606.593
2100,1620.532
2101,1648.366
2102,1608.043
2103,1599.986
2104,1605.144
2105,1615.374
2106,1594.147
2107,1562.647
2108,1558.981
2109,1569.253
2110,1526.756
2111,1528.205
2112,1510.644
2113,1528.930
2114,1507.702
2115,1478.376
2116,1457.149
2117,1485.708
2118,1473.261
2119,1437.371
2120,1425.649
2121,1428.590
2122,1462.264
2123,1452.758
2124,1462.264
2125,1490.865
2126,1479.143
2127,1523.090
2128,1504.761
2129,1529.654
2130,1558.256
2131,1522.366
2132,1536.261
2133,1558.981
2134,1534.812
2135,1525.264
2136,1539.927
2137,1510.644
2138,1487.924
2139,1501.095
2140,1488.649
2141,1475.478
2142,1428.590
2143,1419.766
2144,1401.480
2145,1365.589
2146,1371.429
2147,1364.822
2148,1325.990
2149,1335.538
2150,1308.429
2151,1284.985
2152,1303.314
2153,1294.490
2154,1265.207
2155,1279.102
2156,1280.594
2157,1276.204
2158,1312.095
2159,1290.824
2160,1323.092
2161,1286.434
2162,1324.541
2163,1351.651
2164,1323.817
2165,1367.039
2166,1366.314
2167,1361.156
2168,1384.600
2169,1408.812
2170,1434.429
2171,1441.036
2172,1441.036
2173,1467.421
2174,1482.042
2175,1489.373
2176,1492.315
2177,1495.980
2178,1496.705
2179,1498.154
2180,1507.702
2181,1512.093
2182,1512.093
2183,1550.200
2184,1524.539
2185,1554.590
2186,1551.649
2187,1541.376
2188,1556.040
2189,1552.374
2190,1558.256
2191,1566.312
2192,1579.484
2193,1574.369
2194,1581.700
2195,1553.866
2196,1564.096
2197,1555.315
2198,1540.652
2199,1561.155
2200,1555.315
2201,1567.037
2202,1539.203
2203,1554.590
2204,1569.978
2205,1528.205
2206,1549.433
2207,1563.371
2208,1520.874
2209,1552.374
2210,1506.211
2211,1506.211
2212,1513.542
2213,1479.868
2214,1506.211
2215,1480.593
2216,1459.323
2217,1437.371
2218,1427.822
2219,1419.766
2220,1428.590
2221,1405.870
2222,1399.263
2223,1358.982
2224,1372.878
2225,1359.707
2226,1306.212
2227,1331.873
2228,1270.322
2229,1290.100
2230,1230.765
2231,1209.538
2232,1216.869
2233,1202.931
2234,1162.650
2235,1152.377
2236,1170.706
2237,1160.433
2238,1106.981
2239,1121.602
2240,1126.759
2241,1091.593
2242,1121.602
2243,1109.155
2244,1075.481
2245,1095.259
2246,1106.214
2247,1115.762
2248,1116.487
2249,1118.703
2250,1128.933
2251,1135.540
2252,1125.992
2253,1153.102
2254,1153.102
2255,1161.925
2256,1194.875
2257,1217.594
2258,1236.648
2259,1223.434
2260,1229.316
2261,1288.651
2262,1282.044
2263,1331.148
2264,1310.645
2265,1346.536
2266,1388.266
2267,1402.929
2268,1404.378
2269,1405.146
2270,1460.814
2271,1433.705
2272,1487.200
2273,1478.376
2274,1460.090
2275,1506.211
2276,1471.812
2277,1474.710
2278,1510.644
2279,1470.320
2280,1487.924
2281,1469.595
2282,1504.761
2283,1469.595
2284,1498.922
2285,1450.542
2286,1489.373
2287,1446.151
2288,1461.539
2289,1461.539
2290,1438.820
2291,1473.261
2292,1435.154
2293,1457.149
2294,1425.649
2295,1465.930
2296,1421.258
2297,1425.649
2298,1455.699
2299,1426.373
2300,1430.039
2301,1433.705
2302,1441.036
2303,1424.199
2304,1444.702
2305,1439.544
2306,1438.095
2307,1457.873
2308,1421.258
2309,1441.036
2310,1430.039
2311,1431.488
2312,1460.090
2313,1424.924
2314,1443.977
2315,1423.432
2316,1448.368
2317,1406.595
2318,1437.371
2319,1404.378
2320,1392.656
2321,1402.205
2322,1391.207
2323,1405.146
2324,1377.311
2325,1375.095
2326,1402.929
2327,1393.424
2328,1369.213
2329,1347.985
2330,1356.766
2331,1373.646
2332,1367.763
2333,1356.766
2334,1308.429
2335,1293.766
2336,1280.594
2337,1280.594
2338,1290.100
2339,1268.148
2340,1262.990
2341,1209.538
2342,1233.706
2343,1191.209
2344,1215.378
2345,1174.372
2346,1213.928
2347,1167.765
2348,1204.380
2349,1159.709
2350,1203.656
2351,1175.097
2352,1205.872
2353,1187.543
2354,1219.768
2355,1205.147
2356,1186.819
2357,1213.928
2358,1231.490
2359,1213.928
2360,1229.316
2361,1262.990
2362,1231.490
2363,1280.594
2364,1259.324
2365,1299.648
2366,1285.709
2367,1300.373
2368,1311.370
2369,1330.423
2370,1335.538
2371,1330.423
2372,1388.266
2373,1375.819
2374,1371.429
2375,1403.654
2376,1418.317
2377,1407.320
2378,1427.098
2379,1442.486
2380,1477.652
2381,1451.266
2382,1498.154
2383,1468.871
2384,1506.978
2385,1477.652
2386,1514.309
2387,1492.315
2388,1476.927
2389,1496.705
2390,1473.986
2391,1462.264
2392,1487.200
2393,1441.761
2394,1442.486
2395,1451.266
2396,1416.100
2397,1404.378
2398,1391.932
2399,1376.544
2400,1371.429
2401,1379.485
2402,1369.213
2403,1371.429
2404,1371.429
2405,1323.092
2406,1329.656
2407,1348.710
2408,1318.701
2409,1317.934
2410,1350.202
2411,1362.648
2412,1333.322
2413,1339.204
2414,1368.488
2415,1387.541
2416,1406.595
2417,1421.983
2418,1441.761
2419,1473.261
2420,1483.534
2421,1483.534
2422,1525.264
2423,1519.424
2424,1556.764
2425,1578.759
2426,1553.866
2427,1580.975
2428,1567.037
2429,1571.427
2430,1580.208
2431,1558.256
2432,1583.874
2433,1573.644
2434,1547.983
2435,1523.090
2436,1531.871
2437,1517.932
2438,1504.761
2439,1477.652
2440,1487.200
2441,1464.480
2442,1435.921
2443,1432.980
2444,1440.312
2445,1435.921
2446,1408.044
2447,1423.432
2448,1408.812
2449,1384.600
2450,1392.656
2451,1397.090
2452,1404.378
2453,1428.590
2454,1424.199
2455,1431.488
2456,1445.427
2457,1430.039
2458,1435.921
2459,1454.932
2460,1442.486
2461,1443.977
2462,1488.649
2463,1493.039
2464,1485.708
2465,1503.312
2466,1514.309
2467,1534.088
2468,1518.700
2469,1559.705
2470,1550.200
2471,1577.310
2472,1576.542
2473,1566.312
2474,1588.264
2475,1597.088
2476,1582.425
2477,1594.147
2478,1619.040
2479,1615.374
2480,1610.259
2481,1643.976
2482,1631.487
2483,1625.647
2484,1632.254
2485,1646.150
2486,1676.201
2487,1679.866
2488,1667.420
2489,1657.147
2490,1669.594
2491,1693.762
2492,1687.198
2493,1697.428
2494,1682.040
2495,1685.706
2496,1704.035
2497,1676.925
2498,1658.596
2499,1678.374
2500,1664.479
2501,1620.532
2502,1607.318
2503,1613.925
2504,1597.088
2505,1563.371
2506,1556.764
2507,1504.761
2508,1487.200
2509,1445.427
2510,1416.100
2511,1402.205
2512,1378.036
2513,1329.656
2514,1301.097
2515,1274.712
2516,1223.434
2517,1228.591
2518,1185.369
2519,1150.203
2520,1100.374
2521,1112.096
2522,1096.708
2523,1069.599
2524,1054.211
2525,1038.099
2526,1015.379
2527,963.376
2528,961.927
2529,982.430
2530,945.047
2531,977.272
2532,938.483
2533,936.991
2534,980.213
2535,998.542
2536,967.767
2537,1008.772
2538,1043.214
2539,1046.155
2540,1038.823
2541,1062.267
2542,1115.037
2543,1143.596
2544,1139.931
2545,1146.538
2546,1161.158
2547,1174.372
2548,1226.375
2549,1193.425
2550,1244.704
2551,1226.375
2552,1238.821
2553,1270.322
2554,1245.428
2555,1262.265
2556,1246.878
2557,1264.482
2558,1280.594
2559,1241.763
2560,1282.044
2561,1267.380
2562,1242.487
2563,1240.313
2564,1261.541
2565,1273.987
2566,1254.934
2567,1237.372
2568,1248.370
2569,1284.260
2570,1284.985
2571,1243.979
2572,1261.541
2573,1285.709
2574,1285.709
2575,1263.757
2576,1279.870
2577,1278.378
2578,1290.100
2579,1303.314
2580,1314.268
2581,1335.538
2582,1344.319
2583,1397.814
2584,1399.988
2585,1443.210
2586,1419.766
2587,1471.812
2588,1488.649
2589,1469.595
2590,1482.767
2591,1532.596
2592,1501.095
2593,1512.093
2594,1548.708
2595,1547.259
2596,1529.654
2597,1509.876
2598,1506.978
2599,1504.037
2600,1524.539
2601,1471.812
2602,1502.587
2603,1451.266
2604,1450.542
2605,1447.601
2606,1419.766
2607,1438.820
2608,1394.148
2609,1399.988
2610,1414.651
2611,1374.370
2612,1359.707
2613,1336.988
2614,1350.202
2615,1350.202
2616,1345.811
2617,1316.485
2618,1307.704
2619,1297.431
2620,1291.592
2621,1286.434
2622,1289.375
2623,1309.153
2624,1309.878
2625,1314.268
2626,1315.760
2627,1339.929
2628,1373.646
2629,1342.870
2630,1347.260
2631,1375.819
2632,1394.148
2633,1374.370
2634,1365.589
2635,1379.485
2636,1387.541
2637,1384.600
2638,1373.646
2639,1400.755
2640,1420.533
2641,1402.205
2642,1430.039
2643,1410.261
2644,1448.368
2645,1410.985
2646,1432.255
2647,1460.814
2648,1450.542
2649,1463.756
2650,1485.708
2651,1459.323
2652,1453.483
2653,1471.812
2654,1484.258
2655,1444.702
2656,1458.598
2657,1454.932
2658,1429.314
2659,1424.924
2660,1440.312
2661,1408.044
2662,1442.486
2663,1397.814
2664,1427.098
2665,1384.600
2666,1421.983
2667,1398.539
2668,1373.646
2669,1415.376
2670,1399.263
2671,1391.207
2672,1384.600
2673,1435.921
2674,1430.039
2675,1416.868
2676,1469.595
2677,1470.320
2678,1471.045
2679,1487.924
2680,1504.037
2681,1493.764
2682,1545.809
2683,1509.152
2684,1513.542
2685,1539.927
2686,1540.652
2687,1509.876
2688,1517.932
2689,1496.705
2690,1499.646
2691,1467.421
2692,1441.761
2693,1447.601
2694,1397.814
2695,1366.314
2696,1381.702
2697,1364.097
2698,1323.817
2699,1317.934
2700,1300.373
2701,1283.536
2702,1286.434
2703,1273.987
2704,1241.038
2705,1247.602
2706,1251.268
2707,1243.979
2708,1249.094
2709,1247.602
2710,1198.541
2711,1225.650
2712,1243.979
2713,1210.262
2714,1227.100
2715,1252.035
2716,1252.760
2717,1250.543
2718,1220.535
2719,1222.709
2720,1240.313
2721,1241.038
2722,1245.428
2723,1260.092
2724,1291.592
2725,1274.712
2726,1259.324
2727,1266.656
2728,1268.148
2729,1292.316
2730,1308.429
2731,1318.701
2732,1316.485
2733,1318.701
2734,1349.434
2735,1325.990
2736,1356.766
2737,1341.378
2738,1333.322
2739,1334.089
2740,1325.990
2741,1326.758
2742,1341.378
2743,1335.538
2744,1365.589
2745,1325.990
2746,1331.148
2747,1336.988
2748,1355.317
2749,1350.926
2750,1320.151
2751,1328.932
2752,1332.597
2753,1315.760
2754,1314.268
2755,1330.423
2756,1357.491
2757,1315.036
2758,1334.089
2759,1341.378
2760,1342.870
2761,1350.202
2762,1384.600
2763,1378.036
2764,1402.205
2765,1416.100
2766,1394.148
2767,1436.646
2768,1453.483
2769,1465.930
2770,1441.761
2771,1453.483
2772,1480.593
2773,1473.986
2774,1530.422
2775,1504.761
2776,1506.978
2777,1540.652
2778,1531.871
2779,1523.090
2780,1547.983
2781,1543.593
2782,1534.088
2783,1528.205
2784,1516.483
2785,1530.422
2786,1540.652
2787,1509.876
2788,1495.980
2789,1498.922
2790,1465.930
2791,1473.986
2792,1462.264
2793,1483.534
2794,1482.042
2795,1433.705
2796,1469.595
2797,1439.544
2798,1427.822
2799,1416.868
2800,1448.368
2801,1416.868
2802,1435.154
2803,1411.710
2804,1419.766
2805,1390.483
2806,1407.320
2807,1376.544
2808,1400.755
2809,1365.589
2810,1391.932
2811,1377.311
2812,1343.595
2813,1370.704
2814,1364.822
2815,1346.536
2816,1323.817
2817,1345.811
2818,1319.426
2819,1317.934
2820,1315.036
2821,1342.870
2822,1329.656
2823,1323.817
2824,1316.485
2825,1306.212
2826,1294.490
2827,1292.316
2828,1278.378
2829,1277.653
2830,1273.263
2831,1258.600
2832,1246.878
2833,1236.648
2834,1216.102
2835,1221.984
2836,1252.760
2837,1230.041
2838,1211.712
2839,1219.043
2840,1239.546
2841,1240.313
2842,1227.100
2843,1235.880
2844,1222.709
2845,1268.872
2846,1267.380
2847,1252.035
2848,1237.372
2849,1243.212
2850,1282.044
2851,1264.482
2852,1262.990
2853,1257.150
2854,1267.380
2855,1261.541
2856,1252.760
2857,1243.212
2858,1249.819
2859,1246.878
2860,1280.594
2861,1262.265
2862,1247.602
2863,1254.209
2864,1241.038
2865,1221.260
2866,1266.656
2867,1232.257
2868,1238.097
2869,1234.431
2870,1216.102
2871,1217.594
2872,1234.431
2873,1261.541
2874,1260.092
2875,1249.819
2876,1257.150
2877,1262.265
2878,1270.322
2879,1246.153
2880,1247.602
2881,1274.712
2882,1282.044
2883,1286.434
2884,1304.038
2885,1326.758
2886,1334.814
2887,1338.480
2888,1338.480
2889,1341.378
2890,1378.036
2891,1360.432
2892,1362.648
2893,1384.600
2894,1413.927
2895,1381.702
2896,1414.651
2897,1388.266
2898,1432.980
2899,1404.378
2900,1401.480
2901,1424.924
2902,1388.266
2903,1423.432
2904,1399.263
2905,1381.702
2906,1392.656
2907,1383.876
2908,1367.763
2909,1372.878
2910,1378.761
2911,1367.039
2912,1340.654
2913,1383.151
2914,1353.867
2915,1345.811
2916,1383.151
2917,1344.319
2918,1389.033
2919,1377.311
2920,1410.985
2921,1405.870
2922,1421.983
2923,1441.036
2924,1473.261
2925,1472.536
2926,1494.489
2927,1498.154
2928,1497.430
2929,1512.093
2930,1505.486
2931,1503.312
2932,1507.702
2933,1523.815
2934,1504.037
2935,1470.320
2936,1457.149
2937,1450.542
2938,1432.255
2939,1419.042
2940,1418.317
2941,1422.707
2942,1417.592
2943,1383.876
2944,1418.317
2945,1378.036
2946,1365.589
2947,1372.154
2948,1380.210
2949,1377.311
2950,1379.485
2951,1365.589
2952,1358.982
2953,1337.712
2954,1331.873
2955,1319.426
2956,1322.367
2957,1320.875
2958,1322.367
2959,1324.541
2960,1329.656
2961,1367.763
2962,1386.817
2963,1390.483
2964,1389.033
2965,1385.368
2966,1367.763
2967,1373.646
2968,1385.368
2969,1392.656
2970,1406.595
2971,1402.205
2972,1424.924
2973,1425.649
2974,1419.766
2975,1397.814
2976,1389.758
2977,1404.378
2978,1437.371
2979,1399.263
2980,1424.924
2981,1449.093
2982,1413.202
2983,1413.202
2984,1449.817
2985,1413.202
2986,1450.542
2987,1457.149
2988,1427.822
2989,1424.924
2990,1443.210
2991,1435.154
2992,1407.320
2993,1432.980
2994,1424.199
2995,1407.320
2996,1430.039
2997,1430.039
2998,1399.988
2999,1432.255
3000,1412.477
3001,1421.258
3002,1410.985
3003,1397.814
3004,1408.812
3005,1398.539
3006,1386.817
3007,1369.980
3008,1362.648
3009,1358.982
3010,1355.317
3011,1349.434
3012,1341.378
3013,1317.934
3014,1301.822
3015,1296.707
3016,1287.201
3017,1272.538
3018,1270.322
3019,1305.488
3020,1325.990
3021,1309.878
3022,1298.923
3023,1348.710
3024,1331.873
3025,1363.373
3026,1345.811
3027,1386.817
3028,1363.373
3029,1392.656
3030,1385.368
3031,1403.654
3032,1424.199
3033,1401.480
3034,1390.483
3035,1408.044
3036,1433.705
3037,1399.988
3038,1393.424
3039,1401.480
3040,1417.592
3041,1435.921
3042,1422.707
3043,1434.429
3044,1423.432
3045,1456.424
3046,1418.317
3047,1427.098
3048,1454.932
3049,1430.039
3050,1455.699
3051,1443.210
3052,1462.264
3053,1421.983
3054,1427.098
3055,1453.483
3056,1449.093
3057,1434.429
3058,1442.486
3059,1448.368
3060,1484.258
3061,1470.320
3062,1460.090
3063,1479.868
3064,1495.980
3065,1504.037
3066,1515.034
3067,1523.090
3068,1537.711
3069,1585.366
3070,1595.596
3071,1581.700
3072,1568.486
3073,1575.093
3074,1601.478
3075,1604.419
3076,1605.869
3077,1604.419
3078,1584.599
3079,1583.874
3080,1558.256
3081,1552.374
3082,1553.098
3083,1560.430
3084,1515.759
3085,1511.368
3086,1533.320
3087,1496.705
3088,1479.143
3089,1476.202
3090,1481.317
3091,1464.480
3092,1490.098
3093,1457.873
3094,1456.424
3095,1449.093
3096,1469.595
3097,1438.095
3098,1413.202
3099,1443.977
3100,1419.042
3101,1386.092
3102,1382.426
3103,1361.924
3104,1352.376
3105,1346.536
3106,1339.929
3107,1352.376
3108,1355.317
3109,1331.148
3110,1317.210
3111,1301.822
3112,1282.768
3113,1259.324
3114,1250.543
3115,1249.819
3116,1215.378
3117,1195.599
3118,1196.324
3119,1163.375
3120,1176.546
3121,1153.869
3122,1159.709
3123,1120.877
3124,1104.765
3125,1115.762
3126,1089.377
3127,1060.818
3128,1099.650
3129,1087.160
3130,1072.540
3131,1062.267
3132,1089.377
3133,1098.158
3134,1101.099
3135,1105.489
3136,1087.160
3137,1079.104
3138,1092.318
3139,1129.658
3140,1125.992
3141,1111.372
3142,1115.037
3143,1170.706
3144,1139.206
3145,1173.647
3146,1194.150
3147,1166.316
3148,1183.877
3149,1206.597
3150,1223.434
3151,1237.372
3152,1257.875
3153,1275.479
3154,1306.212
3155,1315.036
3156,1312.095
3157,1324.541
3158,1315.036
3159,1327.482
3160,1361.156
3161,1372.878
3162,1376.544
3163,1354.592
3164,1391.932
3165,1391.932
3166,1412.477
3167,1412.477
3168,1434.429
3169,1454.932
3170,1482.767
3171,1501.095
3172,1504.761
3173,1483.534
3174,1512.093
3175,1526.756
3176,1531.871
3177,1534.088
3178,1559.705
3179,1598.537
3180,1607.318
3181,1613.200
3182,1591.930
3183,1620.532
3184,1624.198
3185,1647.642
3186,1632.254
3187,1643.976
3188,1652.032
3189,1686.431
3190,1662.262
3191,1652.757
3192,1685.706
3193,1669.594
3194,1657.147
3195,1688.647
3196,1648.366
3197,1675.476
3198,1652.757
3199,1658.596
3200,1643.208
3201,1627.821
3202,1643.976
3203,1613.200
3204,1619.765
3205,1630.037
3206,1585.366
3207,1601.478
3208,1601.478
3209,1566.312
3210,1536.986
3211,1537.711
3212,1545.809
3213,1526.031
3214,1497.430
3215,1474.710
3216,1490.098
3217,1438.095
3218,1451.266
3219,1411.710
3220,1402.929
3221,1376.544
3222,1349.434
3223,1332.597
3224,1325.266
3225,1308.429
3226,1282.044
3227,1273.987
3228,1293.766
3229,1279.102
3230,1224.926
3231,1225.650
3232,1241.038
3233,1222.709
3234,1203.656
3235,1232.257
3236,1221.984
3237,1195.599
3238,1227.100
3239,1244.704
3240,1240.313
3241,1235.156
3242,1239.546
3243,1243.212
3244,1228.591
3245,1240.313
3246,1263.757
3247,1263.757
3248,1265.931
3249,1253.485
3250,1305.488
3251,1273.263
3252,1284.260
3253,1326.758
3254,1317.210
3255,1311.370
3256,1348.710
3257,1326.758
3258,1364.097
3259,1347.260
3260,1371.429
3261,1395.598
3262,1376.544
3263,1383.876
3264,1399.263
3265,1421.258
3266,1386.092
3267,1402.205
3268,1417.592
3269,1381.702
3270,1408.812
3271,1375.095
3272,1407.320
3273,1373.646
3274,1384.600
3275,1386.817
3276,1348.710
3277,1378.761
3278,1331.148
3279,1316.485
3280,1343.595
3281,1331.148
3282,1304.763
3283,1262.990
3284,1258.600
3285,1266.656
3286,1277.653
3287,1260.816
3288,1227.824
3289,1209.538
3290,1199.265
3291,1197.091
3292,1193.425
3293,1217.594
3294,1201.482
3295,1227.824
3296,1238.097
3297,1229.316
3298,1213.928
3299,1229.316
3300,1259.324
3301,1287.201
3302,1306.212
3303,1326.758
3304,1329.656
3305,1345.044
3306,1338.480
3307,1361.156
3308,1384.600
3309,1403.654
3310,1391.207
3311,1444.702
3312,1446.151
3313,1426.373
3314,1437.371
3315,1471.812
3316,1441.036
3317,1464.480
3318,1481.317
3319,1460.090
3320,1481.317
3321,1447.601
3322,1483.534
3323,1460.090
3324,1452.034
3325,1452.034
3326,1479.868
3327,1446.151
3328,1492.315
3329,1463.756
3330,1485.708
3331,1470.320
3332,1492.315
3333,1519.424
3334,1528.930
3335,1529.654
3336,1515.034
3337,1519.424
3338,1543.593
3339,1567.762
3340,1537.711
3341,1543.593
3342,1548.708
3343,1556.764
3344,1575.093
3345,1572.152
3346,1582.425
3347,1608.043
3348,1589.032
3349,1597.812
3350,1625.647
3351,1635.920
3352,1644.700
3353,1641.035
3354,1674.709
3355,1687.923
3356,1676.925
3357,1701.818
3358,1715.757
3359,1705.484
3360,1723.088
3361,1723.813
3362,1736.260
3363,1722.364
3364,1709.875
3365,1728.204
3366,1719.423
3367,1699.645
3368,1695.979
3369,1698.920
3370,1704.760
3371,1721.597
3372,1685.706
3373,1685.706
3374,1679.866
3375,1709.150
3376,1699.645
3377,1690.864
3378,1710.642
3379,1678.374
3380,1684.981
3381,1708.425
3382,1678.374
3383,1687.923
3384,1690.864
3385,1706.251
3386,1673.259
3387,1660.088
3388,1657.147
3389,1660.813
3390,1645.425
3391,1622.706
3392,1620.532
3393,1641.759
3394,1629.313
3395,1610.984
3396,1566.312
3397,1573.644
3398,1538.478
3399,1511.368
3400,1521.598
3401,1454.208
3402,1433.705
3403,1405.146
3404,1377.311
3405,1352.376
3406,1326.758
3407,1306.979
3408,1309.153
3409,1247.602
3410,1249.819
3411,1235.156
3412,1179.487
3413,1197.816
3414,1145.770
3415,1138.481
3416,1153.102
3417,1129.658
3418,1103.315
3419,1065.208
3420,1051.270
3421,1046.879
3422,1026.377
3423,1021.986
3424,1044.706
3425,1016.871
3426,994.152
3427,1030.767
3428,1012.438
3429,991.211
3430,989.761
3431,1010.989
3432,983.879
3433,959.710
3434,976.548
3435,996.326
3436,988.994
3437,950.930
3438,972.157
3439,991.211
3440,989.761
3441,969.983
3442,999.991
3443,1016.871
3444,1032.984
3445,1045.430
3446,1046.155
3447,1021.262
3448,1065.208
3449,1088.652
3450,1076.930
3451,1082.045
3452,1116.487
3453,1143.596
3454,1151.653
3455,1123.818
3456,1141.380
3457,1176.546
3458,1199.990
3459,1214.653
3460,1221.260
3461,1206.597
3462,1208.046
3463,1226.375
3464,1239.546
3465,1299.648
3466,1310.645
3467,1299.648
3468,1306.212
3469,1353.100
3470,1389.033
3471,1368.488
3472,1402.205
3473,1458.598
3474,1482.767
3475,1490.865
3476,1511.368
3477,1561.155
3478,1594.147
3479,1613.925
3480,1664.479
3481,1684.257
3482,1717.931
3483,1763.369
3484,1807.316
3485,1823.429
3486,1863.752
3487,1882.039
3488,1893.760
3489,1909.873
3490,1945.039
3491,1939.924
3492,1957.528
3493,1989.753
3494,2012.472
3495,2013.921
3496,2008.082
3497,2014.646
3498,2022.702
3499,2041.031
3500,2056.419
3501,2054.970
3502,2032.975
3503,2032.250
3504,2038.815
3505,2016.138
3506,1992.694
3507,1972.149
3508,1966.309
3509,1923.087
3510,1898.151
3511,1877.648
3512,1834.426
3513,1791.928
3514,1789.755
3515,1716.482
3516,1714.308
3517,1662.262
3518,1614.649
3519,1561.155
3520,1500.371
3521,1479.143
3522,1410.985
3523,1387.541
3524,1349.434
3525,1296.707
3526,1232.982
3527,1185.369
3528,1177.270
3529,1109.155
3530,1067.382
3531,1079.871
3532,1046.879
3533,995.601
3534,972.882
3535,965.550
3536,964.826
3537,959.710
3538,917.938
3539,929.660
3540,958.261
3541,934.817
3542,929.660
3543,939.208
3544,979.489
3545,992.660
3546,999.991
3547,1017.596
3548,1035.157
3549,1045.430
3550,1059.326
3551,1070.323
3552,1076.206
3553,1073.265
3554,1119.428
3555,1106.981
3556,1156.043
3557,1130.425
3558,1169.982
3559,1165.591
3560,1149.436
3561,1167.040
3562,1192.658
3563,1167.765
3564,1175.097
3565,1186.094
3566,1153.102
3567,1186.094
3568,1198.541
3569,1194.150
3570,1194.150
3571,1205.147
3572,1208.813
3573,1224.158
3574,1230.765
3575,1224.158
3576,1224.158
3577,1246.878
3578,1280.594
3579,1325.266
3580,1304.763
3581,1332.597
3582,1359.707
3583,1394.148
3584,1438.820
3585,1484.983
3586,1540.652
3587,1540.652
3588,1598.537
3589,1643.976
3590,1666.652
3591,1712.816
3592,1774.367
3593,1801.477
3594,1833.701
3595,1851.306
3596,1847.640
3597,1849.089
3598,1860.086
3599,1884.255
3600,1884.980
3601,1890.862
3602,1878.373
3603,1879.140
3604,1883.530
3605,1890.862
3606,1890.862
3607,1890.095
3608,1878.373
3609,1870.317
3610,1879.140
3611,1872.533
3612,1843.974
3613,1839.584
3614,1841.033
3615,1821.255
3616,1819.038
3617,1804.418
3618,1794.870
3619,1780.206
3620,1778.033
3621,1744.316
3622,1734.810
3623,1714.308
3624,1717.206
3625,1691.588
3626,1717.931
3627,1671.810
3628,1682.040
3629,1684.257
3630,1666.652
3631,1702.586
3632,1669.594
3633,1708.425
3634,1675.476
3635,1703.310
3636,1687.923
3637,1717.931
3638,1681.316
3639,1712.816
3640,1687.923
3641,1684.257
3642,1687.198
3643,1699.645
3644,1682.040
3645,1689.372
3646,1674.709
3647,1667.420
3648,1659.364
3649,1652.757
3650,1661.537
3651,1682.807
3652,1642.484
3653,1671.810
3654,1649.815
3655,1668.144
3656,1636.644
3657,1639.543
3658,1648.366
3659,1607.318
3660,1629.313
3661,1591.206
3662,1602.928
3663,1610.259
3664,1580.975
3665,1561.922
3666,1537.711
3667,1564.820
3668,1545.042
3669,1501.820
3670,1482.767
3671,1471.045
3672,1452.034
3673,1457.149
3674,1389.758
3675,1402.205
3676,1328.207
3677,1318.701
3678,1296.707
3679,1240.313
3680,1198.541
3681,1200.714
3682,1149.436
3683,1101.099
3684,1079.104
3685,1046.155
3686,1015.379
3687,945.772
3688,941.382
3689,887.929
3690,893.044
3691,843.215
3692,836.651
3693,846.881
3694,826.378
3695,806.600
3696,783.881
3697,795.603
3698,767.768
3699,796.327
3700,793.429
3701,807.325
3702,793.429
3703,799.993
3704,807.325
3705,792.662
3706,835.884
3707,856.429
3708,861.544
3709,844.707
3710,893.769
3711,876.207
3712,919.430
3713,928.210
3714,912.823
3715,938.483
3716,972.157
3717,969.983
3718,1013.205
3719,1018.320
3720,1021.262
3721,1014.655
3722,1038.099
3723,1061.543
3724,1108.430
3725,1109.880
3726,1132.599
3727,1161.925
3728,1175.821
3729,1230.765
3730,1232.257
3731,1298.156
3732,1333.322
3733,1369.980
3734,1381.702
3735,1425.649
3736,1481.317
3737,1496.705
3738,1545.042
3739,1611.708
3740,1683.532
3741,1697.428
3742,1750.198
3743,1811.707
3744,1876.199
3745,1918.696
3746,1964.092
3747,2026.368
3748,2052.753
3749,2076.197
3750,2117.970
3751,2156.034
3752,2169.248
3753,2204.414
3754,2208.080
3755,2231.524
3756,2239.580
3757,2224.917
3758,2241.754
3759,2238.088
3760,2229.308
3761,2210.979
3762,2176.580
3763,2156.034
3764,2151.644
3765,2116.478
3766,2092.310
3767,2071.807
3768,2043.248
3769,2013.197
3770,1978.031
3771,1946.531
3772,1906.250
3773,1863.752
3774,1813.923
3775,1774.367
3776,1745.041
3777,1725.262
3778,1657.872
3779,1603.652
3780,1581.700
3781,1523.090
3782,1521.598
3783,1443.977
3784,1432.980
3785,1394.148
3786,1348.710
3787,1320.151
3788,1280.594
3789,1245.428
3790,1205.147
3791,1181.703
3792,1154.594
3793,1115.037
3794,1083.537
3795,1067.382
3796,1069.599
3797,1028.593
3798,977.272
3799,945.047
3800,948.713
3801,937.716
3802,921.603
3803,900.376
3804,874.715
3805,852.763
3806,846.156
3807,810.991
3808,815.381
3809,819.771
3810,846.881
3811,851.996
3812,857.154
3813,874.715
3814,883.539
3815,889.379
3816,900.376
3817,872.542
3818,928.935
3819,923.095
3820,910.606
3821,963.376
3822,942.873
3823,956.045
3824,968.491
3825,999.267
3826,1031.492
3827,1029.318
3828,1027.826
3829,1025.652
3830,1049.096
3831,1072.540
3832,1104.040
3833,1116.487
3834,1134.048
3835,1134.816
3836,1154.594
3837,1178.762
3838,1180.936
3839,1245.428
3840,1234.431
3841,1282.044
3842,1317.210
3843,1360.432
3844,1396.322
3845,1403.654
3846,1424.199
3847,1495.256
3848,1495.256
3849,1516.483
3850,1553.098
3851,1598.537
3852,1619.040
3853,1676.201
3854,1689.372
3855,1717.931
3856,1742.142
3857,1747.257
3858,1769.976
3859,1829.311
3860,1843.207
3861,1855.696
3862,1893.036
3863,1926.028
3864,1963.368
3865,2007.315
3866,2029.309
3867,2038.815
3868,2091.585
3869,2090.860
3870,2127.475
3871,2119.419
3872,2147.254
3873,2160.425
3874,2137.748
3875,2142.139
3876,2151.644
3877,2131.141
3878,2124.534
3879,2128.925
3880,2104.756
3881,2094.526
3882,2060.085
3883,2027.093
3884,2008.806
3885,1990.477
3886,1975.090
3887,1946.531
3888,1916.480
3889,1899.643
3890,1898.151
3891,1867.418
3892,1832.252
3893,1825.645
3894,1785.364
3895,1769.976
3896,1773.642
3897,1767.035
3898,1750.923
3899,1720.872
3900,1707.701
3901,1701.094
3902,1695.254
3903,1687.923
3904,1674.709
3905,1676.925
3906,1676.925
3907,1652.032
3908,1648.366
3909,1646.150
3910,1633.703
3911,1619.765
3912,1628.588
3913,1578.759
3914,1580.208
3915,1585.366
3916,1588.264
3917,1550.925
3918,1546.534
3919,1568.486
3920,1536.986
3921,1537.711
3922,1553.098
3923,1572.152
3924,1550.200
3925,1586.090
3926,1598.537
3927,1577.310
3928,1591.930
3929,1602.203
3930,1613.925
3931,1652.757
3932,1648.366
3933,1665.928
3934,1666.652
3935,1676.201
3936,1693.762
3937,1702.586
3938,1694.529
3939,1698.153
3940,1689.372
3941,1688.647
3942,1668.869
3943,1649.815
3944,1652.757
3945,1613.200
3946,1586.090
3947,1572.877
3948,1567.037
3949,1534.088
3950,1500.371
3951,1460.090
3952,1414.651
3953,1374.370
3954,1298.156
3955,1252.760
3956,1223.434
3957,1144.321
3958,1118.703
3959,1037.374
3960,973.649
3961,938.483
3962,845.432
3963,810.991
3964,764.103
3965,715.041
3966,628.554
3967,619.048
3968,542.877
3969,539.936
3970,520.158
3971,475.444
3972,474.719
3973,449.826
3974,423.441
3975,449.826
3976,409.545
3977,450.550
3978,457.882
3979,426.382
3980,438.104
3981,455.665
3982,477.660
3983,498.887
3984,544.326
3985,562.655
3986,553.107
3987,604.385
3988,598.546
3989,651.998
3990,676.934
3991,664.487
3992,720.156
3993,748.715
3994,769.218
3995,795.603
3996,823.437
3997,840.274
3998,894.494
3999,919.430
4000,941.382
4001,939.932
4002,1010.989
4003,1035.157
4004,1065.208
4005,1106.214
4006,1153.869
4007,1195.599
4008,1197.816
4009,1281.319
4010,1326.758
4011,1350.926
4012,1439.544
4013,1465.205
4014,1536.986
4015,1606.593
4016,1661.537
4017,1691.588
4018,1763.369
4019,1815.372
4020,1859.362
4021,1906.974
4022,1968.483
4023,2010.256
4024,2027.093
4025,2046.146
4026,2073.981
4027,2102.582
4028,2112.812
4029,2127.475
4030,2134.807
4031,2127.475
4032,2126.026
4033,2120.144
4034,2105.481
4035,2117.970
4036,2118.695
4037,2123.085
4038,2106.973
4039,2090.860
4040,2073.981
4041,2073.981
4042,2060.809
4043,2056.419
4044,2042.480
4045,2020.528
4046,1985.362
4047,1947.980
4048,1933.317
4049,1893.036
4050,1875.474
4051,1835.151
4052,1773.642
4053,1741.375
4054,1704.035
4055,1652.032
4056,1619.040
4057,1600.754
4058,1539.927
4059,1521.598
4060,1472.536
4061,1417.592
4062,1353.867
4063,1313.544
4064,1307.704
4065,1243.212
4066,1238.097
4067,1194.150
4068,1154.594
4069,1114.270
4070,1097.433
4071,1027.826
4072,1030.767
4073,987.545
4074,954.595
4075,910.606
4076,917.213
4077,913.547
4078,896.710
4079,875.440
4080,879.106
4081,859.328
4082,851.996
4083,865.935
4084,874.715
4085,864.485
4086,881.322
4087,909.157
4088,924.545
4089,936.267
4090,948.713
4091,945.047
4092,949.438
4093,1008.772
4094,1008.772
4095,1041.040
4096,1036.649
4097,1066.658
4098,1106.981
4099,1133.324
4100,1154.594
4101,1129.658
4102,1186.094
4103,1170.706
4104,1210.987
4105,1186.094
4106,1229.316
4107,1246.153
4108,1225.650
4109,1267.380
4110,1284.985
4111,1304.038
4112,1317.210
4113,1324.541
4114,1310.645
4115,1345.811
4116,1380.210
4117,1373.646
4118,1402.929
4119,1435.921
4120,1477.652
4121,1501.095
4122,1520.874
4123,1510.644
4124,1526.756
4125,1590.481
4126,1574.369
4127,1608.043
4128,1646.150
4129,1679.866
4130,1690.096
4131,1690.864
4132,1713.540
4133,1742.867
4134,1758.254
4135,1790.479
4136,1817.589
4137,1842.482
4138,1867.418
4139,1893.036
4140,1926.028
4141,1954.587
4142,1997.809
4143,2049.087
4144,2092.310
4145,2101.815
4146,2148.703
4147,2167.756
4148,2199.257
4149,2234.423
4150,2240.305
4151,2249.810
4152,2250.535
4153,2240.305
4154,2232.249
4155,2211.746
4156,2208.080
4157,2177.305
4158,2128.200
4159,2110.638
4160,2072.531
4161,2021.253
4162,1969.975
4163,1928.202
4164,1895.977
4165,1856.421
4166,1811.707
4167,1777.308
4168,1720.147
4169,1647.642
4170,1600.754
4171,1595.596
4172,1545.809
4173,1501.820
4174,1444.702
4175,1427.098
4176,1422.707
4177,1359.707
4178,1359.707
4179,1369.213
4180,1314.268
4181,1325.990
4182,1341.378
4183,1301.822
4184,1327.482
4185,1306.979
4186,1298.156
4187,1320.151
4188,1284.260
4189,1299.648
4190,1315.760
4191,1294.490
4192,1279.870
4193,1293.041
4194,1313.544
4195,1276.204
4196,1298.923
4197,1295.257
4198,1293.766
4199,1275.479
4200,1315.760
4201,1282.044
4202,1325.266
4203,1296.707
4204,1304.038
4205,1338.480
4206,1311.370
4207,1335.538
4208,1308.429
4209,1333.322
4210,1362.648
4211,1353.100
4212,1369.213
4213,1381.702
4214,1361.924
4215,1399.263
4216,1394.148
4217,1369.980
4218,1359.707
4219,1360.432
4220,1360.432
4221,1360.432
4222,1298.923
4223,1295.982
4224,1265.931
4225,1224.158
4226,1215.378
4227,1200.714
4228,1164.824
4229,1088.652
4230,1073.989
4231,1010.264
4232,1010.264
4233,953.828
4234,890.103
4235,879.873
4236,809.541
4237,767.044
4238,745.774
4239,725.271
4240,679.875
4241,647.607
4242,602.211
4243,619.773
4244,588.273
4245,558.989
4246,555.323
4247,588.273
4248,588.998
4249,589.765
4250,588.273
4251,606.602
4252,613.933
4253,620.498
4254,636.610
4255,640.276
4256,649.099
4257,673.993
4258,706.942
4259,710.608
4260,751.656
4261,769.218
4262,794.154
4263,808.774
4264,823.437
4265,845.432
4266,837.376
4267,885.713
4268,881.322
4269,916.488
4270,921.603
4271,952.379
4272,982.430
4273,956.769
4274,978.039
4275,1016.871
4276,1031.492
4277,1051.270
4278,1065.208
4279,1073.989
4280,1071.815
4281,1087.160
4282,1119.428
4283,1118.703
4284,1126.759
4285,1147.987
4286,1169.982
4287,1194.150
4288,1215.378
4289,1247.602
4290,1276.929
4291,1290.100
4292,1344.319
4293,1345.044
4294,1391.207
4295,1374.370
4296,1410.985
4297,1423.432
4298,1462.988
4299,1479.143
4300,1460.814
4301,1471.812
4302,1484.258
4303,1504.761
4304,1539.927
4305,1551.649
4306,1565.588
4307,1539.203
4308,1586.090
4309,1578.034
4310,1568.486
4311,1605.869
4312,1598.537
4313,1637.369
4314,1647.642
4315,1655.698
4316,1635.152
4317,1658.596
4318,1665.203
4319,1710.642
4320,1693.762
4321,1739.201
4322,1728.204
4323,1750.923
4324,1754.589
4325,1756.763
4326,1751.647
4327,1762.645
4328,1772.918
4329,1728.928
4330,1720.147
4331,1698.920
4332,1668.869
4333,1635.920
4334,1593.422
4335,1575.818
4336,1533.320
4337,1500.371
4338,1448.368
4339,1411.710
4340,1367.039
4341,1333.322
4342,1327.482
4343,1296.707
4344,1260.816
4345,1204.380
4346,1178.762
4347,1180.936
4348,1179.487
4349,1141.380
4350,1153.102
4351,1180.936
4352,1153.869
4353,1140.655
4354,1188.268
4355,1159.709
4356,1187.543
4357,1193.425
4358,1172.155
4359,1190.484
4360,1194.150
4361,1216.102
4362,1232.982
4363,1236.648
4364,1213.204
4365,1223.434
4366,1243.979
4367,1277.653
4368,1265.931
4369,1286.434
4370,1306.212
4371,1312.095
4372,1325.266
4373,1317.210
4374,1339.204
4375,1363.373
4376,1351.651
4377,1350.202
4378,1362.648
4379,1391.932
4380,1373.646
4381,1370.704
4382,1401.480
4383,1380.210
4384,1407.320
4385,1383.151
4386,1413.927
4387,1387.541
4388,1418.317
4389,1391.207
4390,1432.255
4391,1391.932
4392,1408.044
4393,1428.590
4394,1424.199
4395,1396.322
4396,1375.095
4397,1400.755
4398,1405.870
4399,1375.819
4400,1350.926
4401,1341.378
4402,1343.595
4403,1361.156
4404,1334.814
4405,1369.213
4406,1348.710
4407,1320.151
4408,1317.210
4409,1342.870
4410,1350.202
4411,1326.758
4412,1310.645
4413,1294.490
4414,1292.316
4415,1322.367
4416,1300.373
4417,1290.824
4418,1303.314
4419,1251.268
4420,1256.426
4421,1278.378
4422,1270.322
4423,1258.600
4424,1278.378
4425,1293.766
4426,1300.373
4427,1287.926
4428,1283.536
4429,1308.429
4430,1321.600
4431,1375.095
4432,1397.090
4433,1406.595
4434,1419.766
4435,1473.261
4436,1504.761
4437,1528.205
4438,1582.425
4439,1640.310
4440,1677.650
4441,1677.650
4442,1723.088
4443,1772.150
4444,1771.426
4445,1805.867
4446,1826.370
4447,1840.308
4448,1850.538
4449,1865.201
4450,1865.201
4451,1877.648
4452,1884.255
4453,1893.036
4454,1896.702
4455,1904.758
4456,1898.151
4457,1875.474
4458,1886.472
4459,1872.533
4460,1867.418
4461,1838.092
4462,1823.429
4463,1790.479
4464,1794.870
4465,1756.763
4466,1715.032
4467,1693.762
4468,1675.476
4469,1651.265
4470,1632.978
4471,1619.040
4472,1602.928
4473,1618.315
4474,1616.141
4475,1570.703
4476,1598.537
4477,1575.818
4478,1582.425
4479,1544.318
4480,1576.542
4481,1531.871
4482,1546.534
4483,1526.756
4484,1542.144
4485,1506.978
4486,1512.093
4487,1501.820
4488,1509.876
4489,1522.366
4490,1484.258
4491,1460.090
4492,1449.817
4493,1443.210
4494,1423.432
4495,1413.202
4496,1396.322
4497,1391.932
4498,1401.480
4499,1358.982
4500,1356.766
4501,1360.432
4502,1305.488
4503,1276.204
4504,1280.594
4505,1245.428
4506,1205.147
4507,1180.212
4508,1163.375
4509,1166.316
4510,1139.931
4511,1086.436
4512,1087.160
4513,1021.986
4514,1036.649
4515,989.761
4516,947.989
4517,969.983
4518,946.539
4519,932.601
4520,917.938
4521,898.884
4522,887.929
4523,882.772
4524,871.817
4525,868.151
4526,859.328
4527,846.156
4528,825.654
4529,844.707
4530,827.103
4531,854.937
4532,858.603
4533,861.544
4534,839.550
4535,843.940
4536,839.550
4537,885.713
4538,885.713
4539,866.659
4540,902.550
4541,914.272
4542,912.823
4543,898.159
4544,951.654
4545,948.713
4546,954.595
4547,996.326
4548,1012.438
4549,1013.205
4550,1047.604
4551,1065.933
4552,1095.984
4553,1101.824
4554,1140.655
4555,1162.650
4556,1186.094
4557,1209.538
4558,1290.824
4559,1341.378
4560,1391.932
4561,1413.927
4562,1487.200
4563,1526.756
4564,1590.481
4565,1660.088
4566,1733.319
4567,1801.477
4568,1862.260
4569,1934.084
4570,2013.197
4571,2059.360
4572,2128.200
4573,2180.203
4574,2216.861
4575,2284.252
4576,2322.359
4577,2356.033
4578,2389.749
4579,2422.699
4580,2452.750
4581,2471.803
4582,2496.697
4583,2506.245
4584,2509.143
4585,2516.475
4586,2493.031
4587,2484.975
4588,2484.250
4589,2467.413
4590,2430.030
4591,2427.132
4592,2397.806
4593,2349.468
4594,2317.968
4595,2292.308
4596,2256.417
4597,2212.470
4598,2170.698
4599,2117.203
4600,2076.197
4601,2034.424
4602,1975.090
4603,1912.814
4604,1853.480
4605,1833.701
4606,1761.920
4607,1698.920
4608,1650.540
4609,1621.256
4610,1550.925
4611,1517.208
4612,1495.256
4613,1451.266
4614,1388.266
4615,1340.654
4616,1337.712
4617,1269.597
4618,1257.150
4619,1222.709
4620,1182.428
4621,1154.594
4622,1115.037
4623,1096.708
4624,1090.102
4625,1019.045
4626,1022.711
4627,972.882
4628,973.649
4629,944.323
4630,946.539
4631,931.876
4632,917.938
4633,909.881
4634,891.595
4635,860.095
4636,858.603
4637,874.715
4638,891.595
4639,899.651
4640,905.491
4641,906.940
4642,918.662
4643,904.766
4644,939.932
4645,932.601
4646,969.216
4647,974.374
4648,1008.772
4649,975.823
4650,1011.713
4651,1034.433
4652,1006.598
4653,1046.879
4654,1009.540
4655,1011.713
4656,1047.604
4657,1013.930
4658,1000.716
4659,1023.435
4660,989.761
4661,977.272
4662,978.039
4663,938.483
4664,965.550
4665,958.261
4666,943.598
4667,947.989
4668,937.716
4669,936.991
4670,918.662
4671,956.769
4672,956.769
4673,983.154
4674,1016.104
4675,1009.540
4676,1052.762
4677,1099.650
4678,1134.048
4679,1150.928
4680,1181.703
4681,1212.436
4682,1235.880
4683,1317.210
4684,1353.100
4685,1389.758
4686,1422.707
4687,1457.149
4688,1465.930
4689,1484.983
4690,1542.144
4691,1532.596
4692,1587.540
4693,1574.369
4694,1611.708
4695,1636.644
4696,1630.037
4697,1645.425
4698,1660.088
4699,1676.925
4700,1688.647
4701,1701.818
4702,1721.597
4703,1731.869
4704,1733.319
4705,1740.650
4706,1769.252
4707,1762.645
4708,1759.704
4709,1747.982
4710,1747.257
4711,1739.925
4712,1736.984
4713,1739.925
4714,1753.864
4715,1740.650
4716,1734.810
4717,1744.316
4718,1747.982
4719,1726.030
4720,1731.145
4721,1725.262
4722,1731.869
4723,1742.867
4724,1755.313
4725,1731.869
4726,1729.653
4727,1739.201
4728,1734.086
4729,1730.420
4730,1742.867
4731,1736.984
4732,1741.375
4733,1737.752
4734,1734.086
4735,1716.482
4736,1726.754
4737,1712.091
4738,1705.484
4739,1701.094
4740,1716.482
4741,1707.701
4742,1691.588
4743,1696.703
4744,1713.540
4745,1682.807
4746,1704.760
4747,1718.698
4748,1690.864
4749,1701.818
4750,1727.479
4751,1705.484
4752,1713.540
4753,1735.535
4754,1731.145
4755,1744.316
4756,1747.982
4757,1747.982
4758,1745.041
4759,1739.925
4760,1725.262
4761,1723.088
4762,1698.920
4763,1662.987
4764,1662.262
4765,1652.032
4766,1630.037
4767,1578.759
4768,1580.975
4769,1514.309
4770,1468.146
4771,1425.649
4772,1386.817
4773,1360.432
4774,1294.490
4775,1219.043
4776,1180.212
4777,1130.425
4778,1060.093
4779,1026.377
4780,963.376
4781,904.766
4782,805.875
4783,791.937
4784,740.659
4785,704.768
4786,621.265
4787,622.714
4788,574.377
4789,582.433
4790,561.163
4791,550.166
4792,545.775
4793,535.545
4794,501.829
4795,512.101
4796,542.110
4797,558.222
4798,567.045
4799,559.714
4800,583.882
4801,601.487
4802,625.655
4803,665.212
4804,690.105
4805,695.987
4806,739.934
4807,731.878
4808,762.653
4809,817.597
4810,801.485
4811,822.713
4812,857.878
4813,895.261
4814,927.486
4815,944.323
4816,931.876
4817,987.545
4818,983.154
4819,997.818
4820,1054.936
4821,1080.596
4822,1061.543
4823,1106.981
4824,1147.987
4825,1147.987
4826,1158.260
4827,1233.706
4828,1224.158
4829,1300.373
4830,1296.707
4831,1358.982
4832,1406.595
4833,1450.542
4834,1465.205
4835,1552.374
4836,1561.922
4837,1599.986
4838,1646.150
4839,1682.040
4840,1748.706
4841,1765.586
4842,1808.808
4843,1854.204
4844,1884.255
4845,1908.424
4846,1956.036
4847,1989.753
4848,2015.371
4849,2058.593
4850,2077.646
4851,2101.090
4852,2121.636
4853,2138.473
4854,2154.585
4855,2169.973
4856,2169.248
4857,2184.636
4858,2199.257
4859,2182.420
4860,2171.422
4861,2156.802
4862,2142.863
4863,2121.636
4864,2108.422
4865,2098.192
4866,2041.756
4867,2014.646
4868,1976.582
4869,1949.472
4870,1884.255
4871,1846.148
4872,1783.148
4873,1727.479
4874,1627.096
4875,1590.481
4876,1509.876
4877,1430.039
4878,1384.600
4879,1286.434
4880,1258.600
4881,1178.038
4882,1120.152
4883,1095.259
4884,1015.379
4885,980.938
4886,956.045
4887,912.823
4888,871.817
4889,847.606
4890,819.771
4891,778.766
4892,794.154
4893,768.493
4894,747.266
4895,739.934
4896,739.934
4897,743.600
4898,736.993
4899,738.442
4900,744.324
4901,734.819
4902,761.886
4903,764.827
4904,755.322
4905,773.608
4906,760.437
4907,799.993
4908,839.550
4909,861.544
4910,887.162
4911,905.491
4912,909.157
4913,973.649
4914,1008.772
4915,1054.211
4916,1066.658
4917,1092.318
4918,1127.484
4919,1166.316
4920,1223.434
4921,1268.148
4922,1261.541
4923,1311.370
4924,1344.319
4925,1321.600
4926,1360.432
4927,1391.207
4928,1397.814
4929,1396.322
4930,1401.480
4931,1355.317
4932,1353.867
4933,1345.811
4934,1369.980
4935,1367.039
4936,1312.819
4937,1312.819
4938,1328.207
4939,1283.536
4940,1269.597
4941,1249.819
4942,1232.257
4943,1221.260
4944,1201.482
4945,1198.541
4946,1201.482
4947,1202.931
4948,1193.425
4949,1191.934
4950,1200.714
4951,1204.380
4952,1208.813
4953,1249.094
4954,1277.653
4955,1289.375
4956,1304.763
4957,1337.712
4958,1365.589
4959,1408.812
4960,1436.646
4961,1464.480
4962,1491.590
4963,1561.922
4964,1558.981
4965,1574.369
4966,1607.318
4967,1644.700
4968,1630.037
4969,1678.374
4970,1673.259
4971,1660.813
4972,1663.754
4973,1698.153
4974,1665.203
4975,1656.422
4976,1650.540
4977,1638.818
4978,1649.815
4979,1603.652
4980,1591.206
4981,1592.697
4982,1540.652
4983,1533.320
4984,1526.031
4985,1506.978
4986,1502.587
4987,1476.927
4988,1443.977
4989,1446.151
4990,1424.199
4991,1372.878
4992,1365.589
4993,1380.210
4994,1360.432
4995,1336.988
4996,1356.766
4997,1343.595
4998,1342.145
4999,1368.488
5000,1355.317
5001,1391.932
5002,1362.648
5003,1399.988
5004,1374.370
5005,1415.376
5006,1422.707
5007,1393.424
5008,1430.764
5009,1425.649
5010,1440.312
5011,1470.320
5012,1483.534
5013,1484.983
5014,1509.152
5015,1532.596
5016,1550.200
5017,1561.922
5018,1557.531
5019,1547.259
5020,1576.542
5021,1587.540
5022,1566.312
5023,1561.155
5024,1581.700
5025,1559.705
5026,1547.259
5027,1546.534
5028,1540.652
5029,1539.927
5030,1536.986
5031,1534.088
5032,1534.088
5033,1536.986
5034,1520.149
5035,1521.598
5036,1521.598
5037,1527.481
5038,1506.978
5039,1467.421
5040,1487.200
5041,1441.036
5042,1452.758
5043,1391.207
5044,1378.761
5045,1382.426
5046,1352.376
5047,1324.541
5048,1284.260
5049,1262.265
5050,1233.706
5051,1218.319
5052,1205.147
5053,1202.206
5054,1180.936
5055,1142.147
5056,1157.492
5057,1112.821
5058,1100.374
5059,1084.262
5060,1082.045
5061,1080.596
5062,1048.371
5063,1057.152
5064,1019.045
5065,986.820
5066,976.548
5067,1008.772
5068,999.991
5069,986.820
5070,974.374
5071,975.098
5072,965.550
5073,958.986
5074,953.828
5075,925.994
5076,926.761
5077,928.210
5078,936.267
5079,981.705
5080,980.938
5081,953.104
5082,975.823
5083,998.542
5084,979.489
5085,1027.826
5086,1000.716
5087,1054.211
5088,1031.492
5089,1065.208
5090,1046.155
5091,1058.601
5092,1089.377
5093,1110.604
5094,1116.487
5095,1123.818
5096,1139.931
5097,1147.262
5098,1165.591
5099,1185.369
5100,1176.546
5101,1186.819
5102,1233.706
5103,1213.928
5104,1259.324
5105,1247.602
5106,1279.102
5107,1262.265
5108,1302.546
5109,1309.153
5110,1293.766
5111,1287.926
5112,1295.257
5113,1315.760
5114,1338.480
5115,1345.811
5116,1356.041
5117,1361.156
5118,1368.488
5119,1419.766
5120,1441.761
5121,1434.429
5122,1438.095
5123,1497.430
5124,1495.256
5125,1513.542
5126,1542.868
5127,1599.986
5128,1604.419
5129,1621.981
5130,1669.594
5131,1697.428
5132,1726.754
5133,1774.367
5134,1821.979
5135,1852.030
5136,1883.530
5137,1910.640
5138,1958.253
5139,1950.921
5140,1975.090
5141,1986.812
5142,1990.477
5143,1999.258
5144,1988.261
5145,1990.477
5146,1958.253
5147,1936.983
5148,1946.531
5149,1909.148
5150,1902.584
5151,1852.030
5152,1818.314
5153,1794.870
5154,1753.097
5155,1726.030
5156,1672.535
5157,1663.754
5158,1584.599
5159,1580.975
5160,1536.261
5161,1460.090
5162,1419.766
5163,1383.876
5164,1356.041
5165,1293.766
5166,1259.324
5167,1234.431
5168,1230.041
5169,1209.538
5170,1158.260
5171,1123.818
5172,1148.711
5173,1090.102
5174,1100.374
5175,1101.824
5176,1055.660
5177,1049.096
5178,1065.208
5179,1008.772
5180,1042.489
5181,1000.716
5182,986.096
5183,1019.770
5184,1002.208
5185,988.269
5186,978.764
5187,1025.652
5188,1030.042
5189,1029.318
5190,1032.984
5191,1078.380
5192,1054.936
5193,1097.433
5194,1139.931
5195,1182.428
5196,1180.936
5197,1211.712
5198,1254.934
5199,1304.038
5200,1297.431
5201,1336.263
5202,1388.266
5203,1416.868
5204,1434.429
5205,1443.210
5206,1468.146
5207,1466.654
5208,1468.871
5209,1466.654
5210,1452.034
5211,1423.432
5212,1407.320
5213,1402.205
5214,1415.376
5215,1353.100
5216,1356.766
5217,1317.934
5218,1305.488
5219,1275.479
5220,1294.490
5221,1254.934
5222,1217.594
5223,1203.656
5224,1180.212
5225,1170.706
5226,1157.492
5227,1156.768
5228,1165.591
5229,1179.487
5230,1191.934
5231,1193.425
5232,1207.321
5233,1200.714
5234,1192.658
5235,1237.372
5236,1265.207
5237,1249.819
5238,1284.260
5239,1315.760
5240,1327.482
5241,1370.704
5242,1376.544
5243,1391.207
5244,1405.146
5245,1423.432
5246,1455.699
5247,1469.595
5248,1460.090
5249,1467.421
5250,1476.202
5251,1515.034
5252,1503.312
5253,1479.143
5254,1510.644
5255,1491.590
5256,1496.705
5257,1501.820
5258,1482.767
5259,1488.649
5260,1485.708
5261,1512.817
5262,1482.767
5263,1460.090
5264,1459.323
5265,1475.478
5266,1487.200
5267,1459.323
5268,1445.427
5269,1452.034
5270,1479.868
5271,1449.817
5272,1446.876
5273,1458.598
5274,1491.590
5275,1465.205
5276,1465.205
5277,1479.143
5278,1515.034
5279,1504.761
5280,1498.922
5281,1499.646
5282,1491.590
5283,1493.039
5284,1528.205
5285,1537.711
5286,1539.927
5287,1512.093
5288,1519.424
5289,1527.481
5290,1522.366
5291,1537.711
5292,1545.042
5293,1530.422
5294,1522.366
5295,1539.927
5296,1534.088
5297,1533.320
5298,1555.315
5299,1526.031
5300,1551.649
5301,1528.930
5302,1526.031
5303,1562.647
5304,1536.261
5305,1535.537
5306,1540.652
5307,1541.376
5308,1537.711
5309,1538.478
5310,1540.652
5311,1547.983
5312,1556.764
5313,1571.427
5314,1562.647
5315,1539.203
5316,1536.986
5317,1555.315
5318,1508.427
5319,1539.927
5320,1503.312
5321,1486.432
5322,1473.986
5323,1462.264
5324,1455.699
5325,1439.544
5326,1425.649
5327,1432.255
5328,1428.590
5329,1388.266
5330,1368.488
5331,1353.100
5332,1307.704
5333,1293.041
5334,1297.431
5335,1238.821
5336,1222.709
5337,1216.869
5338,1170.706
5339,1153.869
5340,1150.928
5341,1112.096
5342,1101.099
5343,1093.767
5344,1077.655
5345,1078.380
5346,1067.382
5347,1053.486
5348,1053.486
5349,1040.315
5350,1031.492
5351,1027.826
5352,1013.205
5353,1016.104
5354,1007.323
5355,1005.874
5356,977.272
5357,966.317
5358,955.320
5359,984.604
5360,991.211
5361,968.491
5362,1016.104
5363,1024.160
5364,1016.104
5365,1042.489
5366,1044.706
5367,1070.323
5368,1073.989
5369,1081.321
5370,1102.548
5371,1126.759
5372,1131.874
5373,1131.874
5374,1171.431
5375,1164.824
5376,1211.712
5377,1184.602
5378,1208.813
5379,1230.041
5380,1252.760
5381,1251.268
5382,1285.709
5383,1299.648
5384,1321.600
5385,1312.819
5386,1323.092
5387,1341.378
5388,1358.982
5389,1380.935
5390,1387.541
5391,1401.480
5392,1429.314
5393,1431.488
5394,1423.432
5395,1457.149
5396,1475.478
5397,1490.098
5398,1507.702
5399,1503.312
5400,1539.203
5401,1535.537
5402,1580.975
5403,1590.481
5404,1583.149
5405,1626.371
5406,1611.708
5407,1663.754
5408,1649.091
5409,1664.479
5410,1704.035
5411,1717.206
5412,1745.041
5413,1733.319
5414,1778.033
5415,1759.704
5416,1800.752
5417,1791.928
5418,1783.872
5419,1812.474
5420,1790.479
5421,1815.372
5422,1777.308
5423,1803.650
5424,1767.760
5425,1758.979
5426,1752.372
5427,1742.142
5428,1699.645
5429,1705.484
5430,1688.647
5431,1635.152
5432,1613.925
5433,1591.930
5434,1555.315
5435,1528.930
5436,1529.654
5437,1469.595
5438,1441.036
5439,1448.368
5440,1402.929
5441,1357.491
5442,1328.932
5443,1314.268
5444,1323.092
5445,1293.766
5446,1242.487
5447,1257.875
5448,1233.706
5449,1203.656
5450,1234.431
5451,1191.209
5452,1214.653
5453,1169.982
5454,1191.209
5455,1162.650
5456,1184.602
5457,1154.594
5458,1190.484
5459,1150.928
5460,1186.094
5461,1145.770
5462,1176.546
5463,1167.765
5464,1177.270
5465,1162.650
5466,1137.714
5467,1181.703
5468,1148.711
5469,1179.487
5470,1210.262
5471,1186.819
5472,1197.816
5473,1242.487
5474,1271.046
5475,1284.985
5476,1266.656
5477,1281.319
5478,1301.097
5479,1345.811
5480,1333.322
5481,1362.648
5482,1396.322
5483,1401.480
5484,1399.988
5485,1408.812
5486,1443.210
5487,1434.429
5488,1438.820
5489,1419.042
5490,1432.255
5491,1430.764
5492,1421.983
5493,1406.595
5494,1399.988
5495,1386.092
5496,1338.480
5497,1325.266
5498,1321.600
5499,1315.036
5500,1323.092
5501,1295.982
5502,1267.380
5503,1293.041
5504,1251.268
5505,1276.204
5506,1292.316
5507,1253.485
5508,1304.763
5509,1298.923
5510,1291.592
5511,1325.266
5512,1336.988
5513,1366.314
5514,1364.822
5515,1384.600
5516,1391.207
5517,1459.323
5518,1457.149
5519,1515.034
5520,1524.539
5521,1554.590
5522,1565.588
5523,1605.869
5524,1641.035
5525,1649.815
5526,1676.925
5527,1737.752
5528,1755.313
5529,1751.647
5530,1761.920
5531,1783.148
5532,1779.482
5533,1801.477
5534,1808.041
5535,1819.763
5536,1818.314
5537,1791.204
5538,1789.030
5539,1786.089
5540,1761.920
5541,1761.920
5542,1741.375
5543,1720.147
5544,1701.094
5545,1721.597
5546,1674.709
5547,1657.872
5548,1668.869
5549,1622.706
5550,1636.644
5551,1589.032
5552,1612.476
5553,1580.208
5554,1560.430
5555,1554.590
5556,1540.652
5557,1573.644
5558,1550.925
5559,1578.034
5560,1547.259
5561,1588.264
5562,1580.208
5563,1617.591
5564,1610.259
5565,1614.649
5566,1632.978
5567,1662.987
5568,1690.864
5569,1689.372
5570,1714.308
5571,1733.319
5572,1733.319
5573,1730.420
5574,1752.372
5575,1739.201
5576,1761.196
5577,1726.754
5578,1746.532
5579,1739.925
5580,1742.142
5581,1772.150
5582,1742.867
5583,1786.089
5584,1769.252
5585,1756.763
5586,1797.086
5587,1767.760
5588,1786.813
5589,1797.811
5590,1789.030
5591,1792.696
5592,1833.701
5593,1803.650
5594,1838.816
5595,1805.867
5596,1834.426
5597,1796.361
5598,1811.707
5599,1781.698
5600,1795.594
5601,1761.196
5602,1725.262
5603,1728.204
5604,1684.981
5605,1643.208
5606,1610.984
5607,1583.874
5608,1557.531
5609,1495.256
5610,1432.980
5611,1410.261
5612,1372.154
5613,1277.653
5614,1249.819
5615,1181.703
5616,1097.433
5617,1065.208
5618,997.050
5619,978.764
5620,931.151
5621,891.595
5622,854.213
5623,819.771
5624,753.105
5625,765.552
5626,710.608
5627,728.212
5628,687.931
5629,692.321
5630,681.324
5631,677.658
5632,690.105
5633,685.715
5634,685.715
5635,682.773
5636,695.987
5637,668.153
5638,720.880
5639,717.215
5640,696.712
5641,753.830
5642,721.605
5643,768.493
5644,781.707
5645,764.827
5646,795.603
5647,830.044
5648,802.210
5649,835.159
5650,864.485
5651,865.935
5652,874.715
5653,880.598
5654,945.047
5655,922.328
5656,978.764
5657,958.261
5658,1003.657
5659,999.267
5660,1052.037
5661,1073.265
5662,1068.874
5663,1095.984
5664,1123.818
5665,1178.038
5666,1229.316
5667,1246.153
5668,1265.931
5669,1317.210
5670,1374.370
5671,1446.876
5672,1473.261
5673,1564.096
5674,1625.647
5675,1692.313
5676,1776.541
5677,1882.039
5678,1942.140
5679,2023.427
5680,2114.304
5681,2177.305
5682,2241.754
5683,2288.642
5684,2350.918
5685,2393.415
5686,2457.865
5687,2495.247
5688,2504.028
5689,2526.023
5690,2557.523
5691,2553.857
5692,2575.085
5693,2571.419
5694,2557.523
5695,2574.360
5696,2572.186
5697,2569.245
5698,2550.916
5699,2558.248
5700,2535.528
5701,2517.242
5702,2525.298
5703,2508.419
5704,2480.584
5705,2483.525
5706,2474.744
5707,2449.809
5708,2426.365
5709,2401.471
5710,2407.311
5711,2378.027
5712,2346.527
5713,2315.752
5714,2293.032
5715,2287.917
5716,2273.254
5717,2232.973
5718,2217.586
5719,2188.302
5720,2181.695
5721,2126.026
5722,2117.970
5723,2075.473
5724,2057.868
5725,2002.199
5726,1980.205
5727,1923.087
5728,1902.584
5729,1838.092
5730,1796.361
5731,1742.142
5732,1684.257
5733,1643.208
5734,1574.369
5735,1499.646
5736,1431.488
5737,1332.597
5738,1292.316
5739,1210.262
5740,1088.652
5741,1050.545
5742,962.652
5743,896.710
5744,816.106
5745,750.931
5746,677.658
5747,606.602
5748,583.158
5749,537.719
5750,484.267
5751,436.612
5752,437.379
5753,414.660
5754,358.991
5755,394.157
5756,386.101
5757,376.553
5758,385.333
5759,391.216
5760,402.213
5761,377.277
5762,394.157
5763,437.379
5764,464.489
5765,484.267
5766,505.494
5767,501.829
5768,537.719
5769,564.829
5770,586.099
5771,600.720
5772,620.498
5773,646.883
5774,662.271
5775,677.658
5776,685.715
5777,676.934
5778,727.487
5779,722.330
5780,747.990
5781,739.209
5782,778.041
5783,812.440
5784,795.603
5785,844.707
5786,882.047
5787,904.766
5788,915.039
5789,933.325
5790,937.716
5791,984.604
5792,1035.157
5793,1070.323
5794,1109.880
5795,1147.987
5796,1187.543
5797,1230.041
5798,1269.597
5799,1328.932
5800,1347.985
5801,1431.488
5802,1441.036
5803,1487.200
5804,1536.261
5805,1585.366
5806,1617.591
5807,1662.262
5808,1712.091
5809,1731.869
5810,1762.645
5811,1758.254
5812,1786.089
5813,1787.538
5814,1789.030
5815,1782.423
5816,1797.086
5817,1758.254
5818,1786.089
5819,1757.530
5820,1728.204
5821,1726.030
5822,1733.319
5823,1706.976
5824,1679.142
5825,1682.040
5826,1651.265
5827,1641.035
5828,1628.588
5829,1637.369
5830,1593.422
5831,1596.321
5832,1561.922
5833,1567.762
5834,1523.090
5835,1502.587
5836,1504.037
5837,1509.152
5838,1531.871
5839,1539.927
5840,1532.596
5841,1530.422
5842,1569.978
5843,1586.815
5844,1642.484
5845,1673.984
5846,1673.259
5847,1705.484
5848,1758.254
5849,1783.872
5850,1812.474
5851,1806.592
5852,1849.089
5853,1853.480
5854,1854.204
5855,1888.645
5856,1875.474
5857,1900.367
5858,1890.095
5859,1915.031
5860,1924.536
5861,1913.539
5862,1931.143
5863,1929.694
5864,1958.253
5865,1936.258
5866,1956.036
5867,1969.975
5868,1957.528
5869,1979.480
5870,1946.531
5871,1955.312
5872,1954.587
5873,1923.811
5874,1929.694
5875,1915.031
5876,1907.699
5877,1876.923
5878,1838.092
5879,1827.094
5880,1800.752
5881,1788.263
5882,1717.206
5883,1682.807
5884,1621.256
5885,1571.427
5886,1541.376
5887,1485.708
5888,1374.370
5889,1333.322
5890,1249.819
5891,1183.877
5892,1136.265
5893,1017.596
5894,990.486
5895,913.547
5896,822.713
5897,780.215
5898,703.319
5899,657.880
5900,588.273
5901,589.765
5902,553.107
5903,523.823
5904,502.553
5905,483.500
5906,476.211
5907,441.045
5908,440.278
5909,436.612
5910,443.219
5911,454.216
5912,471.778
5913,509.160
5914,506.944
5915,551.658
5916,572.161
5917,594.880
5918,619.773
5919,617.599
5920,657.880
5921,702.552
5922,719.431
5923,703.319
5924,769.985
5925,764.103
5926,764.103
5927,808.049
5928,847.606
5929,863.718
5930,869.600
5931,879.873
5932,887.162
5933,941.382
5934,928.210
5935,972.882
5936,1009.540
5937,1028.593
5938,1019.045
5939,1057.152
5940,1099.650
5941,1123.818
5942,1136.989
5943,1138.481
5944,1183.153
5945,1230.041
5946,1260.092
5947,1302.546
5948,1381.702
5949,1456.424
5950,1477.652
5951,1552.374
5952,1624.198
5953,1701.094
5954,1762.645
5955,1814.648
5956,1887.196
5957,1963.368
5958,2020.528
5959,2080.588
5960,2130.417
5961,2158.976
5962,2194.142
5963,2212.470
5964,2238.088
5965,2263.749
5966,2286.468
5967,2293.032
5968,2295.249
5969,2319.418
5970,2302.581
5971,2295.249
5972,2323.083
5973,2317.968
5974,2292.308
5975,2310.637
5976,2298.190
5977,2301.856
5978,2289.367
5979,2255.693
5980,2254.968
5981,2217.586
5982,2217.586
5983,2190.476
5984,2155.310
5985,2126.751
5986,2081.312
5987,2019.804
5988,1993.419
5989,1958.253
5990,1895.252
5991,1847.640
5992,1783.148
5993,1743.591
5994,1724.538
5995,1643.976
5996,1603.652
5997,1585.366
5998,1524.539
5999,1454.208
6000,1408.044
6001,1398.539
6002,1333.322
6003,1267.380
6004,1225.650
6005,1175.097
6006,1094.492
6007,1057.152
6008,1005.874
6009,942.873
6010,866.659
6011,830.044
6012,788.996
6013,745.774
6014,671.051
6015,641.043
6016,590.489
6017,601.487
6018,577.276
6019,559.714
6020,562.655
6021,561.163
6022,561.163
6023,569.944
6024,561.888
6025,626.380
6026,621.990
6027,674.717
6028,725.271
6029,728.937
6030,802.934
6031,832.218
6032,887.162
6033,904.766
6034,923.820
6035,973.649
6036,1021.986
6037,1047.604
6038,1060.818
6039,1109.880
6040,1082.045
6041,1123.818
6042,1141.380
6043,1132.599
6044,1139.206
6045,1123.094
6046,1129.658
6047,1151.653
6048,1118.703
6049,1132.599
6050,1148.711
6051,1158.260
6052,1153.102
6053,1167.040
6054,1165.591
6055,1180.936
6056,1188.992
6057,1206.597
6058,1221.984
6059,1219.043
6060,1225.650
6061,1240.313
6062,1306.212
6063,1289.375
6064,1362.648
6065,1353.867
6066,1403.654
6067,1438.095
6068,1454.208
6069,1499.646
6070,1545.809
6071,1573.644
6072,1600.754
6073,1636.644
6074,1697.428
6075,1726.030
6076,1775.816
6077,1813.923
6078,1873.258
6079,1909.873
6080,1979.480
6081,1999.258
6082,2038.090
6083,2093.759
6084,2121.636
6085,2168.481
6086,2189.027
6087,2208.080
6088,2208.080
6089,2230.032
6090,2213.195
6091,2230.757
6092,2236.639
6093,2224.192
6094,2199.257
6095,2172.914
6096,2147.254
6097,2123.085
6098,2081.312
6099,2068.866
6100,2013.921
6101,1991.927
6102,1976.582
6103,1923.087
6104,1882.039
6105,1862.260
6106,1802.201
6107,1747.257
6108,1720.147
6109,1704.760
6110,1654.206
6111,1597.088
6112,1558.256
6113,1525.264
6114,1506.978
6115,1480.593
6116,1467.421
6117,1465.930
6118,1412.477
6119,1433.705
6120,1402.929
6121,1405.146
6122,1380.935
6123,1370.704
6124,1383.151
6125,1361.924
6126,1377.311
6127,1397.814
6128,1371.429
6129,1385.368
6130,1388.266
6131,1406.595
6132,1412.477
6133,1447.601
6134,1431.488
6135,1438.095
6136,1454.932
6137,1461.539
6138,1481.317
6139,1501.095
6140,1517.208
6141,1488.649
6142,1489.373
6143,1501.820
6144,1493.039
6145,1484.258
6146,1481.317
6147,1471.812
6148,1463.756
6149,1467.421
6150,1476.927
6151,1420.533
6152,1431.488
6153,1423.432
6154,1397.814
6155,1367.763
6156,1364.822
6157,1381.702
6158,1412.477
6159,1416.100
6160,1431.488
6161,1462.988
6162,1465.205
6163,1450.542
6164,1482.042
6165,1424.924
6166,1398.539
6167,1383.876
6168,1294.490
6169,1264.482
6170,1180.936
6171,1128.933
6172,1101.824
6173,1036.649
6174,969.983
6175,885.713
6176,883.539
6177,840.274
6178,805.151
6179,775.100
6180,742.875
6181,722.330
6182,694.495
6183,656.431
6184,624.163
6185,643.217
6186,625.655
6187,623.439
6188,620.498
6189,615.383
6190,637.377
6191,647.607
6192,646.883
6193,701.827
6194,682.773
6195,713.549
6196,749.439
6197,780.940
6198,807.325
6199,819.047
6200,817.597
6201,836.651
6202,872.542
6203,887.929
6204,874.715
6205,894.494
6206,924.545
6207,955.320
6208,972.157
6209,986.820
6210,987.545
6211,1017.596
6212,1049.821
6213,1060.818
6214,1059.326
6215,1090.102
6216,1131.150
6217,1146.538
6218,1150.203
6219,1188.992
6220,1210.262
6221,1216.869
6222,1207.321
6223,1268.872
6224,1246.153
6225,1311.370
6226,1309.878
6227,1324.541
6228,1361.924
6229,1378.761
6230,1419.766
6231,1394.148
6232,1431.488
6233,1427.822
6234,1417.592
6235,1442.486
6236,1424.924
6237,1432.980
6238,1441.761
6239,1401.480
6240,1364.097
6241,1350.926
6242,1351.651
6243,1309.153
6244,1279.102
6245,1225.650
6246,1202.206
6247,1190.484
6248,1127.484
6249,1057.877
6250,1009.540
6251,960.435
6252,942.873
6253,865.935
6254,813.207
6255,787.547
6256,681.324
6257,657.880
6258,599.995
6259,496.714
6260,482.050
6261,417.601
6262,309.162
6263,243.945
6264,224.167
6265,157.501
6266,68.883
6267,28.559
6268,0.725
6269,0.000
6270,0.725
6271,1.449
6272,0.000
6273,1.449
6274,0.725
6275,0.000
6276,1.449
6277,1.449
6278,0.000
6279,1.449
6280,1.449
6281,0.725
6282,0.725
6283,1.449
6284,0.725
6285,0.725
6286,0.725
6287,0.725
6288,0.725
6289,0.725
6290,10.997
6291,51.278
6292,190.493
6293,298.165
6294,432.221
6295,575.102
6296,695.987
6297,850.547
6298,973.649
6299,1568.486
6300,1601.478
6301,1561.922
6302,1554.590
6303,1539.927
6304,1503.312
6305,1444.702
6306,1386.817
6307,1373.646
6308,1302.546
6309,1276.204
6310,1253.485
6311,1219.043
6312,1170.706
6313,1098.882
6314,1095.984
6315,1072.540
6316,1042.489
6317,1014.655
6318,1006.598
6319,996.326
6320,985.371
6321,981.705
6322,980.213
6323,981.705
6324,999.267
6325,1007.323
6326,1011.713
6327,1024.160
6328,1043.938
6329,1040.315
6330,1098.882
6331,1098.882
6332,1147.987
6333,1143.596
6334,1189.760
6335,1245.428
6336,1268.148
6337,1306.212
6338,1323.092
6339,1323.817
6340,1379.485
6341,1397.814
6342,1397.090
6343,1449.093
6344,1431.488
6345,1487.924
6346,1494.489
6347,1481.317
6348,1485.708
6349,1485.708
6350,1484.258
6351,1430.039
6352,1450.542
6353,1432.980
6354,1382.426
6355,1363.373
6356,1322.367
6357,1340.654
6358,1317.934
6359,1286.434
6360,1244.704
6361,1248.370
6362,1228.591
6363,1226.375
6364,1173.647
6365,1208.813
6366,1180.936
6367,1204.380
6368,1188.268
6369,1202.206
6370,1175.097
6371,1179.487
6372,1202.206
6373,1156.043
6374,1180.936
6375,1140.655
6376,1165.591
6377,1128.933
6378,1088.652
6379,1066.658
6380,1066.658
6381,1071.048
6382,1055.660
6383,1046.155
6384,1051.270
6385,1065.208
6386,1084.262
6387,1094.492
6388,1145.770
6389,1160.433
6390,1223.434
6391,1273.987
6392,1293.041
6393,1359.707
6394,1381.702
6395,1376.544
6396,1432.980
6397,1407.320
6398,1419.042
6399,1452.034
6400,1412.477
6401,1441.036
6402,1412.477
6403,1419.042
6404,1391.207
6405,1425.649
6406,1394.148
6407,1384.600
6408,1399.988
6409,1356.041
6410,1338.480
6411,1312.095
6412,1287.201
6413,1273.987
6414,1250.543
6415,1194.875
6416,1205.147
6417,1134.816
6418,1147.987
6419,1106.214
6420,1060.818
6421,1070.323
6422,1063.759
6423,1058.601
6424,1060.093
6425,1071.815
6426,1082.045
6427,1101.824
6428,1114.270
6429,1117.211
6430,1182.428
6431,1221.984
6432,1276.204
6433,1323.817
6434,1357.491
6435,1407.320
6436,1435.154
6437,1501.095
6438,1514.309
6439,1553.098
6440,1619.040
6441,1665.203
6442,1668.869
6443,1687.923
6444,1724.538
6445,1776.541
6446,1772.918
6447,1799.985
6448,1844.699
6449,1869.592
6450,1874.750
6451,1908.424
6452,1967.034
6453,1988.261
6454,1992.694
6455,1994.143
6456,2015.371
6457,2032.975
6458,2050.537
6459,2043.248
6460,2060.085
6461,2062.259
6462,2056.419
6463,2066.692
6464,2033.700
6465,2049.812
6466,2001.475
6467,1996.360
6468,2005.141
6469,1965.584
6470,1934.809
6471,1944.314
6472,1893.760
6473,1865.201
6474,1832.252
6475,1811.707
6476,1807.316
6477,1751.647
6478,1745.808
6479,1727.479
6480,1668.144
6481,1620.532
6482,1602.928
6483,1571.427
6484,1519.424
6485,1474.710
6486,1427.098
6487,1393.424
6488,1357.491
6489,1273.987
6490,1269.597
6491,1213.928
6492,1192.658
6493,1151.653
6494,1138.481
6495,1113.545
6496,1065.933
6497,1066.658
6498,1043.938
6499,1010.264
6500,972.882
6501,994.152
6502,994.876
6503,975.098
6504,996.326
6505,982.430
6506,970.708
6507,1016.104
6508,1010.989
6509,1056.427
6510,1034.433
6511,1082.045
6512,1097.433
6513,1094.492
6514,1113.545
6515,1109.155
6516,1138.481
6517,1175.097
6518,1195.599
6519,1214.653
6520,1243.979
6521,1254.934
6522,1283.536
6523,1325.266
6524,1389.033
6525,1442.486
6526,1477.652
6527,1506.211
6528,1509.152
6529,1531.871
6530,1580.975
6531,1569.253
6532,1569.978
6533,1553.866
6534,1541.376
6535,1480.593
6536,1486.432
6537,1456.424
6538,1395.598
6539,1391.207
6540,1326.758
6541,1272.538
6542,1241.038
6543,1186.819
6544,1180.936
6545,1119.428
6546,1101.099
6547,1043.938
6548,1027.826
6549,1036.649
6550,1038.099
6551,1026.377
6552,1019.045
6553,1010.264
6554,1057.877
6555,1079.104
6556,1128.933
6557,1158.260
6558,1222.709
6559,1260.092
6560,1307.704
6561,1356.766
6562,1421.258
6563,1493.039
6564,1548.708
6565,1655.698
6566,1678.374
6567,1750.198
6568,1831.485
6569,1858.595
6570,1923.811
6571,1947.255
6572,2009.531
6573,2020.528
6574,2030.034
6575,2050.537
6576,2067.416
6577,2065.200
6578,2053.478
6579,2036.641
6580,2029.309
6581,1988.261
6582,1998.534
6583,1971.424
6584,1933.317
6585,1889.370
6586,1841.033
6587,1813.199
6588,1786.089
6589,1750.923
6590,1692.313
6591,1671.085
6592,1622.706
6593,1589.756
6594,1594.871
6595,1548.708
6596,1515.034
6597,1500.371
6598,1453.483
6599,1449.817
6600,1417.592
6601,1410.985
6602,1387.541
6603,1394.148
6604,1424.199
6605,1419.042
6606,1423.432
6607,1394.148
6608,1438.095
6609,1451.266
6610,1421.983
6611,1468.871
6612,1443.210
6613,1454.932
6614,1474.710
6615,1435.921
6616,1449.093
6617,1469.595
6618,1438.820
6619,1405.146
6620,1388.266
6621,1370.704
6622,1351.651
6623,1334.089
6624,1323.817
6625,1313.544
6626,1256.426
6627,1263.757
6628,1213.204
6629,1179.487
6630,1161.925
6631,1151.653
6632,1122.326
6633,1088.652
6634,1073.989
6635,1009.540
6636,987.545
6637,980.213
6638,941.382
6639,901.825
6640,874.715
6641,858.603
6642,847.606
6643,827.103
6644,830.769
6645,822.713
6646,886.437
6647,923.820
6648,962.652
6649,1065.208
6650,1115.037
6651,1221.984
6652,1298.156
6653,1414.651
6654,1519.424
6655,1586.815
6656,1639.543
6657,1732.594
6658,1776.541
6659,1813.199
6660,1857.145
6661,1873.258
6662,1887.921
6663,1892.311
6664,1885.704
6665,1857.145
6666,1823.429
6667,1821.255
6668,1756.763
6669,1697.428
6670,1652.032
6671,1597.088
6672,1494.489
6673,1456.424
6674,1386.817
6675,1286.434
6676,1215.378
6677,1125.267
6678,1078.380
6679,1032.984
6680,945.772
6681,899.651
6682,879.873
6683,808.774
6684,805.875
6685,799.269
6686,799.993
6687,801.485
6688,813.207
6689,836.651
6690,858.603
6691,868.876
6692,941.382
6693,1005.149
6694,1054.936
6695,1113.545
6696,1147.987
6697,1217.594
6698,1309.878
6699,1385.368
6700,1460.090
6701,1551.649
6702,1657.147
6703,1749.474
6704,1838.092
6705,1932.592
6706,2013.197
6707,2091.585
6708,2149.470
6709,2221.251
6710,2293.757
6711,2318.693
6712,2361.190
6713,2357.525
6714,2394.864
6715,2369.971
6716,2378.752
6717,2365.581
6718,2326.749
6719,2317.201
6720,2303.305
6721,2273.979
6722,2237.364
6723,2208.080
6724,2189.751
6725,2179.478
6726,2171.422
6727,2177.305
6728,2208.080
6729,2205.139
6730,2218.310
6731,2248.361
6732,2293.032
6733,2323.808
6734,2353.134
6735,2367.755
6736,2382.418
6737,2386.084
6738,2371.421
6739,2359.699
6740,2355.308
6741,2325.300
6742,2285.701
6743,2244.695
6744,2208.805
6745,2123.085
6746,2073.256
6747,2006.590
6748,1922.362
6749,1878.373
6750,1775.816
6751,1700.369
6752,1637.369
6753,1575.818
6754,1471.812
6755,1389.033
6756,1329.656
6757,1238.821
6758,1175.097
6759,1114.270
6760,1065.208
6761,982.430
6762,981.705
6763,943.598
6764,922.328
6765,873.991
6766,909.157
6767,873.991
6768,863.718
6769,907.708
6770,904.042
6771,898.159
6772,898.159
6773,910.606
6774,902.550
6775,953.828
6776,955.320
6777,1004.382
6778,993.427
6779,1039.548
6780,1128.933
6781,1150.928
6782,1216.102
6783,1260.816
6784,1306.212
6785,1394.148
6786,1415.376
6787,1425.649
6788,1479.143
6789,1479.868
6790,1449.093
6791,1460.090
6792,1415.376
6793,1400.755
6794,1380.210
6795,1340.654
6796,1303.314
6797,1237.372
6798,1193.425
6799,1170.706
6800,1128.933
6801,1084.986
6802,1060.093
6803,989.761
6804,958.261
6805,934.050
6806,894.494
6807,848.373
6808,832.985
6809,799.993
6810,770.710
6811,741.383
6812,702.552
6813,667.386
6814,657.880
6815,687.931
6816,648.332
6817,674.717
6818,640.276
6819,684.990
6820,710.608
6821,727.487
6822,776.549
6823,806.600
6824,857.878
6825,902.550
6826,1005.874
6827,1049.821
6828,1139.206
6829,1227.824
6830,1268.148
6831,1355.317
6832,1419.766
6833,1457.873
6834,1520.149
6835,1534.812
6836,1588.264
6837,1575.093
6838,1609.534
6839,1649.815
6840,1635.152
6841,1645.425
6842,1665.203
6843,1679.866
6844,1642.484
6845,1641.035
6846,1670.318
6847,1657.147
6848,1624.922
6849,1632.254
6850,1629.313
6851,1594.147
6852,1601.478
6853,1556.040
6854,1582.425
6855,1533.320
6856,1514.309
6857,1495.980
6858,1509.876
6859,1495.980
6860,1486.432
6861,1473.261
6862,1462.988
6863,1447.601
6864,1430.764
6865,1419.042
6866,1421.983
6867,1415.376
6868,1416.100
6869,1416.868
6870,1419.042
6871,1423.432
6872,1419.766
6873,1415.376
6874,1437.371
6875,1432.255
6876,1439.544
6877,1441.036
6878,1424.199
6879,1385.368
6880,1386.092
6881,1396.322
6882,1349.434
6883,1355.317
6884,1299.648
6885,1303.314
6886,1248.370
6887,1218.319
6888,1201.482
6889,1143.596
6890,1161.158
6891,1094.492
6892,1115.762
6893,1083.537
6894,1068.149
6895,1060.818
6896,1043.938
6897,1038.099
6898,1024.160
6899,999.267
6900,990.486
6901,982.430
6902,989.761
6903,992.660
6904,1001.483
6905,980.938
6906,1002.933
6907,1004.382
6908,1019.045
6909,1030.042
6910,1081.321
6911,1125.267
6912,1186.819
6913,1213.204
6914,1253.485
6915,1309.878
6916,1365.589
6917,1381.702
6918,1391.207
6919,1414.651
6920,1455.699
6921,1451.266
6922,1431.488
6923,1410.261
6924,1394.873
6925,1366.314
6926,1312.819
6927,1276.204
6928,1253.485
6929,1191.934
6930,1189.760
6931,1136.265
6932,1093.043
6933,1042.489
6934,995.601
6935,947.264
6936,900.376
6937,815.381
6938,802.934
6939,738.442
6940,717.215
6941,714.274
6942,687.164
6943,643.942
6944,646.158
6945,624.163
6946,642.492
6947,612.441
6948,643.942
6949,661.546
6950,670.327
6951,723.822
6952,754.597
6953,775.100
6954,843.940
6955,899.651
6956,953.828
6957,994.876
6958,1079.871
6959,1140.655
6960,1205.147
6961,1232.982
6962,1331.873
6963,1406.595
6964,1476.927
6965,1536.261
6966,1578.034
6967,1667.420
6968,1717.931
6969,1779.482
6970,1807.316
6971,1843.207
6972,1917.972
6973,1939.924
6974,1982.421
6975,2016.138
6976,2038.090
6977,2072.531
6978,2092.310
6979,2090.860
6980,2105.481
6981,2086.470
6982,2117.203
6983,2118.695
6984,2109.914
6985,2087.919
6986,2072.531
6987,2076.922
6988,2032.250
6989,2005.141
6990,2006.590
6991,1986.812
6992,1939.924
6993,1919.421
6994,1922.362
6995,1876.199
6996,1876.199
6997,1856.421
6998,1816.864
6999,1813.923
7000,1816.140
7001,1810.257
7002,1789.755
7003,1782.423
7004,1747.982
7005,1722.364
7006,1699.645
7007,1687.198
7008,1661.537
7009,1649.091
7010,1629.313
7011,1621.981
7012,1584.599
7013,1539.927
7014,1547.259
7015,1477.652
7016,1442.486
7017,1431.488
7018,1416.100
7019,1386.817
7020,1312.095
7021,1312.095
7022,1251.268
7023,1239.546
7024,1221.260
7025,1193.425
7026,1165.591
7027,1135.540
7028,1100.374
7029,1064.484
7030,1070.323
7031,1026.377
7032,1051.270
7033,1041.764
7034,1031.492
7035,998.542
7036,1008.048
7037,1030.767
7038,1010.989
7039,1044.706
7040,1016.104
7041,1056.427
7042,1090.826
7043,1101.099
7044,1117.211
7045,1188.992
7046,1220.535
7047,1257.150
7048,1302.546
7049,1356.041
7050,1414.651
7051,1433.705
7052,1452.034
7053,1460.814
7054,1509.876
7055,1490.865
7056,1520.149
7057,1539.203
7058,1521.598
7059,1515.759
7060,1532.596
7061,1513.542
7062,1488.649
7063,1504.037
7064,1499.646
7065,1475.478
7066,1490.098
7067,1442.486
7068,1473.986
7069,1458.598
7070,1449.817
7071,1411.710
7072,1380.935
7073,1394.148
7074,1338.480
7075,1334.814
7076,1336.263
7077,1312.095
7078,1295.257
7079,1262.990
7080,1244.704
7081,1251.268
7082,1233.706
7083,1197.091
7084,1197.091
7085,1205.872
7086,1224.926
7087,1211.712
7088,1224.158
7089,1267.380
7090,1286.434
7091,1274.712
7092,1336.263
7093,1366.314
7094,1367.763
7095,1408.044
7096,1442.486
7097,1498.154
7098,1533.320
7099,1539.927
7100,1556.040
7101,1573.644
7102,1613.200
7103,1634.428
7104,1627.821
7105,1648.366
7106,1667.420
7107,1648.366
7108,1671.085
7109,1664.479
7110,1648.366
7111,1641.035
7112,1643.208
7113,1616.866
7114,1586.090
7115,1601.478
7116,1540.652
7117,1520.149
7118,1491.590
7119,1478.376
7120,1443.977
7121,1428.590
7122,1428.590
7123,1371.429
7124,1383.151
7125,1319.426
7126,1321.600
7127,1324.541
7128,1279.870
7129,1265.931
7130,1304.763
7131,1277.653
7132,1252.035
7133,1293.041
7134,1291.592
7135,1278.378
7136,1289.375
7137,1289.375
7138,1317.210
7139,1331.873
7140,1333.322
7141,1378.761
7142,1356.041
7143,1388.266
7144,1369.980
7145,1386.092
7146,1372.154
7147,1390.483
7148,1385.368
7149,1339.204
7150,1357.491
7151,1347.985
7152,1313.544
7153,1329.656
7154,1291.592
7155,1317.210
7156,1287.926
7157,1284.985
7158,1262.990
7159,1308.429
7160,1272.538
7161,1305.488
7162,1275.479
7163,1278.378
7164,1285.709
7165,1325.266
7166,1314.268
7167,1289.375
7168,1272.538
7169,1290.100
7170,1290.100
7171,1255.701
7172,1253.485
7173,1251.268
7174,1242.487
7175,1258.600
7176,1262.265
7177,1306.979
7178,1339.929
7179,1359.707
7180,1396.322
7181,1403.654
7182,1416.868
7183,1412.477
7184,1432.255
7185,1441.036
7186,1409.536
7187,1402.929
7188,1388.266
7189,1371.429
7190,1326.758
7191,1299.648
7192,1220.535
7193,1204.380
7194,1161.925
7195,1111.372
7196,1059.326
7197,969.216
7198,934.817
7199,920.879
7200,875.440
7201,835.159
7202,774.375
7203,745.049
7204,724.546
7205,701.102
7206,651.273
7207,655.664
7208,610.268
7209,598.546
7210,635.885
7211,597.054
7212,643.217
7213,633.712
7214,673.993
7215,704.768
7216,717.215
7217,767.768
7218,768.493
7219,850.547
7220,876.207
7221,928.210
7222,985.371
7223,1060.093
7224,1085.711
7225,1171.431
7226,1256.426
7227,1307.704
7228,1390.483
7229,1468.871
7230,1504.761
7231,1613.200
7232,1687.198
7233,1734.086
7234,1790.479
7235,1857.870
7236,1939.199
7237,2024.919
7238,2082.037
7239,2114.304
7240,2187.535
7241,2233.698
7242,2267.415
7243,2331.140
7244,2360.423
7245,2400.747
7246,2400.022
7247,2438.811
7248,2427.857
7249,2440.303
7250,2433.696
7251,2389.749
7252,2378.027
7253,2343.586
7254,2282.802
7255,2209.529
7256,2171.422
7257,2093.034
7258,2019.036
7259,1949.472
7260,1888.645
7261,1841.758
7262,1786.813
7263,1706.251
7264,1667.420
7265,1632.254
7266,1543.593
7267,1543.593
7268,1472.536
7269,1434.429
7270,1444.702
7271,1415.376
7272,1376.544
7273,1356.766
7274,1303.314
7275,1315.760
7276,1273.263
7277,1253.485
7278,1230.765
7279,1210.987
7280,1153.869
7281,1151.653
7282,1156.768
7283,1137.714
7284,1116.487
7285,1104.040
7286,1077.655
7287,1078.380
7288,1079.871
7289,1082.770
7290,1053.486
7291,1062.267
7292,1069.599
7293,1087.928
7294,1095.259
7295,1110.604
7296,1117.211
7297,1129.658
7298,1136.989
7299,1146.538
7300,1149.436
7301,1123.094
7302,1107.706
7303,1126.759
7304,1130.425
7305,1123.818
7306,1073.265
7307,1103.315
7308,1061.543
7309,1092.318
7310,1105.489
7311,1106.214
7312,1145.770
7313,1128.209
7314,1158.984
7315,1214.653
7316,1240.313
7317,1243.212
7318,1304.763
7319,1267.380
7320,1314.268
7321,1276.929
7322,1258.600
7323,1232.257
7324,1195.599
7325,1167.040
7326,1160.433
7327,1135.540
7328,1109.155
7329,1083.537
7330,1049.096
7331,1069.599
7332,1057.877
7333,1033.708
7334,1067.382
7335,1055.660
7336,1084.986
7337,1106.981
7338,1139.206
7339,1162.650
7340,1183.877
7341,1205.872
7342,1228.591
7343,1244.704
7344,1247.602
7345,1265.931
7346,1270.322
7347,1287.926
7348,1339.204
7349,1358.982
7350,1362.648
7351,1345.811
7352,1358.258
7353,1367.039
7354,1385.368
7355,1437.371
7356,1441.761
7357,1444.702
7358,1457.149
7359,1498.154
7360,1504.761
7361,1502.587
7362,1538.478
7363,1555.315
7364,1571.427
7365,1608.810
7366,1589.756
7367,1591.206
7368,1605.869
7369,1614.649
7370,1630.762
7371,1629.313
7372,1668.869
7373,1639.543
7374,1630.037
7375,1665.928
7376,1635.920
7377,1628.588
7378,1615.374
7379,1617.591
7380,1629.313
7381,1627.096
7382,1596.321
7383,1562.647
7384,1591.206
7385,1547.259
7386,1527.481
7387,1533.320
7388,1491.590
7389,1484.983
7390,1470.320
7391,1446.151
7392,1441.761
7393,1442.486
7394,1409.536
7395,1423.432
7396,1441.761
7397,1414.651
7398,1402.929
7399,1388.266
7400,1413.202
7401,1419.766
7402,1402.205
7403,1405.870
7404,1411.710
7405,1414.651
7406,1430.764
7407,1414.651
7408,1422.707
7409,1415.376
7410,1438.095
7411,1435.921
7412,1454.208
7413,1443.977
7414,1432.255
7415,1395.598
7416,1390.483
7417,1393.424
7418,1385.368
7419,1370.704
7420,1319.426
7421,1315.036
7422,1325.266
7423,1279.870
7424,1293.041
7425,1258.600
7426,1228.591
7427,1225.650
7428,1235.880
7429,1225.650
7430,1199.990
7431,1199.990
7432,1201.482
7433,1197.091
7434,1180.212
7435,1147.262
7436,1144.321
7437,1113.545
7438,1038.099
7439,1052.037
7440,1032.216
7441,999.991
7442,1016.104
7443,1046.155
7444,1042.489
7445,1033.708
7446,1042.489
7447,1043.938
7448,1065.208
7449,1043.938
7450,1046.879
7451,1042.489
7452,1057.877
7453,1046.155
7454,1020.494
7455,1054.211
7456,1034.433
7457,1020.494
7458,1016.871
7459,1016.104
7460,1021.986
7461,1010.989
7462,1004.382
7463,1000.716
7464,992.660
7465,989.761
7466,978.764
7467,976.548
7468,969.983
7469,950.930
7470,949.438
7471,957.494
7472,964.101
7473,969.216
7474,936.991
7475,961.927
7476,986.096
7477,1002.208
7478,1008.048
7479,1034.433
7480,1054.936
7481,1087.160
7482,1129.658
7483,1164.099
7484,1188.992
7485,1230.041
7486,1251.268
7487,1295.982
7488,1350.926
7489,1411.710
7490,1463.756
7491,1491.590
7492,1520.149
7493,1596.321
7494,1607.318
7495,1657.147
7496,1685.706
7497,1758.979
7498,1764.819
7499,1789.030
7500,1812.474
7501,1840.308
7502,1832.977
7503,1852.755
7504,1895.977
7505,1874.750
7506,1881.314
7507,1890.095
7508,1895.977
7509,1930.418
7510,1916.480
7511,1904.033
7512,1917.972
7513,1926.028
7514,1934.084
7515,1900.367
7516,1908.424
7517,1906.250
7518,1877.648
7519,1879.140
7520,1859.362
7521,1841.758
7522,1796.361
7523,1784.640
7524,1732.594
7525,1680.591
7526,1631.487
7527,1597.812
7528,1528.930
7529,1504.037
7530,1480.593
7531,1437.371
7532,1402.929
7533,1371.429
7534,1307.704
7535,1281.319
7536,1298.923
7537,1270.322
7538,1289.375
7539,1249.094
7540,1271.046
7541,1260.816
7542,1257.875
7543,1267.380
7544,1250.543
7545,1252.760
7546,1267.380
7547,1257.875
7548,1252.035
7549,1226.375
7550,1225.650
7551,1202.931
7552,1197.816
7553,1169.982
7554,1166.316
7555,1199.990
7556,1173.647
7557,1159.709
7558,1159.709
7559,1175.821
7560,1170.706
7561,1167.765
7562,1154.594
7563,1169.214
7564,1165.591
7565,1166.316
7566,1168.490
7567,1151.653
7568,1144.321
7569,1135.540
7570,1123.094
7571,1082.770
7572,1073.265
7573,1082.045
7574,1056.427
7575,1082.045
7576,1107.706
7577,1112.821
7578,1117.211
7579,1119.428
7580,1149.436
7581,1169.214
7582,1183.153
7583,1234.431
7584,1229.316
7585,1241.038
7586,1275.479
7587,1239.546
7588,1270.322
7589,1282.044
7590,1273.263
7591,1265.931
7592,1237.372
7593,1271.814
7594,1224.926
7595,1268.872
7596,1235.880
7597,1230.041
7598,1271.046
7599,1229.316
7600,1273.263
7601,1232.982
7602,1276.204
7603,1258.600
7604,1235.880
7605,1278.378
7606,1272.538
7607,1246.153
7608,1244.704
7609,1290.824
7610,1261.541
7611,1315.036
7612,1313.544
7613,1340.654
7614,1328.207
7615,1329.656
7616,1364.097
7617,1399.263
7618,1413.927
7619,1427.822
7620,1459.323
7621,1473.261
7622,1518.700
7623,1531.146
7624,1569.253
7625,1622.706
7626,1622.706
7627,1668.869
7628,1705.484
7629,1735.535
7630,1743.591
7631,1780.974
7632,1799.260
7633,1815.372
7634,1802.201
7635,1812.474
7636,1815.372
7637,1802.201
7638,1786.089
7639,1778.033
7640,1777.308
7641,1773.642
7642,1727.479
7643,1712.091
7644,1694.529
7645,1683.532
7646,1640.310
7647,1627.096
7648,1564.820
7649,1559.705
7650,1521.598
7651,1473.986
7652,1451.266
7653,1410.261
7654,1405.146
7655,1384.600
7656,1315.036
7657,1337.712
7658,1295.982
7659,1267.380
7660,1247.602
7661,1279.870
7662,1283.536
7663,1277.653
7664,1262.990
7665,1253.485
7666,1268.872
7667,1309.878
7668,1301.097
7669,1325.266
7670,1363.373
7671,1386.092
7672,1358.982
7673,1387.541
7674,1430.039
7675,1440.312
7676,1462.264
7677,1469.595
7678,1451.266
7679,1432.255
7680,1439.544
7681,1465.930
7682,1456.424
7683,1423.432
7684,1402.929
7685,1425.649
7686,1367.763
7687,1377.311
7688,1321.600
7689,1335.538
7690,1279.102
7691,1299.648
7692,1265.931
7693,1219.768
7694,1186.819
7695,1164.099
7696,1142.147
7697,1151.653
7698,1123.818
7699,1061.543
7700,1019.045
7701,1004.382
7702,938.483
7703,928.210
7704,907.708
7705,836.651
7706,821.263
7707,830.769
7708,813.207
7709,813.932
7710,796.327
7711,863.718
7712,860.820
7713,934.817
7714,959.710
7715,973.649
7716,1049.821
7717,1078.380
7718,1109.155
7719,1119.428
7720,1124.543
7721,1124.543
7722,1142.872
7723,1172.880
7724,1139.206
7725,1151.653
7726,1147.987
7727,1144.321
7728,1156.043
7729,1148.711
7730,1134.048
7731,1112.821
7732,1081.321
7733,1084.986
7734,1032.984
7735,1041.040
7736,980.938
7737,996.326
7738,953.104
7739,937.716
7740,915.764
7741,899.651
7742,865.935
7743,852.763
7744,851.272
7745,841.766
7746,818.322
7747,860.095
7748,878.381
7749,899.651
7750,921.603
7751,917.213
7752,983.154
7753,1041.764
7754,1090.102
7755,1134.816
7756,1168.490
7757,1228.591
7758,1328.207
7759,1397.814
7760,1468.146
7761,1490.865
7762,1578.034
7763,1662.262
7764,1717.206
7765,1739.201
7766,1835.918
7767,1854.204
7768,1913.539
7769,1985.362
7770,2026.368
7771,2056.419
7772,2094.526
7773,2126.751
7774,2134.082
7775,2161.192
7776,2191.925
7777,2172.914
7778,2167.756
7779,2171.422
7780,2172.147
7781,2150.195
7782,2115.029
7783,2113.537
7784,2048.363
7785,2010.980
7786,1967.034
7787,1934.084
7788,1872.533
7789,1839.584
7790,1776.541
7791,1684.257
7792,1634.428
7793,1540.652
7794,1482.767
7795,1397.814
7796,1355.317
7797,1268.148
7798,1246.153
7799,1203.656
7800,1142.872
7801,1101.099
7802,1055.660
7803,1065.208
7804,1045.430
7805,1054.211
7806,1030.767
7807,1065.208
7808,1040.315
7809,1087.928
7810,1083.537
7811,1129.658
7812,1136.989
7813,1191.209
7814,1222.709
7815,1258.600
7816,1292.316
7817,1332.597
7818,1388.266
7819,1438.820
7820,1487.200
7821,1555.315
7822,1601.478
7823,1666.652
7824,1730.420
7825,1776.541
7826,1820.530
7827,1887.921
7828,1928.926
7829,1973.640
7830,2021.978
7831,2035.916
7832,2087.919
7833,2126.751
7834,2126.026
7835,2165.583
7836,2159.700
7837,2175.813
7838,2184.636
7839,2211.746
7840,2183.144
7841,2192.692
7842,2172.147
7843,2161.192
7844,2158.976
7845,2128.200
7846,2135.532
7847,2105.481
7848,2116.478
7849,2101.815
7850,2090.860
7851,2082.037
7852,2082.037
7853,2061.534
7854,2082.804
7855,2068.141
7856,2093.034
7857,2094.526
7858,2105.481
7859,2124.534
7860,2129.692
7861,2139.922
7862,2178.029
7863,2208.805
7864,2221.251
7865,2251.302
7866,2304.754
7867,2329.690
7868,2356.800
7869,2378.027
7870,2410.977
7871,2443.969
7872,2482.076
7873,2528.921
7874,2531.138
7875,2578.026
7876,2583.141
7877,2619.031
7878,2635.911
7879,2636.636
7880,2635.186
7881,2648.358
7882,2649.082
7883,2638.852
7884,2600.745
7885,2597.079
7886,2567.753
7887,2521.632
7888,2493.798
7889,2429.306
7890,2408.078
7891,2363.364
7892,2315.752
7893,2263.024
7894,2196.358
7895,2175.088
7896,2115.753
7897,2074.748
7898,2030.758
7899,1965.584
7900,1937.750
7901,1909.873
7902,1859.362
7903,1808.041
7904,1784.640
7905,1751.647
7906,1709.875
7907,1684.981
7908,1650.540
7909,1633.703
7910,1626.371
7911,1604.419
7912,1565.588
7913,1570.703
7914,1534.088
7915,1553.866
7916,1526.756
7917,1511.368
7918,1505.486
7919,1498.922
7920,1496.705
7921,1487.924
7922,1470.320
7923,1471.812
7924,1466.654
7925,1469.595
7926,1483.534
7927,1495.980
7928,1494.489
7929,1505.486
7930,1479.143
7931,1485.708
7932,1527.481
7933,1504.037
7934,1509.876
7935,1519.424
7936,1528.930
7937,1547.259
7938,1548.708
7939,1517.932
7940,1553.866
7941,1561.922
7942,1528.205
7943,1541.376
7944,1567.762
7945,1561.155
7946,1555.315
7947,1599.986
7948,1584.599
7949,1587.540
7950,1605.869
7951,1637.369
7952,1635.152
7953,1646.874
7954,1652.032
7955,1671.810
7956,1700.369
7957,1707.701
7958,1713.540
7959,1737.752
7960,1758.254
7961,1781.698
7962,1808.808
7963,1792.696
7964,1826.370
7965,1825.645
7966,1876.199
7967,1884.980
7968,1898.151
7969,1917.972
7970,1942.140
7971,1973.640
7972,2002.924
7973,2030.758
7974,2037.365
7975,2071.807
7976,2087.194
7977,2112.088
7978,2116.478
7979,2096.700
7980,2108.422
7981,2126.751
7982,2113.537
7983,2113.537
7984,2105.481
7985,2094.526
7986,2071.807
7987,2047.638
7988,2049.812
7989,2043.248
7990,2023.427
7991,2007.315
7992,1974.365
7993,1955.312
7994,1930.418
7995,1914.306
7996,1904.758
7997,1868.143
7998,1844.699
7999,1835.918
8000,1812.474
8001,1783.872
8002,1756.763
8003,1739.925
8004,1718.698
8005,1671.085
8006,1648.366
8007,1631.487
8008,1613.200
8009,1609.534
8010,1599.986
8011,1604.419
8012,1550.925
8013,1539.927
8014,1544.318
8015,1515.759
8016,1484.258
8017,1479.868
8018,1468.146
8019,1463.756
8020,1454.932
8021,1460.090
8022,1454.932
8023,1452.034
8024,1414.651
8025,1418.317
8026,1427.098
8027,1375.819
8028,1373.646
8029,1376.544
8030,1320.151
8031,1320.151
8032,1249.819
8033,1225.650
8034,1194.875
8035,1153.102
8036,1152.377
8037,1086.436
8038,1074.714
8039,1029.318
8040,1015.379
8041,1023.435
8042,1005.874
8043,972.882
8044,994.152
8045,971.432
8046,1005.874
8047,1021.262
8048,1002.933
8049,1013.930
8050,1021.986
8051,1044.706
8052,1057.152
8053,1113.545
8054,1107.706
8055,1145.770
8056,1140.655
8057,1167.765
8058,1163.375
8059,1169.982
8060,1190.484
8061,1209.538
8062,1188.992
8063,1222.709
8064,1249.094
8065,1226.375
8066,1264.482
8067,1236.648
8068,1270.322
8069,1246.878
8070,1259.324
8071,1259.324
8072,1265.931
8073,1273.263
8074,1301.822
8075,1289.375
8076,1295.982
8077,1306.979
8078,1317.934
8079,1334.814
8080,1363.373
8081,1402.205
8082,1428.590
8083,1427.098
8084,1444.702
8085,1473.986
8086,1520.874
8087,1556.764
8088,1546.534
8089,1608.043
8090,1604.419
8091,1624.198
8092,1639.543
8093,1657.872
8094,1684.981
8095,1690.864
8096,1706.976
8097,1728.204
8098,1745.041
8099,1767.035
8100,1780.206
8101,1774.367
8102,1791.928
8103,1823.429
8104,1840.308
8105,1849.814
8106,1862.260
8107,1863.028
8108,1883.530
8109,1854.929
8110,1845.423
8111,1834.426
8112,1813.199
8113,1810.257
8114,1771.426
8115,1748.706
8116,1709.150
8117,1659.364
8118,1623.430
8119,1589.756
8120,1561.155
8121,1517.932
8122,1458.598
8123,1452.758
8124,1409.536
8125,1330.423
8126,1313.544
8127,1271.814
8128,1247.602
8129,1178.762
8130,1188.992
8131,1133.324
8132,1112.096
8133,1077.655
8134,1101.099
8135,1062.992
8136,1059.326
8137,1048.371
8138,1042.489
8139,1051.270
8140,1054.211
8141,1071.048
8142,1120.877
8143,1121.602
8144,1110.604
8145,1172.155
8146,1149.436
8147,1186.094
8148,1219.043
8149,1242.487
8150,1233.706
8151,1236.648
8152,1249.094
8153,1273.987
8154,1307.704
8155,1312.095
8156,1286.434
8157,1292.316
8158,1292.316
8159,1321.600
8160,1325.990
8161,1329.656
8162,1300.373
8163,1296.707
8164,1299.648
8165,1290.100
8166,1309.878
8167,1298.923
8168,1287.926
8169,1282.768
8170,1257.150
8171,1238.097
8172,1253.485
8173,1203.656
8174,1215.378
8175,1191.209
8176,1145.770
8177,1137.714
8178,1138.481
8179,1096.708
8180,1125.992
8181,1086.436
8182,1055.660
8183,1079.871
8184,1043.214
8185,1064.484
8186,1070.323
8187,1038.099
8188,1029.318
8189,1021.986
8190,1055.660
8191,1061.543
8192,1030.767
8193,1068.874
8194,1060.818
8195,1049.821
8196,1095.984
8197,1089.377
8198,1087.928
8199,1135.540
8200,1122.326
8201,1165.591
8202,1170.706
8203,1197.816
8204,1224.158
8205,1255.701
8206,1276.204
8207,1260.816
8208,1273.263
8209,1294.490
8210,1342.145
8211,1363.373
8212,1348.710
8213,1389.758
8214,1382.426
8215,1442.486
8216,1432.980
8217,1468.871
8218,1444.702
8219,1490.865
8220,1464.480
8221,1509.876
8222,1479.143
8223,1512.093
8224,1489.373
8225,1504.761
8226,1508.427
8227,1490.865
8228,1506.211
8229,1525.264
8230,1503.312
8231,1527.481
8232,1510.644
8233,1504.037
8234,1504.761
8235,1532.596
8236,1559.705
8237,1559.705
8238,1551.649
8239,1575.093
8240,1594.147
8241,1610.984
8242,1641.759
8243,1652.032
8244,1632.978
8245,1660.813
8246,1657.147
8247,1676.925
8248,1674.709
8249,1657.147
8250,1634.428
8251,1630.762
8252,1628.588
8253,1629.313
8254,1583.874
8255,1561.922
8256,1563.371
8257,1518.700
8258,1526.031
8259,1461.539
8260,1457.873
8261,1430.764
8262,1375.819
8263,1342.145
8264,1323.817
8265,1318.701
8266,1253.485
8267,1269.597
8268,1205.872
8269,1211.712
8270,1178.762
8271,1193.425
8272,1196.324
8273,1147.987
8274,1143.596
8275,1166.316
8276,1161.925
8277,1170.706
8278,1194.150
8279,1178.762
8280,1158.984
8281,1194.150
8282,1205.147
8283,1186.094
8284,1188.268
8285,1221.984
8286,1227.824
8287,1211.712
8288,1214.653
8289,1226.375
8290,1254.209
8291,1212.436
8292,1240.313
8293,1219.768
8294,1252.035
8295,1258.600
8296,1228.591
8297,1213.204
8298,1208.046
8299,1243.979
8300,1216.102
8301,1226.375
8302,1233.706
8303,1199.990
8304,1176.546
8305,1161.925
8306,1156.043
8307,1156.768
8308,1169.214
8309,1170.706
8310,1138.481
8311,1141.380
8312,1142.147
8313,1133.324
8314,1123.094
8315,1120.152
8316,1108.430
8317,1090.826
8318,1118.703
8319,1114.270
8320,1126.759
8321,1129.658
8322,1125.992
8323,1110.604
8324,1104.040
8325,1090.826
8326,1094.492
8327,1083.537
8328,1093.767
8329,1098.158
8330,1095.984
8331,1109.880
8332,1110.604
8333,1146.538
8334,1136.989
8335,1153.102
8336,1165.591
8337,1168.490
8338,1156.768
8339,1187.543
8340,1222.709
8341,1213.204
8342,1230.041
8343,1253.485
8344,1215.378
8345,1245.428
8346,1234.431
8347,1265.207
8348,1275.479
8349,1271.814
8350,1311.370
8351,1282.044
8352,1289.375
8353,1309.878
8354,1314.268
8355,1325.990
8356,1350.202
8357,1375.819
8358,1411.710
8359,1430.039
8360,1449.093
8361,1451.266
8362,1480.593
8363,1505.486
8364,1519.424
8365,1580.208
8366,1613.925
8367,1625.647
8368,1666.652
8369,1709.875
8370,1755.313
8371,1802.926
8372,1809.533
8373,1873.982
8374,1879.865
8375,1929.694
8376,1953.862
8377,1981.697
8378,2002.199
8379,2011.705
8380,2015.371
8381,2041.756
8382,2026.368
8383,2051.304
8384,2024.194
8385,2030.758
8386,2030.034
8387,2011.705
8388,1991.202
8389,1967.758
8390,1921.595
8391,1908.424
8392,1868.867
8393,1831.485
8394,1814.648
8395,1776.541
8396,1734.810
8397,1687.198
8398,1646.874
8399,1599.262
8400,1560.430
8401,1521.598
8402,1507.702
8403,1489.373
8404,1444.702
8405,1384.600
8406,1368.488
8407,1344.319
8408,1299.648
8409,1295.982
8410,1299.648
8411,1237.372
8412,1263.757
8413,1224.926
8414,1202.206
8415,1204.380
8416,1199.990
8417,1210.987
8418,1180.212
8419,1202.931
8420,1187.543
8421,1185.369
8422,1209.538
8423,1186.819
8424,1215.378
8425,1215.378
8426,1230.765
8427,1186.094
8428,1215.378
8429,1193.425
8430,1211.712
8431,1222.709
8432,1203.656
8433,1224.158
8434,1199.265
8435,1202.931
8436,1203.656
8437,1205.872
8438,1167.765
8439,1186.819
8440,1200.714
8441,1174.372
8442,1170.706
8443,1158.260
8444,1144.321
8445,1174.372
8446,1187.543
8447,1167.765
8448,1195.599
8449,1155.318
8450,1203.656
8451,1188.268
8452,1193.425
8453,1218.319
8454,1193.425
8455,1227.100
8456,1214.653
8457,1253.485
8458,1218.319
8459,1254.934
8460,1273.263
8461,1252.760
8462,1287.201
8463,1295.982
8464,1312.095
8465,1311.370
8466,1336.263
8467,1341.378
8468,1347.985
8469,1402.929
8470,1383.151
8471,1393.424
8472,1424.924
8473,1410.261
8474,1460.090
8475,1432.980
8476,1457.149
8477,1488.649
8478,1475.478
8479,1512.093
8480,1531.871
8481,1517.932
8482,1531.146
8483,1556.764
8484,1586.090
8485,1592.697
8486,1606.593
8487,1623.430
8488,1630.762
8489,1639.543
8490,1625.647
8491,1627.096
8492,1654.930
8493,1643.208
8494,1668.869
8495,1665.928
8496,1671.810
8497,1684.981
8498,1681.316
8499,1676.201
8500,1680.591
8501,1710.642
8502,1716.482
8503,1734.086
8504,1750.923
8505,1772.918
8506,1769.976
8507,1757.530
8508,1780.974
8509,1799.260
8510,1768.484
8511,1763.369
8512,1765.586
8513,1769.252
8514,1752.372
8515,1714.308
8516,1709.875
8517,1708.425
8518,1675.476
8519,1661.537
8520,1653.481
8521,1633.703
8522,1638.818
8523,1613.200
8524,1612.476
8525,1608.810
8526,1586.090
8527,1567.037
8528,1561.922
8529,1530.422
8530,1517.932
8531,1506.211
8532,1512.093
8533,1498.154
8534,1473.261
8535,1438.820
8536,1433.705
8537,1425.649
8538,1413.927
8539,1400.755
8540,1396.322
8541,1394.873
8542,1387.541
8543,1410.261
8544,1421.258
8545,1428.590
8546,1404.378
8547,1404.378
8548,1410.985
8549,1452.758
8550,1442.486
8551,1435.154
8552,1444.702
8553,1482.042
8554,1495.980
8555,1497.430
8556,1494.489
8557,1487.924
8558,1477.652
8559,1511.368
8560,1511.368
8561,1498.922
8562,1495.980
8563,1525.264
8564,1527.481
8565,1489.373
8566,1495.980
8567,1481.317
8568,1501.820
8569,1473.261
8570,1479.868
8571,1464.480
8572,1486.432
8573,1449.093
8574,1484.983
8575,1455.699
8576,1462.264
8577,1466.654
8578,1482.042
8579,1476.927
8580,1464.480
8581,1493.039
8582,1486.432
8583,1512.093
8584,1484.258
8585,1521.598
8586,1508.427
8587,1506.978
8588,1545.809
8589,1537.711
8590,1539.927
8591,1556.040
8592,1553.098
8593,1536.986
8594,1541.376
8595,1543.593
8596,1541.376
8597,1542.868
8598,1556.764
8599,1577.310
8600,1537.711
8601,1564.820
8602,1562.647
8603,1572.152
8604,1535.537
8605,1575.093
8606,1557.531
8607,1568.486
8608,1579.484
8609,1596.321
8610,1592.697
8611,1598.537
8612,1616.141
8613,1650.540
8614,1680.591
8615,1706.251
8616,1694.529
8617,1739.201
8618,1748.706
8619,1763.369
8620,1775.816
8621,1784.640
8622,1796.361
8623,1806.592
8624,1820.530
8625,1829.311
8626,1832.252
8627,1849.089
8628,1867.418
8629,1871.084
8630,1878.373
8631,1882.806
8632,1889.370
8633,1890.095
8634,1893.036
8635,1896.702
8636,1923.087
8637,1908.424
8638,1909.148
8639,1884.255
8640,1876.199
8641,1856.421
8642,1847.640
8643,1823.429
8644,1799.260
8645,1766.311
8646,1734.086
8647,1707.701
8648,1683.532
8649,1668.869
8650,1642.484
8651,1614.649
8652,1599.986
8653,1577.310
8654,1528.205
8655,1520.874
8656,1475.478
8657,1477.652
8658,1452.758
8659,1446.876
8660,1383.876
8661,1398.539
8662,1342.145
8663,1344.319
8664,1332.597
8665,1296.707
8666,1275.479
8667,1290.100
8668,1274.712
8669,1259.324
8670,1232.257
8671,1188.992
8672,1167.040
8673,1147.262
8674,1112.096
8675,1128.933
8676,1091.593
8677,1115.762
8678,1091.593
8679,1090.102
8680,1079.104
8681,1068.149
8682,1104.765
8683,1111.372
8684,1137.714
8685,1120.877
8686,1140.655
8687,1177.270
8688,1191.209
8689,1207.321
8690,1221.984
8691,1224.158
8692,1227.100
8693,1246.878
8694,1292.316
8695,1314.268
8696,1300.373
8697,1323.817
8698,1356.041
8699,1385.368
8700,1408.044
8701,1478.376
8702,1476.927
8703,1543.593
8704,1539.927
8705,1577.310
8706,1613.200
8707,1652.757
8708,1688.647
8709,1710.642
8710,1757.530
8711,1791.928
8712,1841.033
8713,1876.923
8714,1894.528
8715,1920.146
8716,1968.483
8717,2000.750
8718,2022.702
8719,2073.256
8720,2104.756
8721,2120.144
8722,2149.470
8723,2202.198
8724,2224.192
8725,2236.639
8726,2258.591
8727,2300.364
8728,2333.356
8729,2355.308
8730,2369.971
8731,2423.466
