'sample interval','wrist_ppg'
'0.00390625 sec','mV'
0,1383.154
1,1380.218
2,1368.497
3,1346.512
4,1334.075
5,1383.154
6,1364.105
7,1350.188
8,1339.207
9,1337.727
10,1388.287
11,1368.497
12,1350.928
13,1357.516
14,1383.154
15,1353.124
16,1396.332
17,1350.188
18,1401.464
19,1373.630
20,1369.237
21,1360.452
22,1376.566
23,1405.140
24,1383.894
25,1387.547
26,1397.811
27,1382.415
28,1408.792
29,1418.317
30,1408.792
31,1380.958
32,1390.483
33,1393.419
34,1400.007
35,1427.842
36,1437.366
37,1433.690
38,1392.679
39,1419.057
40,1388.287
41,1404.400
42,1405.856
43,1409.532
44,1427.102
45,1375.826
46,1396.332
47,1397.071
48,1411.728
49,1362.649
50,1379.479
51,1376.566
52,1350.188
53,1386.090
54,1345.056
55,1380.218
56,1359.713
57,1345.796
58,1369.237
59,1326.746
60,1354.580
61,1342.860
62,1325.267
63,1360.452
64,1338.467
65,1324.550
66,1321.614
67,1306.217
68,1306.217
69,1312.089
70,1309.893
71,1334.075
72,1331.139
73,1320.874
74,1299.629
75,1284.255
76,1291.584
77,1320.158
78,1294.497
79,1277.667
80,1314.286
81,1329.682
82,1334.791
83,1335.531
84,1335.531
85,1336.271
86,1317.222
87,1354.580
88,1368.497
89,1368.497
90,1340.663
91,1375.086
92,1386.090
93,1396.332
94,1394.135
95,1407.336
96,1446.891
97,1462.264
98,1444.695
99,1478.401
100,1504.039
101,1476.921
102,1488.642
103,1498.907
104,1497.427
105,1515.020
106,1545.050
107,1550.922
108,1550.922
109,1548.726
110,1531.133
111,1522.348
112,1502.559
113,1487.186
114,1492.318
115,1512.824
116,1461.548
117,1499.646
118,1464.461
119,1462.264
120,1468.876
121,1449.087
122,1441.759
123,1431.494
124,1408.052
125,1410.988
126,1399.268
127,1418.317
128,1410.249
129,1406.596
130,1351.644
131,1386.090
132,1380.218
133,1346.512
134,1342.860
135,1367.041
136,1345.796
137,1323.810
138,1351.644
139,1323.810
140,1334.791
141,1342.860
142,1351.644
143,1346.512
144,1315.025
145,1347.992
146,1360.452
147,1344.316
148,1314.286
149,1324.550
150,1356.037
151,1365.561
152,1352.384
153,1326.746
154,1371.433
155,1345.056
156,1342.860
157,1378.762
158,1360.452
159,1349.448
160,1341.403
161,1338.467
162,1383.154
163,1363.365
164,1363.365
165,1370.694
166,1342.120
167,1380.958
168,1347.992
169,1383.894
170,1333.335
171,1361.909
172,1340.663
173,1353.841
174,1331.878
175,1375.826
176,1363.365
177,1342.120
178,1333.335
179,1329.682
180,1345.056
181,1347.252
182,1324.550
183,1337.727
184,1334.075
185,1328.942
186,1322.354
187,1314.286
188,1322.354
189,1306.217
190,1326.006
191,1317.222
192,1298.912
193,1315.742
194,1328.203
195,1316.482
196,1365.561
197,1342.860
198,1373.630
199,1386.807
200,1399.268
201,1390.483
202,1394.875
203,1425.645
204,1450.544
205,1429.298
206,1419.773
207,1471.789
208,1435.910
209,1427.842
210,1436.626
211,1441.759
212,1473.985
213,1444.695
214,1432.974
215,1416.121
216,1452.740
217,1451.283
218,1435.910
219,1441.019
220,1413.924
221,1380.958
222,1379.479
223,1388.287
224,1410.988
225,1358.233
226,1394.875
227,1381.698
228,1345.056
229,1348.708
230,1377.282
231,1345.796
232,1383.894
233,1348.708
234,1385.351
235,1386.090
236,1371.433
237,1364.845
238,1351.644
239,1350.928
240,1353.124
241,1375.826
242,1385.351
243,1411.728
244,1415.381
245,1413.185
246,1418.317
247,1394.135
248,1395.615
249,1400.724
250,1380.218
251,1383.894
252,1403.660
253,1406.596
254,1376.566
255,1358.973
256,1356.777
257,1382.415
258,1342.860
259,1367.758
260,1315.742
261,1347.992
262,1305.501
263,1320.874
264,1293.780
265,1279.863
266,1294.497
267,1298.912
268,1294.497
269,1265.946
270,1266.662
271,1269.598
272,1268.859
273,1287.908
274,1282.059
275,1277.667
276,1268.859
277,1282.776
278,1312.089
279,1287.191
280,1333.335
281,1295.236
282,1340.663
283,1346.512
284,1326.006
285,1322.354
286,1363.365
287,1375.826
288,1342.860
289,1360.452
290,1399.268
291,1405.140
292,1410.988
293,1413.924
294,1403.660
295,1402.920
296,1401.464
297,1444.695
298,1441.759
299,1449.087
300,1429.298
301,1421.253
302,1468.876
303,1434.430
304,1471.072
305,1431.494
306,1469.593
307,1435.170
308,1478.401
309,1432.234
310,1476.181
311,1432.234
312,1465.940
313,1422.709
314,1465.200
315,1413.924
316,1458.612
317,1442.498
318,1438.106
319,1421.253
320,1413.924
321,1405.856
322,1397.811
323,1444.695
324,1435.170
325,1413.924
326,1396.332
327,1439.562
328,1438.823
329,1425.645
330,1407.336
331,1402.204
332,1400.724
333,1383.894
334,1387.547
335,1375.826
336,1394.135
337,1380.218
338,1372.890
339,1365.561
340,1368.497
341,1372.173
342,1325.267
343,1372.890
344,1342.120
345,1322.354
346,1331.878
347,1343.599
348,1363.365
349,1375.086
350,1375.086
351,1342.860
352,1384.611
353,1392.679
354,1356.777
355,1408.052
356,1385.351
357,1374.369
358,1413.924
359,1427.842
360,1390.483
361,1412.445
362,1449.827
363,1424.906
364,1419.057
365,1457.872
366,1460.808
367,1426.385
368,1438.823
369,1442.498
370,1438.823
371,1418.317
372,1418.317
373,1420.513
374,1432.974
375,1388.287
376,1423.449
377,1399.268
378,1392.679
379,1386.807
380,1330.399
381,1334.791
382,1333.335
383,1300.369
384,1290.104
385,1294.497
386,1271.055
387,1246.157
388,1254.225
389,1257.877
390,1243.221
391,1201.469
392,1219.779
393,1199.273
394,1178.744
395,1175.831
396,1176.548
397,1173.635
398,1167.763
399,1168.503
400,1160.435
401,1154.586
402,1156.782
403,1157.499
404,1167.023
405,1169.243
406,1157.499
407,1160.435
408,1135.537
409,1185.356
410,1175.831
411,1152.390
412,1201.469
413,1172.895
414,1209.514
415,1224.911
416,1240.285
417,1237.372
418,1206.602
419,1224.911
420,1260.074
421,1271.055
422,1271.055
423,1298.912
424,1273.991
425,1290.104
426,1318.678
427,1321.614
428,1339.924
429,1345.056
430,1358.973
431,1361.169
432,1351.644
433,1350.928
434,1343.599
435,1389.003
436,1374.369
437,1368.497
438,1397.811
439,1369.954
440,1357.516
441,1407.336
442,1383.894
443,1369.237
444,1360.452
445,1362.649
446,1360.452
447,1374.369
448,1388.287
449,1383.154
450,1386.807
451,1386.807
452,1389.003
453,1394.875
454,1391.939
455,1397.071
456,1397.811
457,1365.561
458,1367.758
459,1412.445
460,1389.003
461,1381.698
462,1426.385
463,1404.400
464,1416.860
465,1416.121
466,1400.724
467,1390.483
468,1433.690
469,1408.052
470,1388.287
471,1391.939
472,1398.528
473,1417.577
474,1397.071
475,1409.532
476,1421.253
477,1416.860
478,1414.664
479,1393.419
480,1361.909
481,1385.351
482,1390.483
483,1399.268
484,1364.105
485,1385.351
486,1378.762
487,1358.973
488,1353.841
489,1354.580
490,1372.173
491,1361.909
492,1364.845
493,1395.615
494,1402.920
495,1416.121
496,1403.660
497,1426.385
498,1406.596
499,1397.811
500,1436.626
501,1419.773
502,1423.449
503,1424.166
504,1440.302
505,1471.789
506,1454.936
507,1440.302
508,1443.955
509,1453.480
510,1456.415
511,1474.725
512,1482.053
513,1488.642
514,1491.578
515,1490.838
516,1460.068
517,1487.902
518,1478.401
519,1479.117
520,1489.382
521,1446.891
522,1482.793
523,1427.842
524,1469.593
525,1435.170
526,1438.823
527,1429.298
528,1424.166
529,1431.494
530,1435.170
531,1418.317
532,1396.332
533,1379.479
534,1378.022
535,1391.199
536,1384.611
537,1369.954
538,1367.758
539,1371.433
540,1386.807
541,1408.052
542,1363.365
543,1361.909
544,1366.301
545,1383.154
546,1383.154
547,1400.007
548,1388.287
549,1363.365
550,1358.973
551,1358.973
552,1364.105
553,1358.233
554,1367.041
555,1370.694
556,1378.762
557,1383.154
558,1401.464
559,1386.090
560,1405.140
561,1410.249
562,1408.792
563,1408.792
564,1400.007
565,1412.445
566,1415.381
567,1372.890
568,1415.381
569,1408.052
570,1392.679
571,1383.154
572,1375.086
573,1376.566
574,1381.698
575,1408.052
576,1405.856
577,1402.920
578,1406.596
579,1402.204
580,1405.140
581,1361.909
582,1359.713
583,1367.041
584,1409.532
585,1393.419
586,1411.728
587,1412.445
588,1406.596
589,1408.792
590,1410.249
591,1388.287
592,1403.660
593,1386.090
594,1397.071
595,1391.199
596,1384.611
597,1394.875
598,1389.003
599,1400.007
600,1392.679
601,1397.811
602,1389.743
603,1381.698
604,1347.992
605,1344.316
606,1353.841
607,1354.580
608,1353.841
609,1399.268
610,1402.204
611,1383.894
612,1361.909
613,1410.249
614,1396.332
615,1394.875
616,1391.199
617,1395.615
618,1433.690
619,1400.007
620,1434.430
621,1422.709
622,1402.920
623,1438.823
624,1444.695
625,1437.366
626,1419.773
627,1449.827
628,1471.789
629,1427.842
630,1442.498
631,1472.529
632,1446.151
633,1443.955
634,1441.019
635,1446.891
636,1441.019
637,1468.136
638,1481.314
639,1452.023
640,1432.234
641,1460.068
642,1431.494
643,1426.385
644,1411.728
645,1402.204
646,1353.841
647,1378.022
648,1328.203
649,1302.565
650,1291.584
651,1304.761
652,1260.074
653,1266.662
654,1243.221
655,1225.651
656,1219.779
657,1208.058
658,1161.914
659,1163.371
660,1126.752
661,1134.057
662,1158.978
663,1117.227
664,1148.714
665,1120.880
666,1136.993
667,1145.061
668,1117.227
669,1134.797
670,1153.106
671,1120.140
672,1157.499
673,1173.635
674,1176.548
675,1140.669
676,1161.914
677,1175.092
678,1191.205
679,1180.224
680,1238.088
681,1224.171
682,1208.798
683,1258.617
684,1258.617
685,1250.549
686,1272.534
687,1292.300
688,1265.946
689,1318.678
690,1282.776
691,1335.531
692,1315.742
693,1346.512
694,1308.437
695,1347.992
696,1353.124
697,1343.599
698,1320.874
699,1350.188
700,1370.694
701,1331.878
702,1378.022
703,1359.713
704,1333.335
705,1335.531
706,1343.599
707,1369.954
708,1390.483
709,1357.516
710,1388.287
711,1402.204
712,1367.758
713,1397.811
714,1375.086
715,1375.086
716,1391.939
717,1387.547
718,1369.237
719,1386.807
720,1391.939
721,1381.698
722,1372.890
723,1380.958
724,1402.920
725,1408.052
726,1406.596
727,1376.566
728,1361.169
729,1394.135
730,1406.596
731,1400.724
732,1391.939
733,1378.022
734,1364.105
735,1353.124
736,1351.644
737,1391.199
738,1397.811
739,1347.252
740,1378.762
741,1394.135
742,1358.973
743,1348.708
744,1359.713
745,1369.237
746,1386.807
747,1369.237
748,1345.796
749,1359.713
750,1359.713
751,1382.415
752,1349.448
753,1351.644
754,1344.316
755,1346.512
756,1353.841
757,1353.841
758,1395.615
759,1375.826
760,1383.154
761,1405.140
762,1419.057
763,1416.121
764,1425.645
765,1420.513
766,1422.709
767,1432.974
768,1413.924
769,1408.792
770,1404.400
771,1445.411
772,1453.480
773,1425.645
774,1430.778
775,1457.872
776,1447.631
777,1445.411
778,1468.876
779,1443.955
780,1430.038
781,1468.876
782,1457.155
783,1438.823
784,1432.974
785,1457.872
786,1433.690
787,1412.445
788,1405.140
789,1397.811
790,1421.970
791,1416.860
792,1429.298
793,1423.449
794,1389.003
795,1368.497
796,1383.154
797,1399.268
798,1346.512
799,1386.807
800,1361.909
801,1350.188
802,1339.207
803,1337.727
804,1342.860
805,1330.399
806,1347.252
807,1334.791
808,1322.354
809,1323.070
810,1318.678
811,1330.399
812,1358.233
813,1342.120
814,1337.727
815,1314.286
816,1339.207
817,1368.497
818,1349.448
819,1348.708
820,1332.595
821,1345.056
822,1378.762
823,1372.890
824,1356.037
825,1391.939
826,1365.561
827,1396.332
828,1383.894
829,1414.664
830,1373.630
831,1418.317
832,1375.086
833,1421.970
834,1402.204
835,1410.988
836,1377.282
837,1374.369
838,1419.773
839,1372.173
840,1419.773
841,1415.381
842,1400.007
843,1367.758
844,1383.894
845,1375.826
846,1387.547
847,1378.022
848,1380.218
849,1367.758
850,1364.845
851,1393.419
852,1380.958
853,1353.841
854,1396.332
855,1369.954
856,1396.332
857,1369.237
858,1380.958
859,1388.287
860,1371.433
861,1391.199
862,1352.384
863,1386.090
864,1341.403
865,1378.762
866,1336.988
867,1379.479
868,1339.924
869,1372.173
870,1321.614
871,1361.909
872,1319.418
873,1334.075
874,1358.973
875,1314.286
876,1342.860
877,1348.708
878,1334.075
879,1309.893
880,1358.973
881,1338.467
882,1358.973
883,1344.316
884,1349.448
885,1353.841
886,1394.875
887,1377.282
888,1380.958
889,1374.369
890,1411.728
891,1430.038
892,1443.955
893,1419.773
894,1471.789
895,1469.593
896,1446.151
897,1454.936
898,1476.921
899,1481.314
900,1482.053
901,1526.001
902,1532.613
903,1495.971
904,1495.971
905,1485.706
906,1482.793
907,1484.989
908,1487.186
909,1473.985
910,1460.808
911,1484.989
912,1443.955
913,1457.872
914,1400.007
915,1437.366
916,1423.449
917,1406.596
918,1394.135
919,1338.467
920,1358.973
921,1309.893
922,1331.139
923,1336.988
924,1326.746
925,1315.025
926,1262.270
927,1256.421
928,1235.892
929,1240.285
930,1265.206
931,1224.911
932,1223.455
933,1222.715
934,1221.235
935,1201.469
936,1193.401
937,1222.715
938,1189.749
939,1230.043
940,1179.484
941,1231.500
942,1222.715
943,1197.077
944,1186.073
945,1227.107
946,1186.073
947,1202.209
948,1236.632
949,1189.009
950,1240.285
951,1200.730
952,1246.896
953,1208.058
954,1247.613
955,1221.235
956,1230.043
957,1268.142
958,1224.171
959,1253.485
960,1286.451
961,1244.700
962,1256.421
963,1272.534
964,1264.466
965,1282.776
966,1281.319
967,1296.716
968,1331.139
969,1311.350
970,1343.599
971,1339.924
972,1328.203
973,1380.958
974,1361.169
975,1385.351
976,1380.218
977,1361.169
978,1370.694
979,1374.369
980,1375.086
981,1407.336
982,1430.778
983,1410.988
984,1416.121
985,1407.336
986,1394.875
987,1443.955
988,1426.385
989,1402.920
990,1409.532
991,1430.778
992,1441.019
993,1414.664
994,1405.856
995,1401.464
996,1403.660
997,1417.577
998,1399.268
999,1399.268
1000,1422.709
1001,1443.215
1002,1437.366
1003,1436.626
1004,1434.430
1005,1432.974
1006,1428.581
1007,1430.778
1008,1414.664
1009,1387.547
1010,1400.007
1011,1427.102
1012,1417.577
1013,1402.204
1014,1395.615
1015,1394.875
1016,1391.939
1017,1393.419
1018,1396.332
1019,1408.052
1020,1403.660
1021,1421.970
1022,1380.958
1023,1398.528
1024,1396.332
1025,1429.298
1026,1427.842
1027,1423.449
1028,1430.038
1029,1435.170
1030,1435.910
1031,1438.823
1032,1449.827
1033,1447.631
1034,1450.544
1035,1430.778
1036,1421.970
1037,1424.906
1038,1468.876
1039,1447.631
1040,1424.906
1041,1444.695
1042,1473.985
1043,1446.151
1044,1430.038
1045,1475.465
1046,1444.695
1047,1443.955
1048,1449.087
1049,1444.695
1050,1448.347
1051,1413.924
1052,1405.140
1053,1435.170
1054,1391.939
1055,1403.660
1056,1380.958
1057,1366.301
1058,1392.679
1059,1395.615
1060,1389.743
1061,1378.022
1062,1345.056
1063,1317.961
1064,1361.169
1065,1340.663
1066,1300.369
1067,1333.335
1068,1330.399
1069,1301.825
1070,1294.497
1071,1293.780
1072,1304.021
1073,1301.825
1074,1320.158
1075,1318.678
1076,1316.482
1077,1308.437
1078,1304.021
1079,1296.716
1080,1334.791
1081,1346.512
1082,1347.252
1083,1339.207
1084,1314.286
1085,1321.614
1086,1340.663
1087,1323.810
1088,1334.791
1089,1356.037
1090,1340.663
1091,1323.810
1092,1370.694
1093,1347.252
1094,1323.070
1095,1349.448
1096,1361.169
1097,1332.595
1098,1374.369
1099,1346.512
1100,1325.267
1101,1326.746
1102,1373.630
1103,1350.188
1104,1352.384
1105,1342.860
1106,1345.056
1107,1365.561
1108,1324.550
1109,1359.713
1110,1355.320
1111,1365.561
1112,1350.928
1113,1339.207
1114,1361.169
1115,1326.746
1116,1343.599
1117,1376.566
1118,1344.316
1119,1379.479
1120,1356.037
1121,1356.777
1122,1371.433
1123,1337.727
1124,1380.218
1125,1341.403
1126,1378.762
1127,1367.041
1128,1352.384
1129,1388.287
1130,1390.483
1131,1390.483
1132,1385.351
1133,1360.452
1134,1347.992
1135,1342.860
1136,1358.973
1137,1378.762
1138,1353.124
1139,1323.070
1140,1342.120
1141,1364.845
1142,1348.708
1143,1313.546
1144,1346.512
1145,1317.961
1146,1351.644
1147,1363.365
1148,1322.354
1149,1339.924
1150,1369.237
1151,1369.954
1152,1368.497
1153,1370.694
1154,1381.698
1155,1379.479
1156,1382.415
1157,1438.823
1158,1422.709
1159,1447.631
1160,1466.657
1161,1432.234
1162,1473.269
1163,1440.302
1164,1438.106
1165,1439.562
1166,1454.936
1167,1473.269
1168,1468.876
1169,1430.038
1170,1457.872
1171,1408.792
1172,1445.411
1173,1412.445
1174,1398.528
1175,1399.268
1176,1382.415
1177,1334.075
1178,1357.516
1179,1301.825
1180,1292.300
1181,1305.501
1182,1297.433
1183,1263.726
1184,1251.289
1185,1248.353
1186,1249.809
1187,1263.726
1188,1277.667
1189,1274.731
1190,1281.319
1191,1282.776
1192,1285.712
1193,1267.402
1194,1263.010
1195,1270.338
1196,1257.877
1197,1252.005
1198,1260.813
1199,1290.844
1200,1303.304
1201,1301.108
1202,1278.383
1203,1301.108
1204,1336.988
1205,1309.893
1206,1307.697
1207,1306.957
1208,1314.286
1209,1334.075
1210,1339.207
1211,1346.512
1212,1345.056
1213,1339.207
1214,1390.483
1215,1389.003
1216,1363.365
1217,1353.124
1218,1396.332
1219,1359.713
1220,1364.845
1221,1413.185
1222,1376.566
1223,1372.173
1224,1415.381
1225,1403.660
1226,1404.400
1227,1389.003
1228,1368.497
1229,1364.105
1230,1358.973
1231,1399.268
1232,1398.528
1233,1391.939
1234,1385.351
1235,1389.003
1236,1383.894
1237,1368.497
1238,1340.663
1239,1327.463
1240,1353.841
1241,1326.746
1242,1319.418
1243,1363.365
1244,1323.070
1245,1353.124
1246,1356.037
1247,1312.089
1248,1355.320
1249,1349.448
1250,1331.139
1251,1354.580
1252,1323.070
1253,1325.267
1254,1347.992
1255,1358.233
1256,1354.580
1257,1347.992
1258,1380.218
1259,1401.464
1260,1410.988
1261,1394.875
1262,1384.611
1263,1438.823
1264,1413.185
1265,1403.660
1266,1441.019
1267,1421.970
1268,1467.397
1269,1433.690
1270,1465.940
1271,1434.430
1272,1475.465
1273,1432.974
1274,1446.891
1275,1453.480
1276,1459.351
1277,1440.302
1278,1424.166
1279,1442.498
1280,1466.657
1281,1451.283
1282,1424.166
1283,1457.872
1284,1432.234
1285,1405.856
1286,1402.204
1287,1421.970
1288,1430.778
1289,1399.268
1290,1393.419
1291,1431.494
1292,1420.513
1293,1421.970
1294,1422.709
1295,1421.970
1296,1421.253
1297,1405.856
1298,1386.090
1299,1396.332
1300,1412.445
1301,1424.166
1302,1424.166
1303,1421.970
1304,1402.920
1305,1394.135
1306,1404.400
1307,1405.140
1308,1421.970
1309,1410.249
1310,1416.121
1311,1422.709
1312,1426.385
1313,1425.645
1314,1402.920
1315,1419.773
1316,1372.890
1317,1373.630
1318,1400.724
1319,1361.909
1320,1381.698
1321,1384.611
1322,1380.958
1323,1393.419
1324,1353.841
1325,1353.124
1326,1357.516
1327,1361.909
1328,1341.403
1329,1372.890
1330,1326.746
1331,1334.075
1332,1357.516
1333,1345.056
1334,1309.893
1335,1315.025
1336,1345.056
1337,1312.829
1338,1298.172
1339,1314.286
1340,1340.663
1341,1308.437
1342,1295.236
1343,1341.403
1344,1304.021
1345,1294.497
1346,1344.316
1347,1304.761
1348,1348.708
1349,1327.463
1350,1367.041
1351,1339.207
1352,1353.841
1353,1338.467
1354,1376.566
1355,1378.022
1356,1399.268
1357,1407.336
1358,1394.875
1359,1383.154
1360,1393.419
1361,1410.249
1362,1396.332
1363,1393.419
1364,1392.679
1365,1381.698
1366,1367.758
1367,1367.041
1368,1361.169
1369,1353.841
1370,1375.086
1371,1391.199
1372,1378.022
1373,1367.041
1374,1372.173
1375,1336.988
1376,1353.124
1377,1350.928
1378,1340.663
1379,1358.233
1380,1336.988
1381,1319.418
1382,1326.006
1383,1358.973
1384,1326.746
1385,1367.041
1386,1317.961
1387,1358.233
1388,1349.448
1389,1313.546
1390,1315.742
1391,1352.384
1392,1307.697
1393,1350.188
1394,1324.550
1395,1315.742
1396,1353.124
1397,1314.286
1398,1358.973
1399,1328.203
1400,1322.354
1401,1345.056
1402,1364.105
1403,1347.252
1404,1372.173
1405,1394.875
1406,1406.596
1407,1391.199
1408,1400.724
1409,1431.494
1410,1432.234
1411,1439.562
1412,1423.449
1413,1419.773
1414,1417.577
1415,1433.690
1416,1470.333
1417,1456.415
1418,1436.626
1419,1475.465
1420,1432.974
1421,1468.876
1422,1434.430
1423,1460.068
1424,1438.823
1425,1463.744
1426,1413.924
1427,1439.562
1428,1397.811
1429,1389.003
1430,1397.811
1431,1380.218
1432,1396.332
1433,1334.791
1434,1355.320
1435,1309.893
1436,1305.501
1437,1316.482
1438,1268.859
1439,1249.809
1440,1272.534
1441,1227.847
1442,1227.107
1443,1228.564
1444,1196.337
1445,1178.028
1446,1221.235
1447,1196.337
1448,1173.635
1449,1163.371
1450,1207.318
1451,1185.356
1452,1219.039
1453,1194.141
1454,1227.107
1455,1180.224
1456,1216.126
1457,1239.568
1458,1213.190
1459,1241.764
1460,1210.994
1461,1249.809
1462,1272.534
1463,1245.417
1464,1246.896
1465,1283.515
1466,1293.780
1467,1295.236
1468,1301.825
1469,1286.451
1470,1271.795
1471,1279.123
1472,1322.354
1473,1326.006
1474,1331.878
1475,1319.418
1476,1294.497
1477,1333.335
1478,1332.595
1479,1301.825
1480,1336.988
1481,1308.437
1482,1359.713
1483,1321.614
1484,1367.041
1485,1328.942
1486,1364.845
1487,1331.878
1488,1348.708
1489,1381.698
1490,1377.282
1491,1350.928
1492,1378.762
1493,1375.826
1494,1355.320
1495,1359.713
1496,1362.649
1497,1378.762
1498,1387.547
1499,1383.894
1500,1389.003
1501,1426.385
1502,1410.249
1503,1380.218
1504,1429.298
1505,1386.090
1506,1432.974
1507,1396.332
1508,1380.958
1509,1400.007
1510,1418.317
1511,1395.615
1512,1389.003
1513,1407.336
1514,1412.445
1515,1416.121
1516,1411.728
1517,1416.860
1518,1402.920
1519,1394.135
1520,1394.135
1521,1392.679
1522,1381.698
1523,1382.415
1524,1388.287
1525,1399.268
1526,1397.811
1527,1394.135
1528,1389.003
1529,1378.762
1530,1365.561
1531,1380.218
1532,1376.566
1533,1374.369
1534,1391.199
1535,1394.875
1536,1396.332
1537,1400.724
1538,1392.679
1539,1391.199
1540,1355.320
1541,1387.547
1542,1396.332
1543,1378.762
1544,1401.464
1545,1414.664
1546,1416.121
1547,1392.679
1548,1385.351
1549,1426.385
1550,1426.385
1551,1429.298
1552,1390.483
1553,1434.430
1554,1437.366
1555,1436.626
1556,1440.302
1557,1438.823
1558,1434.430
1559,1427.842
1560,1414.664
1561,1428.581
1562,1454.936
1563,1452.740
1564,1460.808
1565,1448.347
1566,1434.430
1567,1449.087
1568,1469.593
1569,1464.461
1570,1449.087
1571,1480.597
1572,1450.544
1573,1455.676
1574,1471.072
1575,1479.857
1576,1436.626
1577,1473.269
1578,1436.626
1579,1471.072
1580,1441.759
1581,1430.778
1582,1463.744
1583,1442.498
1584,1434.430
1585,1424.906
1586,1411.728
1587,1402.920
1588,1437.366
1589,1444.695
1590,1438.823
1591,1435.170
1592,1386.807
1593,1391.199
1594,1410.249
1595,1419.773
1596,1379.479
1597,1405.140
1598,1367.758
1599,1375.826
1600,1349.448
1601,1386.807
1602,1361.909
1603,1326.746
1604,1358.233
1605,1362.649
1606,1350.188
1607,1331.139
1608,1309.153
1609,1348.708
1610,1331.139
1611,1306.217
1612,1341.403
1613,1337.727
1614,1304.021
1615,1354.580
1616,1314.286
1617,1323.810
1618,1354.580
1619,1323.070
1620,1342.120
1621,1339.207
1622,1314.286
1623,1361.169
1624,1317.222
1625,1323.810
1626,1364.105
1627,1367.758
1628,1356.777
1629,1323.070
1630,1342.860
1631,1356.777
1632,1377.282
1633,1369.954
1634,1335.531
1635,1338.467
1636,1376.566
1637,1343.599
1638,1388.287
1639,1342.120
1640,1367.758
1641,1389.743
1642,1353.841
1643,1362.649
1644,1389.003
1645,1358.973
1646,1350.188
1647,1375.086
1648,1354.580
1649,1372.890
1650,1391.939
1651,1375.826
1652,1347.992
1653,1379.479
1654,1354.580
1655,1347.252
1656,1383.154
1657,1367.041
1658,1334.791
1659,1360.452
1660,1356.777
1661,1315.742
1662,1361.909
1663,1335.531
1664,1304.761
1665,1348.708
1666,1298.172
1667,1320.158
1668,1307.697
1669,1290.844
1670,1284.972
1671,1323.070
1672,1323.810
1673,1315.742
1674,1302.565
1675,1312.829
1676,1334.791
1677,1321.614
1678,1317.222
1679,1304.021
1680,1339.207
1681,1331.878
1682,1368.497
1683,1332.595
1684,1358.973
1685,1376.566
1686,1383.894
1687,1389.003
1688,1402.920
1689,1421.253
1690,1407.336
1691,1410.988
1692,1398.528
1693,1399.268
1694,1427.842
1695,1449.827
1696,1438.106
1697,1411.728
1698,1408.792
1699,1394.875
1700,1393.419
1701,1416.121
1702,1425.645
1703,1373.630
1704,1399.268
1705,1384.611
1706,1361.169
1707,1376.566
1708,1339.924
1709,1310.633
1710,1306.217
1711,1279.863
1712,1295.236
1713,1301.108
1714,1244.700
1715,1259.334
1716,1273.251
1717,1232.979
1718,1221.235
1719,1233.696
1720,1225.651
1721,1193.401
1722,1235.176
1723,1189.009
1724,1204.405
1725,1216.126
1726,1189.749
1727,1211.734
1728,1218.322
1729,1209.514
1730,1219.779
1731,1207.318
1732,1237.372
1733,1216.126
1734,1194.881
1735,1230.043
1736,1252.005
1737,1220.519
1738,1214.647
1739,1236.632
1740,1257.877
1741,1281.319
1742,1286.451
1743,1293.780
1744,1280.579
1745,1291.584
1746,1269.598
1747,1317.222
1748,1302.565
1749,1332.595
1750,1290.844
1751,1315.742
1752,1332.595
1753,1332.595
1754,1326.006
1755,1342.120
1756,1375.826
1757,1365.561
1758,1390.483
1759,1402.204
1760,1409.532
1761,1402.204
1762,1373.630
1763,1391.199
1764,1421.970
1765,1405.140
1766,1441.759
1767,1432.974
1768,1414.664
1769,1418.317
1770,1424.906
1771,1443.215
1772,1419.057
1773,1415.381
1774,1452.740
1775,1427.842
1776,1406.596
1777,1424.166
1778,1453.480
1779,1437.366
1780,1413.924
1781,1436.626
1782,1410.249
1783,1397.071
1784,1419.057
1785,1419.773
1786,1400.724
1787,1382.415
1788,1378.762
1789,1386.807
1790,1380.218
1791,1405.140
1792,1416.860
1793,1373.630
1794,1369.237
1795,1385.351
1796,1369.237
1797,1379.479
1798,1401.464
1799,1395.615
1800,1365.561
1801,1362.649
1802,1380.218
1803,1405.856
1804,1413.185
1805,1415.381
1806,1408.792
1807,1397.071
1808,1399.268
1809,1414.664
1810,1427.102
1811,1424.166
1812,1424.166
1813,1434.430
1814,1430.778
1815,1430.038
1816,1430.778
1817,1436.626
1818,1425.645
1819,1432.234
1820,1439.562
1821,1440.302
1822,1449.087
1823,1452.740
1824,1444.695
1825,1457.872
1826,1462.264
1827,1449.087
1828,1422.709
1829,1444.695
1830,1465.200
1831,1430.778
1832,1457.872
1833,1472.529
1834,1446.891
1835,1429.298
1836,1474.725
1837,1438.823
1838,1471.789
1839,1438.823
1840,1430.038
1841,1455.676
1842,1420.513
1843,1460.068
1844,1438.823
1845,1426.385
1846,1440.302
1847,1443.215
1848,1432.234
1849,1405.856
1850,1388.287
1851,1389.003
1852,1395.615
1853,1373.630
1854,1365.561
1855,1378.022
1856,1399.268
1857,1359.713
1858,1374.369
1859,1369.237
1860,1373.630
1861,1327.463
1862,1361.169
1863,1320.158
1864,1338.467
1865,1358.233
1866,1309.153
1867,1338.467
1868,1316.482
1869,1344.316
1870,1331.878
1871,1369.237
1872,1359.713
1873,1347.252
1874,1334.075
1875,1351.644
1876,1347.252
1877,1397.071
1878,1405.140
1879,1377.282
1880,1379.479
1881,1365.561
1882,1406.596
1883,1414.664
1884,1400.007
1885,1389.003
1886,1376.566
1887,1401.464
1888,1402.920
1889,1380.218
1890,1422.709
1891,1390.483
1892,1400.724
1893,1416.121
1894,1410.988
1895,1392.679
1896,1390.483
1897,1376.566
1898,1383.154
1899,1386.090
1900,1402.920
1901,1405.856
1902,1400.724
1903,1387.547
1904,1400.724
1905,1386.807
1906,1394.135
1907,1401.464
1908,1381.698
1909,1367.041
1910,1380.218
1911,1419.057
1912,1413.185
1913,1382.415
1914,1363.365
1915,1375.086
1916,1333.335
1917,1360.452
1918,1314.286
1919,1334.075
1920,1293.040
1921,1306.217
1922,1270.338
1923,1312.089
1924,1289.387
1925,1254.225
1926,1242.481
1927,1266.662
1928,1277.667
1929,1272.534
1930,1276.927
1931,1254.941
1932,1246.896
1933,1264.466
1934,1272.534
1935,1268.142
1936,1256.421
1937,1253.485
1938,1273.991
1939,1269.598
1940,1256.421
1941,1260.074
1942,1235.892
1943,1235.176
1944,1241.764
1945,1292.300
1946,1276.187
1947,1419.057
1948,1425.645
1949,1418.317
1950,1422.709
1951,1423.449
1952,1420.513
1953,1417.577
1954,1366.301
1955,1382.415
1956,1406.596
1957,1359.713
1958,1353.124
1959,1367.041
1960,1372.173
1961,1385.351
1962,1353.841
1963,1361.169
1964,1383.894
1965,1360.452
1966,1340.663
1967,1358.233
1968,1388.287
1969,1347.992
1970,1352.384
1971,1380.958
1972,1389.743
1973,1392.679
1974,1406.596
1975,1406.596
1976,1374.369
1977,1369.954
1978,1417.577
1979,1424.906
1980,1408.052
1981,1408.792
1982,1388.287
1983,1436.626
1984,1408.052
1985,1416.860
1986,1430.778
1987,1408.052
1988,1446.151
1989,1410.249
1990,1405.856
1991,1446.151
1992,1410.249
1993,1454.936
1994,1432.234
1995,1423.449
1996,1453.480
1997,1410.249
1998,1450.544
1999,1447.631
2000,1417.577
2001,1435.170
2002,1434.430
2003,1449.087
2004,1414.664
2005,1441.019
2006,1437.366
2007,1413.924
2008,1462.264
2009,1441.759
2010,1415.381
2011,1448.347
2012,1436.626
2013,1419.773
2014,1413.185
2015,1457.155
2016,1446.151
2017,1419.057
2018,1408.052
2019,1419.057
2020,1408.052
2021,1414.664
2022,1438.106
2023,1434.430
2024,1428.581
2025,1425.645
2026,1412.445
2027,1389.743
2028,1371.433
2029,1401.464
2030,1371.433
2031,1370.694
2032,1361.909
2033,1335.531
2034,1378.022
2035,1363.365
2036,1334.075
2037,1323.810
2038,1362.649
2039,1336.271
2040,1331.139
2041,1308.437
2042,1327.463
2043,1358.233
2044,1345.796
2045,1314.286
2046,1358.973
2047,1338.467
2048,1320.158
2049,1368.497
2050,1335.531
2051,1369.237
2052,1345.056
2053,1342.120
2054,1384.611
2055,1340.663
2056,1372.890
2057,1390.483
2058,1379.479
2059,1356.777
2060,1371.433
2061,1390.483
2062,1400.724
2063,1415.381
2064,1411.728
2065,1421.253
2066,1410.988
2067,1404.400
2068,1402.920
2069,1396.332
2070,1391.939
2071,1387.547
2072,1402.920
2073,1426.385
2074,1437.366
2075,1429.298
2076,1440.302
2077,1429.298
2078,1414.664
2079,1402.204
2080,1394.875
2081,1401.464
2082,1392.679
2083,1393.419
2084,1425.645
2085,1423.449
2086,1391.199
2087,1387.547
2088,1383.894
2089,1416.860
2090,1424.166
2091,1394.135
2092,1389.003
2093,1410.249
2094,1386.807
2095,1372.173
2096,1398.528
2097,1415.381
2098,1369.237
2099,1373.630
2100,1408.052
2101,1364.845
2102,1355.320
2103,1374.369
2104,1389.003
2105,1354.580
2106,1359.713
2107,1335.531
2108,1358.233
2109,1347.252
2110,1339.207
2111,1315.025
2112,1309.153
2113,1300.369
2114,1339.207
2115,1336.271
2116,1338.467
2117,1333.335
2118,1328.203
2119,1328.942
2120,1328.203
2121,1325.267
2122,1326.746
2123,1328.203
2124,1317.222
2125,1286.451
2126,1315.025
2127,1332.595
2128,1319.418
2129,1339.207
2130,1353.124
2131,1365.561
2132,1340.663
2133,1351.644
2134,1367.041
2135,1378.762
2136,1384.611
2137,1432.974
2138,1447.631
2139,1432.974
2140,1458.612
2141,1421.253
2142,1456.415
2143,1424.906
2144,1473.269
2145,1448.347
2146,1424.166
2147,1454.936
2148,1411.728
2149,1443.215
2150,1442.498
2151,1432.234
2152,1378.762
2153,1366.301
2154,1390.483
2155,1355.320
2156,1325.267
2157,1307.697
2158,1284.972
2159,1269.598
2160,1261.530
2161,1282.059
2162,1262.270
2163,1221.235
2164,1255.681
2165,1241.024
2166,1203.666
2167,1239.568
2168,1222.715
2169,1209.514
2170,1195.597
2171,1208.058
2172,1176.548
2173,1215.386
2174,1205.862
2175,1219.039
2176,1208.058
2177,1226.368
2178,1217.583
2179,1189.749
2180,1229.304
2181,1239.568
2182,1232.240
2183,1261.530
2184,1231.500
2185,1243.960
2186,1249.093
2187,1277.667
2188,1289.387
2189,1284.255
2190,1280.579
2191,1287.191
2192,1268.142
2193,1315.025
2194,1280.579
2195,1331.878
2196,1296.716
2197,1340.663
2198,1345.796
2199,1339.207
2200,1372.173
2201,1379.479
2202,1385.351
2203,1390.483
2204,1397.071
2205,1402.920
2206,1395.615
2207,1397.071
2208,1400.724
2209,1396.332
2210,1428.581
2211,1406.596
2212,1391.939
2213,1428.581
2214,1413.924
2215,1412.445
2216,1402.920
2217,1391.939
2218,1385.351
2219,1391.939
2220,1379.479
2221,1377.282
2222,1390.483
2223,1392.679
2224,1409.532
2225,1417.577
2226,1411.728
2227,1405.140
2228,1413.924
2229,1415.381
2230,1397.071
2231,1403.660
2232,1394.875
2233,1394.135
2234,1389.003
2235,1387.547
2236,1372.890
2237,1381.698
2238,1398.528
2239,1415.381
2240,1400.724
2241,1406.596
2242,1415.381
2243,1380.958
2244,1371.433
2245,1381.698
2246,1378.762
2247,1379.479
2248,1428.581
2249,1412.445
2250,1386.090
2251,1432.234
2252,1401.464
2253,1438.106
2254,1435.910
2255,1407.336
2256,1438.823
2257,1406.596
2258,1447.631
2259,1406.596
2260,1421.970
2261,1413.924
2262,1414.664
2263,1452.740
2264,1410.988
2265,1443.955
2266,1404.400
2267,1441.759
2268,1404.400
2269,1449.087
2270,1416.121
2271,1439.562
2272,1419.773
2273,1398.528
2274,1446.891
2275,1417.577
2276,1430.038
2277,1415.381
2278,1446.891
2279,1403.660
2280,1448.347
2281,1400.007
2282,1433.690
2283,1443.215
2284,1397.811
2285,1443.215
2286,1403.660
2287,1426.385
2288,1424.906
2289,1382.415
2290,1379.479
2291,1424.166
2292,1406.596
2293,1384.611
2294,1375.826
2295,1389.743
2296,1405.140
2297,1378.022
2298,1380.958
2299,1362.649
2300,1377.282
2301,1364.105
2302,1352.384
2303,1355.320
2304,1351.644
2305,1350.188
2306,1348.708
2307,1377.282
2308,1396.332
2309,1353.841
2310,1347.252
2311,1350.188
2312,1371.433
2313,1348.708
2314,1344.316
2315,1354.580
2316,1352.384
2317,1349.448
2318,1386.807
2319,1392.679
2320,1393.419
2321,1400.724
2322,1402.920
2323,1384.611
2324,1394.135
2325,1378.762
2326,1383.154
2327,1362.649
2328,1372.173
2329,1411.728
2330,1408.792
2331,1388.287
2332,1384.611
2333,1374.369
2334,1415.381
2335,1411.728
2336,1398.528
2337,1380.958
2338,1383.154
2339,1378.022
2340,1417.577
2341,1405.856
2342,1397.071
2343,1402.920
2344,1402.204
2345,1390.483
2346,1402.920
2347,1411.728
2348,1397.811
2349,1405.856
2350,1378.022
2351,1353.124
2352,1372.890
2353,1355.320
2354,1343.599
2355,1356.037
2356,1365.561
2357,1361.909
2358,1367.758
2359,1350.188
2360,1343.599
2361,1331.139
2362,1330.399
2363,1317.222
2364,1316.482
2365,1364.845
2366,1344.316
2367,1319.418
2368,1306.957
2369,1357.516
2370,1354.580
2371,1342.120
2372,1335.531
2373,1323.810
2374,1329.682
2375,1320.158
2376,1323.810
2377,1329.682
2378,1275.470
2379,1273.991
2380,1315.025
2381,1263.726
2382,1285.712
2383,1302.565
2384,1261.530
2385,1259.334
2386,1306.217
2387,1282.776
2388,1262.270
2389,1315.025
2390,1312.089
2391,1278.383
2392,1332.595
2393,1312.089
2394,1348.708
2395,1312.829
2396,1335.531
2397,1357.516
2398,1398.528
2399,1400.007
2400,1393.419
2401,1393.419
2402,1425.645
2403,1433.690
2404,1433.690
2405,1477.661
2406,1441.019
2407,1446.891
2408,1451.283
2409,1457.155
2410,1493.035
2411,1489.382
2412,1493.774
2413,1495.971
2414,1495.231
2415,1501.103
2416,1487.186
2417,1446.151
2418,1487.902
2419,1447.631
2420,1464.461
2421,1427.102
2422,1455.676
2423,1406.596
2424,1422.709
2425,1399.268
2426,1380.958
2427,1406.596
2428,1391.939
2429,1380.958
2430,1344.316
2431,1374.369
2432,1377.282
2433,1356.037
2434,1360.452
2435,1352.384
2436,1311.350
2437,1305.501
2438,1312.829
2439,1298.172
2440,1309.153
2441,1311.350
2442,1276.187
2443,1309.153
2444,1273.251
2445,1321.614
2446,1296.716
2447,1312.829
2448,1279.123
2449,1323.810
2450,1279.863
2451,1286.451
2452,1319.418
2453,1330.399
2454,1306.217
2455,1300.369
2456,1311.350
2457,1330.399
2458,1342.120
2459,1344.316
2460,1302.565
2461,1326.006
2462,1345.056
2463,1346.512
2464,1304.021
2465,1314.286
2466,1338.467
2467,1341.403
2468,1298.912
2469,1324.550
2470,1284.255
2471,1304.761
2472,1318.678
2473,1276.927
2474,1304.761
2475,1321.614
2476,1302.565
2477,1300.369
2478,1274.731
2479,1274.731
2480,1315.025
2481,1278.383
2482,1295.236
2483,1320.874
2484,1279.123
2485,1305.501
2486,1329.682
2487,1284.972
2488,1306.217
2489,1328.942
2490,1342.860
2491,1341.403
2492,1349.448
2493,1315.025
2494,1316.482
2495,1323.070
2496,1326.746
2497,1339.924
2498,1383.154
2499,1361.909
2500,1359.713
2501,1349.448
2502,1375.826
2503,1398.528
2504,1404.400
2505,1401.464
2506,1395.615
2507,1383.154
2508,1378.022
2509,1379.479
2510,1364.105
2511,1412.445
2512,1410.249
2513,1385.351
2514,1397.811
2515,1379.479
2516,1417.577
2517,1372.890
2518,1398.528
2519,1390.483
2520,1418.317
2521,1427.102
2522,1402.204
2523,1430.778
2524,1438.106
2525,1426.385
2526,1397.071
2527,1441.759
2528,1409.532
2529,1427.842
2530,1413.185
2531,1451.283
2532,1410.988
2533,1446.891
2534,1416.860
2535,1430.778
2536,1437.366
2537,1438.823
2538,1458.612
2539,1452.023
2540,1430.038
2541,1424.906
2542,1429.298
2543,1416.121
2544,1415.381
2545,1463.004
2546,1438.823
2547,1416.860
2548,1420.513
2549,1416.121
2550,1410.988
2551,1445.411
2552,1437.366
2553,1400.724
2554,1394.135
2555,1389.743
2556,1384.611
2557,1407.336
2558,1419.057
2559,1416.860
2560,1377.282
2561,1394.135
2562,1388.287
2563,1364.845
2564,1385.351
2565,1396.332
2566,1355.320
2567,1382.415
2568,1353.124
2569,1389.743
2570,1369.237
2571,1390.483
2572,1377.282
2573,1361.169
2574,1378.762
2575,1366.301
2576,1390.483
2577,1378.022
2578,1362.649
2579,1379.479
2580,1337.727
2581,1360.452
2582,1352.384
2583,1336.988
2584,1359.713
2585,1345.796
2586,1372.173
2587,1347.992
2588,1375.086
2589,1358.973
2590,1339.924
2591,1364.845
2592,1362.649
2593,1361.169
2594,1384.611
2595,1394.875
2596,1348.708
2597,1381.698
2598,1402.204
2599,1361.909
2600,1368.497
2601,1389.003
2602,1389.743
2603,1393.419
2604,1400.007
2605,1397.811
2606,1424.166
2607,1424.906
2608,1385.351
2609,1382.415
2610,1403.660
2611,1395.615
2612,1406.596
2613,1413.185
2614,1415.381
2615,1413.924
2616,1416.121
2617,1414.664
2618,1393.419
2619,1360.452
2620,1380.218
2621,1381.698
2622,1390.483
2623,1372.890
2624,1369.237
2625,1394.875
2626,1394.135
2627,1371.433
2628,1383.894
2629,1360.452
2630,1387.547
2631,1376.566
2632,1349.448
2633,1346.512
2634,1351.644
2635,1353.841
2636,1345.796
2637,1331.878
2638,1324.550
2639,1319.418
2640,1303.304
2641,1348.708
2642,1344.316
2643,1331.878
2644,1335.531
2645,1332.595
2646,1323.810
2647,1292.300
2648,1278.383
2649,1291.584
2650,1325.267
2651,1307.697
2652,1298.172
2653,1293.040
2654,1311.350
2655,1287.908
2656,1309.153
2657,1344.316
2658,1296.716
2659,1309.153
2660,1331.139
2661,1361.909
2662,1369.954
2663,1364.845
2664,1369.237
2665,1372.173
2666,1378.022
2667,1362.649
2668,1367.041
2669,1410.988
2670,1429.298
2671,1394.135
2672,1443.215
2673,1414.664
2674,1452.740
2675,1408.792
2676,1457.872
2677,1411.728
2678,1446.891
2679,1442.498
2680,1427.842
2681,1410.988
2682,1452.023
2683,1429.298
2684,1394.875
2685,1386.807
2686,1423.449
2687,1414.664
2688,1396.332
2689,1392.679
2690,1378.022
2691,1338.467
2692,1323.070
2693,1334.075
2694,1328.203
2695,1309.893
2696,1279.863
2697,1264.466
2698,1271.055
2699,1278.383
2700,1271.795
2701,1237.372
2702,1221.975
2703,1251.289
2704,1231.500
2705,1210.254
2706,1208.798
2707,1230.760
2708,1253.485
2709,1263.726
2710,1257.877
2711,1232.240
2712,1240.285
2713,1263.010
2714,1287.908
2715,1259.334
2716,1254.225
2717,1306.957
2718,1293.040
2719,1292.300
2720,1312.089
2721,1285.712
2722,1322.354
2723,1338.467
2724,1301.108
2725,1304.021
2726,1309.153
2727,1314.286
2728,1343.599
2729,1364.845
2730,1375.826
2731,1378.022
2732,1383.894
2733,1385.351
2734,1387.547
2735,1372.890
2736,1361.169
2737,1354.580
2738,1378.762
2739,1400.007
2740,1397.811
2741,1386.090
2742,1370.694
2743,1367.758
2744,1374.369
2745,1366.301
2746,1353.841
2747,1366.301
2748,1364.845
2749,1376.566
2750,1391.199
2751,1368.497
2752,1372.890
2753,1387.547
2754,1378.022
2755,1389.003
2756,1389.003
2757,1367.041
2758,1347.252
2759,1387.547
2760,1380.218
2761,1349.448
2762,1350.928
2763,1378.022
2764,1392.679
2765,1400.724
2766,1383.894
2767,1384.611
2768,1373.630
2769,1400.007
2770,1394.135
2771,1371.433
2772,1400.724
2773,1422.709
2774,1402.920
2775,1430.038
2776,1389.003
2777,1431.494
2778,1441.019
2779,1443.955
2780,1409.532
2781,1408.792
2782,1436.626
2783,1436.626
2784,1457.155
2785,1421.970
2786,1437.366
2787,1470.333
2788,1453.480
2789,1428.581
2790,1476.181
2791,1465.200
2792,1451.283
2793,1432.974
2794,1432.234
2795,1432.234
2796,1444.695
2797,1471.789
2798,1470.333
2799,1463.004
2800,1460.808
2801,1456.415
2802,1450.544
2803,1440.302
2804,1404.400
2805,1392.679
2806,1429.298
2807,1401.464
2808,1413.185
2809,1382.415
2810,1370.694
2811,1389.743
2812,1365.561
2813,1368.497
2814,1352.384
2815,1369.954
2816,1376.566
2817,1360.452
2818,1347.992
2819,1355.320
2820,1341.403
2821,1318.678
2822,1320.158
2823,1366.301
2824,1335.531
2825,1323.810
2826,1349.448
2827,1334.075
2828,1350.188
2829,1357.516
2830,1330.399
2831,1349.448
2832,1334.791
2833,1356.037
2834,1374.369
2835,1371.433
2836,1385.351
2837,1389.003
2838,1391.939
2839,1355.320
2840,1357.516
2841,1375.826
2842,1379.479
2843,1388.287
2844,1402.204
2845,1394.135
2846,1392.679
2847,1380.958
2848,1368.497
2849,1416.121
2850,1416.860
2851,1381.698
2852,1380.218
2853,1372.890
2854,1406.596
2855,1408.052
2856,1378.762
2857,1412.445
2858,1418.317
2859,1376.566
2860,1386.807
2861,1414.664
2862,1391.199
2863,1386.090
2864,1404.400
2865,1391.939
2866,1388.287
2867,1360.452
2868,1364.845
2869,1375.086
2870,1375.826
2871,1396.332
2872,1388.287
2873,1376.566
2874,1375.086
2875,1362.649
2876,1362.649
2877,1405.856
2878,1388.287
2879,1360.452
2880,1369.237
2881,1385.351
2882,1364.105
2883,1408.052
2884,1391.199
2885,1378.762
2886,1379.479
2887,1382.415
2888,1394.135
2889,1389.743
2890,1343.599
2891,1377.282
2892,1328.203
2893,1363.365
2894,1316.482
2895,1329.682
2896,1351.644
2897,1317.961
2898,1312.089
2899,1287.908
2900,1284.972
2901,1305.501
2902,1331.139
2903,1301.825
2904,1311.350
2905,1309.893
2906,1343.599
2907,1304.021
2908,1323.070
2909,1361.909
2910,1368.497
2911,1387.547
2912,1395.615
2913,1408.792
2914,1389.003
2915,1382.415
2916,1440.302
2917,1416.860
2918,1457.155
2919,1420.513
2920,1429.298
2921,1447.631
2922,1460.808
2923,1483.510
2924,1445.411
2925,1455.676
2926,1468.876
2927,1484.250
2928,1452.023
2929,1441.019
2930,1435.910
2931,1460.808
2932,1407.336
2933,1418.317
2934,1391.939
2935,1430.778
2936,1400.007
2937,1383.894
2938,1381.698
2939,1396.332
2940,1377.282
2941,1327.463
2942,1323.070
2943,1334.075
2944,1351.644
2945,1306.957
2946,1304.021
2947,1300.369
2948,1295.236
2949,1268.859
2950,1260.813
2951,1262.270
2952,1264.466
2953,1263.010
2954,1257.138
2955,1271.055
2956,1273.251
2957,1252.005
2958,1242.481
2959,1266.662
2960,1268.142
2961,1273.251
2962,1275.470
2963,1277.667
2964,1265.946
2965,1265.946
2966,1257.877
2967,1289.387
2968,1283.515
2969,1283.515
2970,1267.402
2971,1309.893
2972,1289.387
2973,1326.746
2974,1287.191
2975,1317.961
2976,1337.727
2977,1338.467
2978,1350.188
2979,1361.909
2980,1365.561
2981,1356.777
2982,1350.188
2983,1353.841
2984,1369.954
2985,1377.282
2986,1370.694
2987,1372.890
2988,1328.942
2989,1344.316
2990,1373.630
2991,1323.810
2992,1364.105
2993,1326.746
2994,1365.561
2995,1315.742
2996,1359.713
2997,1347.252
2998,1327.463
2999,1358.233
3000,1331.878
3001,1325.267
3002,1342.860
3003,1328.203
3004,1363.365
3005,1320.158
3006,1329.682
3007,1373.630
3008,1334.075
3009,1348.708
3010,1383.154
3011,1378.762
3012,1352.384
3013,1389.003
3014,1393.419
3015,1347.992
3016,1369.237
3017,1387.547
3018,1397.071
3019,1396.332
3020,1375.826
3021,1369.954
3022,1359.713
3023,1349.448
3024,1395.615
3025,1356.777
3026,1347.992
3027,1368.497
3028,1394.135
3029,1352.384
3030,1354.580
3031,1366.301
3032,1394.875
3033,1345.056
3034,1384.611
3035,1358.233
3036,1355.320
3037,1394.875
3038,1359.713
3039,1392.679
3040,1368.497
3041,1385.351
3042,1369.237
3043,1362.649
3044,1403.660
3045,1367.758
3046,1397.071
3047,1372.890
3048,1391.199
3049,1402.204
3050,1412.445
3051,1426.385
3052,1433.690
3053,1440.302
3054,1430.038
3055,1413.924
3056,1424.166
3057,1431.494
3058,1430.038
3059,1459.351
3060,1438.106
3061,1474.725
3062,1449.087
3063,1466.657
3064,1463.004
3065,1457.155
3066,1480.597
3067,1448.347
3068,1438.106
3069,1474.725
3070,1442.498
3071,1459.351
3072,1431.494
3073,1438.106
3074,1461.548
3075,1432.974
3076,1430.778
3077,1421.970
3078,1399.268
3079,1442.498
3080,1416.860
3081,1385.351
3082,1428.581
3083,1410.249
3084,1397.071
3085,1403.660
3086,1403.660
3087,1398.528
3088,1405.140
3089,1397.811
3090,1397.071
3091,1386.090
3092,1347.992
3093,1361.909
3094,1390.483
3095,1340.663
3096,1351.644
3097,1386.807
3098,1356.037
3099,1386.090
3100,1350.188
3101,1338.467
3102,1339.924
3103,1378.022
3104,1355.320
3105,1350.928
3106,1342.120
3107,1352.384
3108,1358.233
3109,1353.841
3110,1356.777
3111,1361.909
3112,1383.894
3113,1392.679
3114,1375.826
3115,1384.611
3116,1400.007
3117,1373.630
3118,1371.433
3119,1400.007
3120,1395.615
3121,1405.140
3122,1406.596
3123,1406.596
3124,1360.452
3125,1371.433
3126,1386.807
3127,1394.875
3128,1390.483
3129,1342.860
3130,1354.580
3131,1373.630
3132,1330.399
3133,1329.682
3134,1364.105
3135,1313.546
3136,1340.663
3137,1343.599
3138,1340.663
3139,1356.777
3140,1334.791
3141,1368.497
3142,1323.070
3143,1356.777
3144,1380.958
3145,1347.992
3146,1346.512
3147,1365.561
3148,1394.135
3149,1396.332
3150,1400.724
3151,1393.419
3152,1369.237
3153,1388.287
3154,1381.698
3155,1411.728
3156,1415.381
3157,1402.204
3158,1403.660
3159,1399.268
3160,1418.317
3161,1398.528
3162,1386.807
3163,1386.090
3164,1406.596
3165,1368.497
3166,1403.660
3167,1388.287
3168,1372.173
3169,1361.909
3170,1410.988
3171,1394.135
3172,1386.090
3173,1365.561
3174,1410.249
3175,1372.890
3176,1380.958
3177,1408.052
3178,1377.282
3179,1401.464
3180,1435.910
3181,1402.920
3182,1405.856
3183,1420.513
3184,1443.215
3185,1442.498
3186,1463.004
3187,1466.657
3188,1419.057
3189,1424.906
3190,1430.038
3191,1445.411
3192,1461.548
3193,1410.249
3194,1450.544
3195,1413.185
3196,1397.811
3197,1424.166
3198,1376.566
3199,1415.381
3200,1378.022
3201,1361.909
3202,1383.894
3203,1356.037
3204,1325.267
3205,1344.316
3206,1309.153
3207,1348.708
3208,1298.172
3209,1288.648
3210,1285.712
3211,1299.629
3212,1304.761
3213,1276.927
3214,1265.206
3215,1263.726
3216,1302.565
3217,1306.957
3218,1306.957
3219,1279.123
3220,1272.534
3221,1263.010
3222,1268.859
3223,1290.844
3224,1312.829
3225,1300.369
3226,1295.236
3227,1305.501
3228,1280.579
3229,1320.874
3230,1323.070
3231,1291.584
3232,1318.678
3233,1339.207
3234,1305.501
3235,1306.957
3236,1339.207
3237,1308.437
3238,1315.742
3239,1295.976
3240,1299.629
3241,1314.286
3242,1337.727
3243,1304.021
3244,1331.878
3245,1342.120
3246,1343.599
3247,1334.075
3248,1329.682
3249,1323.810
3250,1331.878
3251,1284.255
3252,1309.153
3253,1323.810
3254,1312.089
3255,1298.172
3256,1293.780
3257,1326.746
3258,1293.780
3259,1309.893
3260,1280.579
3261,1309.893
3262,1276.927
3263,1295.976
3264,1324.550
3265,1295.976
3266,1320.874
3267,1311.350
3268,1295.236
3269,1327.463
3270,1300.369
3271,1326.746
3272,1350.188
3273,1356.037
3274,1363.365
3275,1368.497
3276,1357.516
3277,1350.188
3278,1358.233
3279,1353.841
3280,1361.909
3281,1352.384
3282,1377.282
3283,1403.660
3284,1389.743
3285,1368.497
3286,1413.185
3287,1394.135
3288,1392.679
3289,1399.268
3290,1396.332
3291,1387.547
3292,1386.807
3293,1420.513
3294,1420.513
3295,1401.464
3296,1401.464
3297,1403.660
3298,1378.022
3299,1395.615
3300,1380.958
3301,1386.090
3302,1416.860
3303,1414.664
3304,1382.415
3305,1419.773
3306,1428.581
3307,1423.449
3308,1421.970
3309,1431.494
3310,1413.924
3311,1389.743
3312,1389.003
3313,1427.842
3314,1427.102
3315,1432.974
3316,1399.268
3317,1430.038
3318,1443.215
3319,1401.464
3320,1419.057
3321,1448.347
3322,1413.185
3323,1420.513
3324,1434.430
3325,1445.411
3326,1450.544
3327,1475.465
3328,1474.725
3329,1475.465
3330,1449.087
3331,1454.936
3332,1443.215
3333,1433.690
3334,1467.397
3335,1457.872
3336,1427.102
3337,1435.910
3338,1460.808
3339,1417.577
3340,1457.872
3341,1410.249
3342,1454.936
3343,1413.924
3344,1446.151
3345,1410.988
3346,1409.532
3347,1407.336
3348,1379.479
3349,1380.958
3350,1413.924
3351,1409.532
3352,1391.199
3353,1351.644
3354,1369.954
3355,1375.826
3356,1363.365
3357,1338.467
3358,1346.512
3359,1360.452
3360,1357.516
3361,1331.878
3362,1359.713
3363,1336.271
3364,1321.614
3365,1350.188
3366,1356.037
3367,1339.207
3368,1328.203
3369,1351.644
3370,1363.365
3371,1376.566
3372,1363.365
3373,1368.497
3374,1369.954
3375,1362.649
3376,1365.561
3377,1394.135
3378,1400.007
3379,1383.154
3380,1396.332
3381,1402.204
3382,1407.336
3383,1378.022
3384,1359.713
3385,1361.169
3386,1385.351
3387,1408.052
3388,1369.237
3389,1364.105
3390,1364.845
3391,1373.630
3392,1374.369
3393,1412.445
3394,1380.958
3395,1362.649
3396,1393.419
3397,1401.464
3398,1402.204
3399,1391.199
3400,1361.169
3401,1405.140
3402,1411.728
3403,1396.332
3404,1364.105
3405,1393.419
3406,1400.724
3407,1368.497
3408,1389.743
3409,1411.728
3410,1416.860
3411,1410.249
3412,1406.596
3413,1370.694
3414,1408.052
3415,1366.301
3416,1402.204
3417,1398.528
3418,1369.954
3419,1371.433
3420,1390.483
3421,1337.727
3422,1353.841
3423,1355.320
3424,1342.860
3425,1364.845
3426,1347.252
3427,1342.860
3428,1301.825
3429,1346.512
3430,1313.546
3431,1309.893
3432,1284.972
3433,1323.810
3434,1328.203
3435,1325.267
3436,1311.350
3437,1300.369
3438,1301.108
3439,1348.708
3440,1312.089
3441,1334.791
3442,1369.954
3443,1382.415
3444,1377.282
3445,1402.204
3446,1384.611
3447,1402.204
3448,1388.287
3449,1433.690
3450,1443.955
3451,1434.430
3452,1420.513
3453,1430.038
3454,1436.626
3455,1437.366
3456,1442.498
3457,1446.891
3458,1476.181
3459,1438.823
3460,1460.808
3461,1447.631
3462,1435.170
3463,1426.385
3464,1447.631
3465,1433.690
3466,1422.709
3467,1373.630
3468,1394.875
3469,1365.561
3470,1343.599
3471,1323.810
3472,1287.191
3473,1256.421
3474,1271.795
3475,1262.270
3476,1259.334
3477,1208.058
3478,1224.911
3479,1172.156
3480,1213.930
3481,1198.533
3482,1200.730
3483,1192.685
3484,1187.552
3485,1189.009
3486,1191.205
3487,1186.073
3488,1180.224
3489,1189.749
3490,1172.156
3491,1180.964
3492,1167.023
3493,1217.583
3494,1180.964
3495,1216.843
3496,1237.372
3497,1237.372
3498,1217.583
3499,1224.171
3500,1244.700
3501,1293.040
3502,1290.104
3503,1265.206
3504,1320.874
3505,1298.172
3506,1317.961
3507,1314.286
3508,1343.599
3509,1330.399
3510,1331.878
3511,1371.433
3512,1368.497
3513,1338.467
3514,1389.003
3515,1355.320
3516,1369.237
3517,1400.724
3518,1378.762
3519,1372.173
3520,1362.649
3521,1367.041
3522,1389.003
3523,1400.007
3524,1383.894
3525,1399.268
3526,1402.920
3527,1393.419
3528,1395.615
3529,1402.204
3530,1408.792
3531,1402.204
3532,1403.660
3533,1357.516
3534,1386.090
3535,1402.920
3536,1396.332
3537,1388.287
3538,1407.336
3539,1369.237
3540,1361.169
3541,1364.105
3542,1367.041
3543,1367.041
3544,1393.419
3545,1401.464
3546,1378.762
3547,1361.909
3548,1374.369
3549,1395.615
3550,1393.419
3551,1403.660
3552,1404.400
3553,1405.140
3554,1358.233
3555,1371.433
3556,1386.090
3557,1394.135
3558,1408.792
3559,1412.445
3560,1384.611
3561,1368.497
3562,1367.041
3563,1382.415
3564,1411.728
3565,1416.860
3566,1380.218
3567,1373.630
3568,1383.894
3569,1380.218
3570,1381.698
3571,1385.351
3572,1388.287
3573,1398.528
3574,1402.204
3575,1411.728
3576,1436.626
3577,1438.823
3578,1452.740
3579,1452.023
3580,1440.302
3581,1437.366
3582,1443.215
3583,1443.955
3584,1430.778
3585,1422.709
3586,1468.876
3587,1456.415
3588,1437.366
3589,1438.106
3590,1456.415
3591,1473.269
3592,1443.955
3593,1432.234
3594,1471.789
3595,1465.200
3596,1463.004
3597,1452.023
3598,1447.631
3599,1429.298
3600,1421.970
3601,1446.151
3602,1444.695
3603,1427.102
3604,1406.596
3605,1385.351
3606,1398.528
3607,1396.332
3608,1408.052
3609,1375.086
3610,1352.384
3611,1370.694
3612,1395.615
3613,1363.365
3614,1380.958
3615,1337.727
3616,1378.762
3617,1345.796
3618,1347.992
3619,1372.173
3620,1368.497
3621,1340.663
3622,1328.942
3623,1353.841
3624,1364.845
3625,1328.203
3626,1378.762
3627,1349.448
3628,1383.894
3629,1353.841
3630,1389.003
3631,1369.954
3632,1406.596
3633,1432.234
3634,1440.302
3635,1441.759
3636,1449.827
3637,1433.690
3638,1434.430
3639,1461.548
3640,1447.631
3641,1432.974
3642,1461.548
3643,1476.181
3644,1442.498
3645,1432.234
3646,1472.529
3647,1470.333
3648,1463.744
3649,1463.004
3650,1433.690
3651,1413.924
3652,1446.151
3653,1405.140
3654,1388.287
3655,1404.400
3656,1411.728
3657,1367.041
3658,1371.433
3659,1364.845
3660,1355.320
3661,1386.807
3662,1370.694
3663,1343.599
3664,1351.644
3665,1362.649
3666,1323.810
3667,1361.169
3668,1335.531
3669,1317.222
3670,1358.233
3671,1351.644
3672,1350.928
3673,1335.531
3674,1339.207
3675,1336.988
3676,1330.399
3677,1317.961
3678,1339.924
3679,1365.561
3680,1323.070
3681,1373.630
3682,1358.973
3683,1339.207
3684,1353.124
3685,1367.758
3686,1320.158
3687,1366.301
3688,1345.796
3689,1317.222
3690,1326.006
3691,1336.988
3692,1325.267
3693,1336.271
3694,1304.021
3695,1339.207
3696,1302.565
3697,1332.595
3698,1328.203
3699,1342.120
3700,1325.267
3701,1364.105
3702,1327.463
3703,1350.188
3704,1373.630
3705,1353.124
3706,1406.596
3707,1397.071
3708,1386.807
3709,1426.385
3710,1400.724
3711,1446.891
3712,1442.498
3713,1435.170
3714,1464.461
3715,1476.921
3716,1441.759
3717,1454.936
3718,1476.921
3719,1488.642
3720,1474.725
3721,1474.725
3722,1435.910
3723,1473.985
3724,1449.827
3725,1430.038
3726,1420.513
3727,1405.140
3728,1432.974
3729,1416.860
3730,1376.566
3731,1368.497
3732,1363.365
3733,1367.758
3734,1380.958
3735,1369.954
3736,1352.384
3737,1323.070
3738,1303.304
3739,1334.075
3740,1306.217
3741,1309.893
3742,1312.829
3743,1304.761
3744,1286.451
3745,1271.795
3746,1252.005
3747,1260.813
3748,1282.059
3749,1241.764
3750,1275.470
3751,1239.568
3752,1227.107
3753,1248.353
3754,1258.617
3755,1231.500
3756,1265.206
3757,1273.251
3758,1235.176
3759,1257.877
3760,1274.731
3761,1295.236
3762,1293.780
3763,1292.300
3764,1279.863
3765,1282.059
3766,1296.716
3767,1284.255
3768,1297.433
3769,1326.746
3770,1306.217
3771,1303.304
3772,1344.316
3773,1306.217
3774,1350.188
3775,1309.893
3776,1356.037
3777,1328.203
3778,1312.089
3779,1361.909
3780,1341.403
3781,1323.810
3782,1361.909
3783,1325.267
3784,1361.909
3785,1317.222
3786,1346.512
3787,1312.829
3788,1352.384
3789,1312.829
3790,1343.599
3791,1310.633
3792,1341.403
3793,1334.791
3794,1314.286
3795,1357.516
3796,1311.350
3797,1358.233
3798,1347.992
3799,1330.399
3800,1347.252
3801,1361.169
3802,1339.207
3803,1387.547
3804,1358.973
3805,1371.433
3806,1380.958
3807,1403.660
3808,1372.890
3809,1370.694
3810,1384.611
3811,1389.743
3812,1353.841
3813,1399.268
3814,1368.497
3815,1396.332
3816,1367.041
3817,1355.320
3818,1356.777
3819,1394.135
3820,1361.169
3821,1372.890
3822,1365.561
3823,1394.135
3824,1355.320
3825,1378.762
3826,1390.483
3827,1398.528
3828,1396.332
3829,1383.154
3830,1361.169
3831,1361.909
3832,1410.249
3833,1376.566
3834,1419.057
3835,1375.086
3836,1416.860
3837,1427.102
3838,1414.664
3839,1389.743
3840,1385.351
3841,1388.287
3842,1405.140
3843,1418.317
3844,1412.445
3845,1397.811
3846,1394.875
3847,1397.071
3848,1390.483
3849,1388.287
3850,1415.381
3851,1418.317
3852,1441.759
3853,1431.494
3854,1420.513
3855,1442.498
3856,1446.151
3857,1439.562
3858,1424.906
3859,1400.724
3860,1426.385
3861,1441.759
3862,1430.778
3863,1394.135
3864,1415.381
3865,1405.140
3866,1405.140
3867,1427.842
3868,1387.547
3869,1434.430
3870,1385.351
3871,1416.121
3872,1417.577
3873,1387.547
3874,1423.449
3875,1378.022
3876,1421.970
3877,1405.140
3878,1389.743
3879,1370.694
3880,1405.140
3881,1376.566
3882,1368.497
3883,1407.336
3884,1366.301
3885,1373.630
3886,1358.233
3887,1401.464
3888,1383.894
3889,1360.452
3890,1401.464
3891,1355.320
3892,1394.875
3893,1378.762
3894,1365.561
3895,1374.369
3896,1386.807
3897,1385.351
3898,1384.611
3899,1389.743
3900,1403.660
3901,1414.664
3902,1414.664
3903,1452.023
3904,1468.136
3905,1452.740
3906,1440.302
3907,1437.366
3908,1486.446
3909,1461.548
3910,1444.695
3911,1470.333
3912,1489.382
3913,1459.351
3914,1446.151
3915,1489.382
3916,1464.461
3917,1457.872
3918,1440.302
3919,1444.695
3920,1459.351
3921,1447.631
3922,1427.102
3923,1404.400
3924,1387.547
3925,1404.400
3926,1421.970
3927,1414.664
3928,1405.856
3929,1408.792
3930,1391.199
3931,1355.320
3932,1383.154
3933,1394.875
3934,1345.056
3935,1351.644
3936,1386.807
3937,1340.663
3938,1380.958
3939,1364.105
3940,1330.399
3941,1370.694
3942,1332.595
3943,1336.271
3944,1326.746
3945,1322.354
3946,1296.716
3947,1309.153
3948,1318.678
3949,1279.123
3950,1274.731
3951,1312.089
3952,1317.222
3953,1282.059
3954,1285.712
3955,1275.470
3956,1271.795
3957,1285.712
3958,1328.942
3959,1299.629
3960,1345.056
3961,1306.957
3962,1365.561
3963,1342.120
3964,1340.663
3965,1354.580
3966,1383.154
3967,1391.199
3968,1410.988
3969,1444.695
3970,1446.151
3971,1432.974
3972,1470.333
3973,1468.876
3974,1456.415
3975,1493.035
3976,1468.876
3977,1460.808
3978,1456.415
3979,1467.397
3980,1498.907
3981,1460.808
3982,1453.480
3983,1434.430
3984,1471.789
3985,1429.298
3986,1405.140
3987,1394.875
3988,1389.003
3989,1399.268
3990,1372.173
3991,1361.909
3992,1356.037
3993,1362.649
3994,1334.075
3995,1350.928
3996,1347.252
3997,1316.482
3998,1284.972
3999,1308.437
4000,1308.437
4001,1279.863
4002,1292.300
4003,1276.927
4004,1284.972
4005,1272.534
4006,1300.369
4007,1263.726
4008,1253.485
4009,1298.172
4010,1297.433
4011,1306.217
4012,1308.437
4013,1304.021
4014,1282.776
4015,1315.025
4016,1284.255
4017,1315.742
4018,1332.595
4019,1306.957
4020,1304.021
4021,1322.354
4022,1355.320
4023,1361.909
4024,1341.403
4025,1336.988
4026,1335.531
4027,1386.090
4028,1358.973
4029,1372.890
4030,1403.660
4031,1367.041
4032,1408.052
4033,1406.596
4034,1383.154
4035,1412.445
4036,1421.970
4037,1430.038
4038,1416.860
4039,1382.415
4040,1396.332
4041,1388.287
4042,1402.204
4043,1391.939
4044,1364.105
4045,1383.154
4046,1390.483
4047,1369.237
4048,1355.320
4049,1340.663
4050,1330.399
4051,1358.973
4052,1331.139
4053,1314.286
4054,1318.678
4055,1341.403
4056,1320.158
4057,1292.300
4058,1316.482
4059,1330.399
4060,1321.614
4061,1276.927
4062,1306.957
4063,1302.565
4064,1278.383
4065,1312.089
4066,1331.878
4067,1285.712
4068,1289.387
4069,1291.584
4070,1326.006
4071,1349.448
4072,1331.878
4073,1312.829
4074,1344.316
4075,1353.124
4076,1325.267
4077,1367.041
4078,1342.120
4079,1362.649
4080,1357.516
4081,1359.713
4082,1388.287
4083,1397.071
4084,1400.007
4085,1385.351
4086,1365.561
4087,1358.233
4088,1399.268
4089,1361.169
4090,1381.698
4091,1402.920
4092,1397.811
4093,1399.268
4094,1366.301
4095,1363.365
4096,1391.199
4097,1392.679
4098,1398.528
4099,1370.694
4100,1402.204
4101,1411.728
4102,1399.268
4103,1386.807
4104,1365.561
4105,1386.090
4106,1410.988
4107,1391.199
4108,1372.890
4109,1396.332
4110,1383.894
4111,1369.954
4112,1394.135
4113,1412.445
4114,1397.811
4115,1375.086
4116,1395.615
4117,1422.709
4118,1382.415
4119,1375.086
4120,1386.807
4121,1405.856
4122,1419.057
4123,1373.630
4124,1395.615
4125,1413.924
4126,1380.218
4127,1405.856
4128,1358.233
4129,1375.086
4130,1387.547
4131,1362.649
4132,1387.547
4133,1347.252
4134,1383.894
4135,1356.037
4136,1347.252
4137,1380.218
4138,1334.075
4139,1378.762
4140,1345.796
4141,1326.006
4142,1345.056
4143,1353.124
4144,1333.335
4145,1321.614
4146,1372.173
4147,1328.942
4148,1361.169
4149,1348.708
4150,1331.139
4151,1324.550
4152,1375.826
4153,1338.467
4154,1378.762
4155,1354.580
4156,1386.807
4157,1346.512
4158,1355.320
4159,1394.135
4160,1369.954
4161,1349.448
4162,1350.928
4163,1363.365
4164,1367.041
4165,1359.713
4166,1356.777
4167,1359.713
4168,1365.561
4169,1378.762
4170,1389.743
4171,1410.988
4172,1383.154
4173,1378.022
4174,1368.497
4175,1372.173
4176,1374.369
4177,1392.679
4178,1413.185
4179,1366.301
4180,1379.479
4181,1404.400
4182,1361.909
4183,1378.022
4184,1398.528
4185,1408.052
4186,1374.369
4187,1366.301
4188,1396.332
4189,1390.483
4190,1355.320
4191,1376.566
4192,1404.400
4193,1356.037
4194,1397.811
4195,1388.287
4196,1387.547
4197,1405.140
4198,1356.777
4199,1383.894
4200,1374.369
4201,1386.807
4202,1348.708
4203,1393.419
4204,1376.566
4205,1345.056
4206,1378.762
4207,1353.841
4208,1323.070
4209,1356.777
4210,1345.056
4211,1308.437
4212,1304.021
4213,1302.565
4214,1316.482
4215,1309.153
4216,1306.957
4217,1303.304
4218,1254.941
4219,1273.991
4220,1271.055
4221,1251.289
4222,1273.991
4223,1262.270
4224,1260.074
4225,1252.005
4226,1263.726
4227,1279.123
4228,1340.663
4229,1323.810
4230,1374.369
4231,1351.644
4232,1378.022
4233,1432.234
4234,1440.302
4235,1444.695
4236,1468.876
4237,1517.956
4238,1550.182
4239,1534.809
4240,1586.825
4241,1610.266
4242,1622.704
4243,1619.051
4244,1639.557
4245,1620.508
4246,1622.704
4247,1634.425
4248,1646.885
4249,1614.659
4250,1599.262
4251,1592.673
4252,1598.545
4253,1586.825
4254,1572.168
4255,1534.809
4256,1548.726
4257,1543.594
4258,1524.544
4259,1475.465
4260,1477.661
4261,1472.529
4262,1454.936
4263,1426.385
4264,1420.513
4265,1401.464
4266,1347.992
4267,1372.890
4268,1345.056
4269,1308.437
4270,1345.056
4271,1317.222
4272,1286.451
4273,1317.961
4274,1264.466
4275,1296.716
4276,1268.142
4277,1260.074
4278,1279.123
4279,1273.991
4280,1274.731
4281,1227.107
4282,1262.270
4283,1220.519
4284,1252.005
4285,1209.514
4286,1208.058
4287,1251.289
4288,1241.024
4289,1221.235
4290,1260.813
4291,1211.734
4292,1262.270
4293,1239.568
4294,1273.251
4295,1231.500
4296,1262.270
4297,1240.285
4298,1274.731
4299,1296.716
4300,1304.021
4301,1295.976
4302,1298.912
4303,1271.055
4304,1274.731
4305,1303.304
4306,1327.463
4307,1319.418
4308,1285.712
4309,1331.139
4310,1312.829
4311,1293.780
4312,1335.531
4313,1290.844
4314,1332.595
4315,1333.335
4316,1312.829
4317,1308.437
4318,1296.716
4319,1334.791
4320,1315.742
4321,1283.515
4322,1331.139
4323,1305.501
4324,1283.515
4325,1320.158
4326,1309.893
4327,1292.300
4328,1293.780
4329,1297.433
4330,1304.761
4331,1357.516
4332,1337.727
4333,1317.222
4334,1366.301
4335,1325.267
4336,1361.909
4337,1331.878
4338,1373.630
4339,1371.433
4340,1368.497
4341,1366.301
4342,1345.056
4343,1389.003
4344,1380.958
4345,1386.807
4346,1374.369
4347,1391.199
4348,1407.336
4349,1422.709
4350,1427.102
4351,1416.121
4352,1407.336
4353,1460.068
4354,1443.215
4355,1438.823
4356,1474.725
4357,1443.215
4358,1465.200
4359,1501.843
4360,1471.072
4361,1475.465
4362,1510.627
4363,1468.136
4364,1481.314
4365,1510.627
4366,1470.333
4367,1503.299
4368,1463.004
4369,1492.318
4370,1460.808
4371,1484.989
4372,1449.087
4373,1466.657
4374,1432.974
4375,1452.740
4376,1408.792
4377,1422.709
4378,1436.626
4379,1389.003
4380,1386.090
4381,1373.630
4382,1386.090
4383,1386.807
4384,1342.860
4385,1325.267
4386,1336.988
4387,1330.399
4388,1324.550
4389,1290.104
4390,1331.878
4391,1290.844
4392,1282.059
4393,1306.217
4394,1285.712
4395,1271.055
4396,1293.780
4397,1298.912
4398,1290.104
4399,1290.844
4400,1303.304
4401,1305.501
4402,1315.025
4403,1314.286
4404,1301.108
4405,1281.319
4406,1317.222
4407,1284.255
4408,1298.172
4409,1328.942
4410,1334.075
4411,1306.217
4412,1331.139
4413,1344.316
4414,1361.169
4415,1328.942
4416,1370.694
4417,1381.698
4418,1376.566
4419,1347.252
4420,1394.135
4421,1386.090
4422,1379.479
4423,1372.890
4424,1390.483
4425,1389.743
4426,1394.875
4427,1417.577
4428,1399.268
4429,1372.890
4430,1378.022
4431,1378.022
4432,1421.253
4433,1408.792
4434,1400.724
4435,1385.351
4436,1386.807
4437,1387.547
4438,1387.547
4439,1399.268
4440,1426.385
4441,1402.204
4442,1431.494
4443,1435.910
4444,1437.366
4445,1424.906
4446,1409.532
4447,1386.807
4448,1388.287
4449,1433.690
4450,1425.645
4451,1427.102
4452,1414.664
4453,1406.596
4454,1414.664
4455,1411.728
4456,1411.728
4457,1400.724
4458,1420.513
4459,1419.773
4460,1420.513
4461,1422.709
4462,1395.615
4463,1378.022
4464,1381.698
4465,1394.135
4466,1374.369
4467,1387.547
4468,1407.336
4469,1379.479
4470,1376.566
4471,1378.762
4472,1357.516
4473,1389.003
4474,1336.271
4475,1347.992
4476,1353.124
4477,1350.928
4478,1325.267
4479,1301.108
4480,1282.059
4481,1323.070
4482,1312.829
4483,1295.236
4484,1270.338
4485,1246.157
4486,1243.221
4487,1242.481
4488,1292.300
4489,1291.584
4490,1293.040
4491,1290.844
4492,1288.648
4493,1326.746
4494,1342.860
4495,1345.796
4496,1369.237
4497,1372.173
4498,1391.199
4499,1373.630
4500,1432.234
4501,1413.924
4502,1454.936
4503,1468.136
4504,1462.264
4505,1438.823
4506,1443.955
4507,1477.661
4508,1476.921
4509,1494.514
4510,1495.231
4511,1493.774
4512,1490.838
4513,1482.053
4514,1482.793
4515,1489.382
4516,1440.302
4517,1473.985
4518,1435.170
4519,1465.940
4520,1447.631
4521,1446.151
4522,1468.876
4523,1450.544
4524,1421.253
4525,1433.690
4526,1449.827
4527,1429.298
4528,1427.102
4529,1428.581
4530,1403.660
4531,1394.135
4532,1438.823
4533,1419.057
4534,1421.970
4535,1401.464
4536,1402.204
4537,1406.596
4538,1368.497
4539,1343.599
4540,1374.369
4541,1343.599
4542,1315.742
4543,1323.070
4544,1337.727
4545,1309.153
4546,1292.300
4547,1275.470
4548,1312.829
4549,1292.300
4550,1303.304
4551,1297.433
4552,1266.662
4553,1245.417
4554,1246.157
4555,1241.764
4556,1252.745
4557,1278.383
4558,1284.255
4559,1294.497
4560,1246.896
4561,1270.338
4562,1304.021
4563,1307.697
4564,1312.089
4565,1313.546
4566,1268.859
4567,1295.236
4568,1296.716
4569,1291.584
4570,1281.319
4571,1307.697
4572,1309.153
4573,1276.187
4574,1275.470
4575,1320.874
4576,1303.304
4577,1286.451
4578,1284.972
4579,1292.300
4580,1287.191
4581,1289.387
4582,1296.716
4583,1251.289
4584,1273.991
4585,1254.941
4586,1274.731
4587,1287.191
4588,1239.568
4589,1272.534
4590,1290.844
4591,1290.844
4592,1296.716
4593,1265.946
4594,1268.142
4595,1273.251
4596,1282.059
4597,1328.203
4598,1337.727
4599,1319.418
4600,1360.452
4601,1380.958
4602,1353.841
4603,1358.973
4604,1389.743
4605,1427.102
4606,1420.513
4607,1403.660
4608,1454.219
4609,1443.955
4610,1458.612
4611,1432.234
4612,1460.068
4613,1486.446
4614,1460.068
4615,1498.167
4616,1453.480
4617,1498.907
4618,1455.676
4619,1466.657
4620,1495.971
4621,1502.559
4622,1455.676
4623,1476.921
4624,1478.401
4625,1478.401
4626,1494.514
4627,1451.283
4628,1456.415
4629,1460.808
4630,1484.250
4631,1488.642
4632,1444.695
4633,1435.910
4634,1470.333
4635,1468.136
4636,1468.136
4637,1430.778
4638,1417.577
4639,1454.219
4640,1409.532
4641,1452.740
4642,1417.577
4643,1419.773
4644,1443.215
4645,1408.792
4646,1389.743
4647,1426.385
4648,1424.166
4649,1418.317
4650,1413.185
4651,1403.660
4652,1375.826
4653,1375.086
4654,1393.419
4655,1349.448
4656,1350.928
4657,1365.561
4658,1369.954
4659,1375.086
4660,1326.746
4661,1340.663
4662,1353.124
4663,1347.252
4664,1311.350
4665,1332.595
4666,1353.124
4667,1345.796
4668,1352.384
4669,1345.056
4670,1349.448
4671,1337.727
4672,1347.252
4673,1338.467
4674,1326.006
4675,1333.335
4676,1311.350
4677,1300.369
4678,1352.384
4679,1323.070
4680,1309.893
4681,1353.841
4682,1351.644
4683,1317.222
4684,1361.169
4685,1324.550
4686,1320.874
4687,1370.694
4688,1343.599
4689,1369.237
4690,1356.777
4691,1339.207
4692,1386.807
4693,1356.037
4694,1393.419
4695,1361.169
4696,1404.400
4697,1364.105
4698,1393.419
4699,1421.253
4700,1399.268
4701,1388.287
4702,1388.287
4703,1400.007
4704,1402.920
4705,1402.204
4706,1402.920
4707,1404.400
4708,1430.778
4709,1428.581
4710,1413.924
4711,1448.347
4712,1416.121
4713,1424.906
4714,1397.811
4715,1396.332
4716,1411.728
4717,1430.778
4718,1415.381
4719,1377.282
4720,1408.052
4721,1403.660
4722,1382.415
4723,1384.611
4724,1389.743
4725,1352.384
4726,1361.909
4727,1372.173
4728,1342.120
4729,1350.928
4730,1365.561
4731,1353.841
4732,1336.271
4733,1370.694
4734,1328.203
4735,1366.301
4736,1342.120
4737,1314.286
4738,1358.973
4739,1343.599
4740,1333.335
4741,1323.070
4742,1315.742
4743,1294.497
4744,1292.300
4745,1286.451
4746,1290.844
4747,1302.565
4748,1323.070
4749,1314.286
4750,1317.222
4751,1306.217
4752,1260.813
4753,1298.912
4754,1309.893
4755,1310.633
4756,1306.957
4757,1304.021
4758,1302.565
4759,1274.731
4760,1318.678
4761,1321.614
4762,1291.584
4763,1336.988
4764,1324.550
4765,1342.860
4766,1338.467
4767,1366.301
4768,1371.433
4769,1331.139
4770,1337.727
4771,1348.708
4772,1381.698
4773,1394.875
4774,1393.419
4775,1380.958
4776,1375.086
4777,1388.287
4778,1405.140
4779,1430.778
4780,1410.988
4781,1400.007
4782,1400.007
4783,1442.498
4784,1410.988
4785,1446.891
4786,1413.185
4787,1446.151
4788,1446.891
4789,1415.381
4790,1454.936
4791,1460.068
4792,1449.827
4793,1424.166
4794,1457.155
4795,1413.924
4796,1443.955
4797,1410.249
4798,1400.007
4799,1397.071
4800,1399.268
4801,1394.135
4802,1411.728
4803,1419.773
4804,1391.939
4805,1424.166
4806,1410.988
4807,1378.022
4808,1400.007
4809,1394.135
4810,1377.282
4811,1394.135
4812,1362.649
4813,1375.826
4814,1350.188
4815,1345.796
4816,1376.566
4817,1364.845
4818,1344.316
4819,1339.207
4820,1337.727
4821,1346.512
4822,1334.075
4823,1328.203
4824,1304.761
4825,1317.961
4826,1314.286
4827,1317.222
4828,1280.579
4829,1293.780
4830,1317.222
4831,1324.550
4832,1328.942
4833,1314.286
4834,1302.565
4835,1331.878
4836,1347.252
4837,1312.089
4838,1352.384
4839,1316.482
4840,1361.169
4841,1347.992
4842,1334.075
4843,1346.512
4844,1378.022
4845,1345.796
4846,1333.335
4847,1350.188
4848,1353.124
4849,1356.777
4850,1361.909
4851,1361.909
4852,1335.531
4853,1375.086
4854,1334.075
4855,1370.694
4856,1333.335
4857,1380.218
4858,1367.041
4859,1342.860
4860,1394.875
4861,1376.566
4862,1375.086
4863,1413.185
4864,1389.003
4865,1381.698
4866,1389.743
4867,1441.759
4868,1443.955
4869,1413.185
4870,1439.562
4871,1440.302
4872,1473.269
4873,1463.744
4874,1447.631
4875,1487.186
4876,1465.200
4877,1445.411
4878,1488.642
4879,1441.019
4880,1466.657
4881,1440.302
4882,1476.921
4883,1430.778
4884,1466.657
4885,1462.264
4886,1434.430
4887,1408.052
4888,1400.007
4889,1438.823
4890,1432.234
4891,1426.385
4892,1417.577
4893,1417.577
4894,1372.173
4895,1386.807
4896,1387.547
4897,1410.988
4898,1413.185
4899,1377.282
4900,1389.003
4901,1374.369
4902,1402.920
4903,1425.645
4904,1401.464
4905,1427.102
4906,1406.596
4907,1405.856
4908,1394.135
4909,1397.071
4910,1413.924
4911,1422.709
4912,1431.494
4913,1443.955
4914,1420.513
4915,1400.007
4916,1402.204
4917,1422.709
4918,1435.170
4919,1432.974
4920,1421.253
4921,1386.090
4922,1382.415
4923,1399.268
4924,1413.924
4925,1365.561
4926,1382.415
4927,1394.875
4928,1388.287
4929,1342.120
4930,1381.698
4931,1364.105
4932,1342.860
4933,1343.599
4934,1328.203
4935,1364.845
4936,1339.207
4937,1312.089
4938,1316.482
4939,1308.437
4940,1316.482
4941,1318.678
4942,1354.580
4943,1351.644
4944,1356.037
4945,1331.878
4946,1329.682
4947,1352.384
4948,1361.169
4949,1336.271
4950,1336.988
4951,1323.070
4952,1374.369
4953,1345.056
4954,1336.988
4955,1381.698
4956,1347.992
4957,1372.890
4958,1388.287
4959,1397.071
4960,1367.041
4961,1389.743
4962,1397.071
4963,1402.204
4964,1424.166
4965,1429.298
4966,1431.494
4967,1408.052
4968,1393.419
4969,1427.842
4970,1426.385
4971,1412.445
4972,1396.332
4973,1419.773
4974,1438.106
4975,1437.366
4976,1419.773
4977,1413.185
4978,1412.445
4979,1432.234
4980,1400.724
4981,1413.924
4982,1425.645
4983,1410.988
4984,1389.003
4985,1423.449
4986,1432.974
4987,1386.090
4988,1408.052
4989,1434.430
4990,1419.773
4991,1399.268
4992,1398.528
4993,1421.253
4994,1441.759
4995,1427.842
4996,1395.615
4997,1398.528
4998,1405.856
4999,1421.253
5000,1421.253
5001,1438.106
5002,1429.298
5003,1400.007
5004,1401.464
5005,1405.856
5006,1391.199
5007,1396.332
5008,1422.709
5009,1374.369
5010,1401.464
5011,1389.743
5012,1369.237
5013,1345.796
5014,1327.463
5015,1317.222
5016,1356.037
5017,1347.252
5018,1327.463
5019,1293.040
5020,1289.387
5021,1309.153
5022,1265.206
5023,1286.451
5024,1301.108
5025,1271.795
5026,1308.437
5027,1301.825
5028,1279.863
5029,1268.859
5030,1291.584
5031,1323.810
5032,1314.286
5033,1291.584
5034,1342.860
5035,1301.108
5036,1350.928
5037,1325.267
5038,1345.796
5039,1372.890
5040,1347.252
5041,1386.090
5042,1345.056
5043,1363.365
5044,1391.939
5045,1353.841
5046,1397.071
5047,1360.452
5048,1377.282
5049,1376.566
5050,1368.497
5051,1377.282
5052,1348.708
5053,1381.698
5054,1348.708
5055,1332.595
5056,1320.158
5057,1329.682
5058,1346.512
5059,1330.399
5060,1325.267
5061,1327.463
5062,1311.350
5063,1286.451
5064,1300.369
5065,1318.678
5066,1268.142
5067,1273.991
5068,1295.976
5069,1263.726
5070,1298.912
5071,1263.726
5072,1279.123
5073,1246.896
5074,1290.104
5075,1276.187
5076,1290.104
5077,1294.497
5078,1257.877
5079,1264.466
5080,1283.515
5081,1290.844
5082,1287.908
5083,1293.040
5084,1288.648
5085,1285.712
5086,1270.338
5087,1286.451
5088,1328.203
5089,1282.776
5090,1336.271
5091,1333.335
5092,1322.354
5093,1304.761
5094,1316.482
5095,1343.599
5096,1324.550
5097,1310.633
5098,1361.909
5099,1342.860
5100,1337.727
5101,1326.006
5102,1372.890
5103,1345.796
5104,1330.399
5105,1366.301
5106,1342.860
5107,1341.403
5108,1375.826
5109,1368.497
5110,1339.207
5111,1352.384
5112,1328.942
5113,1359.713
5114,1323.070
5115,1315.742
5116,1309.893
5117,1320.874
5118,1301.825
5119,1340.663
5120,1335.531
5121,1333.335
5122,1330.399
5123,1326.006
5124,1323.070
5125,1304.761
5126,1304.761
5127,1291.584
5128,1307.697
5129,1295.976
5130,1274.731
5131,1277.667
5132,1328.203
5133,1294.497
5134,1291.584
5135,1333.335
5136,1294.497
5137,1339.207
5138,1304.761
5139,1329.682
5140,1358.233
5141,1328.942
5142,1350.928
5143,1329.682
5144,1355.320
5145,1373.630
5146,1367.758
5147,1375.086
5148,1386.807
5149,1385.351
5150,1366.301
5151,1413.185
5152,1416.860
5153,1388.287
5154,1383.154
5155,1429.298
5156,1435.910
5157,1415.381
5158,1410.988
5159,1397.071
5160,1448.347
5161,1442.498
5162,1452.740
5163,1450.544
5164,1436.626
5165,1412.445
5166,1424.166
5167,1404.400
5168,1407.336
5169,1449.087
5170,1452.023
5171,1446.891
5172,1444.695
5173,1427.842
5174,1412.445
5175,1399.268
5176,1413.924
5177,1417.577
5178,1436.626
5179,1446.891
5180,1433.690
5181,1405.856
5182,1417.577
5183,1408.792
5184,1456.415
5185,1411.728
5186,1457.872
5187,1416.860
5188,1467.397
5189,1471.072
5190,1456.415
5191,1429.298
5192,1471.072
5193,1443.215
5194,1484.989
5195,1476.181
5196,1470.333
5197,1457.872
5198,1460.068
5199,1479.857
5200,1463.004
5201,1460.068
5202,1476.181
5203,1476.921
5204,1446.151
5205,1446.151
5206,1476.921
5207,1460.068
5208,1438.823
5209,1427.102
5210,1423.449
5211,1416.121
5212,1416.860
5213,1409.532
5214,1419.773
5215,1421.970
5216,1373.630
5217,1376.566
5218,1372.890
5219,1378.762
5220,1400.007
5221,1350.188
5222,1367.758
5223,1383.894
5224,1367.758
5225,1350.188
5226,1358.973
5227,1338.467
5228,1366.301
5229,1365.561
5230,1351.644
5231,1331.878
5232,1335.531
5233,1378.762
5234,1345.056
5235,1328.203
5236,1374.369
5237,1328.203
5238,1379.479
5239,1328.203
5240,1345.796
5241,1372.890
5242,1332.595
5243,1375.826
5244,1344.316
5245,1346.512
5246,1352.384
5247,1330.399
5248,1367.041
5249,1353.841
5250,1343.599
5251,1320.874
5252,1341.403
5253,1333.335
5254,1325.267
5255,1329.682
5256,1371.433
5257,1367.758
5258,1372.173
5259,1375.826
5260,1384.611
5261,1384.611
5262,1375.086
5263,1348.708
5264,1369.954
5265,1375.086
5266,1369.237
5267,1369.954
5268,1388.287
5269,1349.448
5270,1360.452
5271,1390.483
5272,1364.105
5273,1345.796
5274,1327.463
5275,1318.678
5276,1328.942
5277,1350.188
5278,1320.874
5279,1284.972
5280,1325.267
5281,1276.927
5282,1292.300
5283,1262.270
5284,1301.825
5285,1275.470
5286,1246.896
5287,1292.300
5288,1279.123
5289,1282.776
5290,1248.353
5291,1293.040
5292,1308.437
5293,1315.025
5294,1312.829
5295,1311.350
5296,1309.153
5297,1312.829
5298,1368.497
5299,1346.512
5300,1368.497
5301,1404.400
5302,1391.939
5303,1411.728
5304,1441.759
5305,1459.351
5306,1449.087
5307,1484.989
5308,1463.744
5309,1506.235
5310,1493.774
5311,1482.793
5312,1504.039
5313,1520.152
5314,1498.907
5315,1495.231
5316,1497.427
5317,1457.872
5318,1443.215
5319,1452.023
5320,1459.351
5321,1448.347
5322,1386.090
5323,1394.875
5324,1381.698
5325,1361.169
5326,1317.222
5327,1315.025
5328,1286.451
5329,1284.972
5330,1306.217
5331,1299.629
5332,1248.353
5333,1259.334
5334,1254.225
5335,1236.632
5336,1213.930
5337,1242.481
5338,1254.941
5339,1235.176
5340,1216.843
5341,1239.568
5342,1205.122
5343,1256.421
5344,1213.930
5345,1256.421
5346,1228.564
5347,1226.368
5348,1259.334
5349,1230.043
5350,1270.338
5351,1288.648
5352,1259.334
5353,1305.501
5354,1271.055
5355,1302.565
5356,1279.123
5357,1316.482
5358,1299.629
5359,1299.629
5360,1334.791
5361,1358.233
5362,1353.124
5363,1350.188
5364,1376.566
5365,1380.958
5366,1388.287
5367,1350.928
5368,1381.698
5369,1398.528
5370,1376.566
5371,1410.988
5372,1370.694
5373,1418.317
5374,1393.419
5375,1374.369
5376,1420.513
5377,1372.890
5378,1417.577
5379,1390.483
5380,1380.218
5381,1397.811
5382,1363.365
5383,1403.660
5384,1368.497
5385,1354.580
5386,1379.479
5387,1373.630
5388,1361.169
5389,1342.120
5390,1362.649
5391,1360.452
5392,1336.271
5393,1313.546
5394,1339.207
5395,1347.252
5396,1317.961
5397,1319.418
5398,1330.399
5399,1345.056
5400,1356.037
5401,1353.841
5402,1346.512
5403,1339.207
5404,1347.252
5405,1396.332
5406,1365.561
5407,1407.336
5408,1382.415
5409,1419.773
5410,1383.154
5411,1430.778
5412,1391.199
5413,1432.974
5414,1430.778
5415,1399.268
5416,1431.494
5417,1438.106
5418,1452.023
5419,1438.823
5420,1408.052
5421,1410.988
5422,1441.759
5423,1439.562
5424,1452.740
5425,1429.298
5426,1462.264
5427,1453.480
5428,1416.860
5429,1435.910
5430,1448.347
5431,1463.004
5432,1468.136
5433,1430.038
5434,1430.778
5435,1427.102
5436,1441.019
5437,1471.789
5438,1449.827
5439,1453.480
5440,1449.827
5441,1455.676
5442,1452.740
5443,1444.695
5444,1449.087
5445,1473.269
5446,1467.397
5447,1483.510
5448,1457.155
5449,1452.740
5450,1453.480
5451,1456.415
5452,1446.151
5453,1472.529
5454,1467.397
5455,1474.725
5456,1432.974
5457,1426.385
5458,1441.019
5459,1454.936
5460,1454.936
5461,1445.411
5462,1410.988
5463,1438.823
5464,1415.381
5465,1434.430
5466,1413.185
5467,1385.351
5468,1428.581
5469,1402.204
5470,1394.875
5471,1372.890
5472,1414.664
5473,1389.003
5474,1359.713
5475,1360.452
5476,1397.811
5477,1377.282
5478,1369.954
5479,1352.384
5480,1345.056
5481,1336.988
5482,1336.988
5483,1331.878
5484,1331.878
5485,1326.746
5486,1326.746
5487,1350.188
5488,1357.516
5489,1364.105
5490,1367.758
5491,1350.928
5492,1331.878
5493,1358.973
5494,1385.351
5495,1372.173
5496,1374.369
5497,1368.497
5498,1346.512
5499,1396.332
5500,1383.154
5501,1352.384
5502,1399.268
5503,1353.124
5504,1391.939
5505,1355.320
5506,1376.566
5507,1364.845
5508,1372.890
5509,1363.365
5510,1339.207
5511,1373.630
5512,1350.928
5513,1368.497
5514,1372.173
5515,1358.973
5516,1360.452
5517,1352.384
5518,1331.139
5519,1329.682
5520,1338.467
5521,1321.614
5522,1340.663
5523,1339.207
5524,1331.139
5525,1343.599
5526,1353.124
5527,1338.467
5528,1337.727
5529,1348.708
5530,1337.727
5531,1323.810
5532,1314.286
5533,1309.153
5534,1324.550
5535,1342.860
5536,1300.369
5537,1287.908
5538,1295.236
5539,1320.158
5540,1319.418
5541,1298.172
5542,1291.584
5543,1284.972
5544,1276.187
5545,1307.697
5546,1266.662
5547,1265.206
5548,1283.515
5549,1311.350
5550,1326.746
5551,1332.595
5552,1334.075
5553,1320.158
5554,1312.829
5555,1354.580
5556,1374.369
5557,1362.649
5558,1361.169
5559,1371.433
5560,1391.939
5561,1405.140
5562,1419.773
5563,1431.494
5564,1427.842
5565,1449.827
5566,1482.793
5567,1463.004
5568,1459.351
5569,1450.544
5570,1446.891
5571,1426.385
5572,1419.057
5573,1418.317
5574,1399.268
5575,1374.369
5576,1388.287
5577,1375.826
5578,1357.516
5579,1342.120
5580,1318.678
5581,1305.501
5582,1249.093
5583,1257.138
5584,1213.930
5585,1239.568
5586,1191.945
5587,1172.156
5588,1178.744
5589,1204.405
5590,1194.141
5591,1147.997
5592,1145.061
5593,1161.175
5594,1155.303
5595,1175.831
5596,1184.616
5597,1180.224
5598,1168.503
5599,1150.193
5600,1145.778
5601,1154.586
5602,1151.650
5603,1161.175
5604,1170.699
5605,1165.567
5606,1216.126
5607,1210.994
5608,1208.058
5609,1229.304
5610,1219.779
5611,1212.450
5612,1225.651
5613,1211.734
5614,1219.039
5615,1249.809
5616,1224.911
5617,1263.010
5618,1243.221
5619,1250.549
5620,1283.515
5621,1296.716
5622,1306.957
5623,1304.021
5624,1272.534
5625,1281.319
5626,1335.531
5627,1300.369
5628,1328.942
5629,1326.746
5630,1367.041
5631,1355.320
5632,1380.218
5633,1378.762
5634,1387.547
5635,1391.199
5636,1367.041
5637,1414.664
5638,1421.970
5639,1420.513
5640,1428.581
5641,1429.298
5642,1444.695
5643,1423.449
5644,1414.664
5645,1459.351
5646,1430.778
5647,1427.102
5648,1461.548
5649,1450.544
5650,1433.690
5651,1432.234
5652,1419.773
5653,1431.494
5654,1451.283
5655,1435.910
5656,1425.645
5657,1404.400
5658,1406.596
5659,1408.052
5660,1413.924
5661,1398.528
5662,1411.728
5663,1424.166
5664,1391.199
5665,1385.351
5666,1379.479
5667,1379.479
5668,1384.611
5669,1389.003
5670,1391.199
5671,1405.856
5672,1414.664
5673,1404.400
5674,1374.369
5675,1387.547
5676,1406.596
5677,1410.249
5678,1410.249
5679,1385.351
5680,1377.282
5681,1359.713
5682,1360.452
5683,1364.105
5684,1393.419
5685,1413.185
5686,1373.630
5687,1400.007
5688,1418.317
5689,1380.958
5690,1384.611
5691,1393.419
5692,1393.419
5693,1410.988
5694,1430.038
5695,1413.185
5696,1385.351
5697,1403.660
5698,1426.385
5699,1441.759
5700,1410.988
5701,1402.204
5702,1421.253
5703,1424.906
5704,1438.823
5705,1431.494
5706,1424.166
5707,1417.577
5708,1416.121
5709,1420.513
5710,1427.842
5711,1430.038
5712,1466.657
5713,1471.072
5714,1447.631
5715,1425.645
5716,1423.449
5717,1468.876
5718,1440.302
5719,1419.773
5720,1419.057
5721,1415.381
5722,1460.808
5723,1432.234
5724,1422.709
5725,1441.019
5726,1423.449
5727,1419.773
5728,1413.185
5729,1420.513
5730,1393.419
5731,1383.154
5732,1383.894
5733,1421.970
5734,1419.773
5735,1403.660
5736,1378.762
5737,1402.204
5738,1376.566
5739,1384.611
5740,1415.381
5741,1397.811
5742,1389.003
5743,1419.057
5744,1380.218
5745,1382.415
5746,1397.071
5747,1419.773
5748,1425.645
5749,1442.498
5750,1434.430
5751,1419.057
5752,1410.249
5753,1412.445
5754,1437.366
5755,1416.860
5756,1418.317
5757,1465.940
5758,1449.087
5759,1419.057
5760,1430.038
5761,1454.936
5762,1448.347
5763,1425.645
5764,1434.430
5765,1409.532
5766,1402.920
5767,1402.920
5768,1407.336
5769,1415.381
5770,1424.166
5771,1421.970
5772,1405.140
5773,1379.479
5774,1369.237
5775,1375.086
5776,1404.400
5777,1399.268
5778,1358.973
5779,1357.516
5780,1383.894
5781,1346.512
5782,1383.154
5783,1361.169
5784,1379.479
5785,1356.037
5786,1350.188
5787,1383.154
5788,1357.516
5789,1343.599
5790,1364.845
5791,1343.599
5792,1356.777
5793,1378.022
5794,1341.403
5795,1374.369
5796,1341.403
5797,1325.267
5798,1359.713
5799,1328.203
5800,1328.942
5801,1300.369
5802,1331.878
5803,1323.070
5804,1309.153
5805,1296.716
5806,1287.908
5807,1290.104
5808,1262.270
5809,1258.617
5810,1258.617
5811,1263.010
5812,1257.877
5813,1268.142
5814,1282.059
5815,1299.629
5816,1309.893
5817,1285.712
5818,1275.470
5819,1334.791
5820,1306.957
5821,1356.037
5822,1331.139
5823,1380.218
5824,1400.724
5825,1416.860
5826,1392.679
5827,1443.215
5828,1466.657
5829,1484.250
5830,1492.318
5831,1477.661
5832,1501.843
5833,1523.805
5834,1499.646
5835,1488.642
5836,1532.613
5837,1484.989
5838,1526.001
5839,1495.231
5840,1468.136
5841,1455.676
5842,1452.740
5843,1441.759
5844,1449.087
5845,1402.204
5846,1404.400
5847,1384.611
5848,1373.630
5849,1306.217
5850,1303.304
5851,1316.482
5852,1275.470
5853,1243.221
5854,1259.334
5855,1236.632
5856,1221.235
5857,1221.235
5858,1219.039
5859,1183.877
5860,1212.450
5861,1194.141
5862,1165.567
5863,1210.994
5864,1181.680
5865,1213.190
5866,1222.715
5867,1205.122
5868,1191.945
5869,1228.564
5870,1254.225
5871,1216.126
5872,1217.583
5873,1255.681
5874,1282.776
5875,1273.251
5876,1270.338
5877,1254.941
5878,1306.217
5879,1315.025
5880,1317.222
5881,1289.387
5882,1282.059
5883,1326.006
5884,1304.021
5885,1318.678
5886,1325.267
5887,1329.682
5888,1318.678
5889,1345.796
5890,1345.796
5891,1320.158
5892,1369.237
5893,1322.354
5894,1361.169
5895,1362.649
5896,1324.550
5897,1350.928
5898,1326.006
5899,1355.320
5900,1372.890
5901,1325.267
5902,1345.796
5903,1331.878
5904,1353.841
5905,1321.614
5906,1356.037
5907,1315.025
5908,1355.320
5909,1342.120
5910,1315.025
5911,1354.580
5912,1324.550
5913,1303.304
5914,1352.384
5915,1305.501
5916,1354.580
5917,1315.742
5918,1353.841
5919,1322.354
5920,1344.316
5921,1350.188
5922,1348.708
5923,1347.252
5924,1369.237
5925,1336.271
5926,1356.037
5927,1367.041
5928,1394.135
5929,1372.890
5930,1383.154
5931,1378.762
5932,1405.856
5933,1403.660
5934,1391.199
5935,1396.332
5936,1409.532
5937,1372.890
5938,1417.577
5939,1377.282
5940,1418.317
5941,1412.445
5942,1405.856
5943,1409.532
5944,1376.566
5945,1413.185
5946,1367.041
5947,1408.792
5948,1410.249
5949,1413.185
5950,1416.121
5951,1414.664
5952,1411.728
5953,1420.513
5954,1402.204
5955,1430.038
5956,1429.298
5957,1435.910
5958,1423.449
5959,1394.875
5960,1417.577
5961,1405.856
5962,1419.057
5963,1431.494
5964,1433.690
5965,1447.631
5966,1462.264
5967,1455.676
5968,1450.544
5969,1448.347
5970,1440.302
5971,1480.597
5972,1463.004
5973,1486.446
5974,1454.219
5975,1487.186
5976,1449.087
5977,1490.122
5978,1462.264
5979,1457.155
5980,1465.940
5981,1443.215
5982,1445.411
5983,1468.876
5984,1445.411
5985,1414.664
5986,1410.249
5987,1437.366
5988,1394.135
5989,1421.253
5990,1391.939
5991,1369.237
5992,1378.022
5993,1401.464
5994,1369.237
5995,1369.954
5996,1355.320
5997,1369.237
5998,1367.758
5999,1329.682
6000,1373.630
6001,1323.810
6002,1348.708
6003,1375.826
6004,1331.878
6005,1356.037
6006,1387.547
6007,1381.698
6008,1397.811
6009,1401.464
6010,1369.954
6011,1368.497
6012,1422.709
6013,1424.906
6014,1426.385
6015,1420.513
6016,1398.528
6017,1410.988
6018,1437.366
6019,1449.087
6020,1427.102
6021,1429.298
6022,1421.253
6023,1458.612
6024,1455.676
6025,1431.494
6026,1422.709
6027,1413.924
6028,1423.449
6029,1441.759
6030,1448.347
6031,1409.532
6032,1398.528
6033,1392.679
6034,1402.204
6035,1373.630
6036,1364.845
6037,1368.497
6038,1394.875
6039,1376.566
6040,1324.550
6041,1353.841
6042,1330.399
6043,1317.222
6044,1286.451
6045,1303.304
6046,1290.844
6047,1267.402
6048,1309.153
6049,1286.451
6050,1273.991
6051,1306.957
6052,1262.270
6053,1301.825
6054,1309.893
6055,1300.369
6056,1270.338
6057,1284.255
6058,1315.742
6059,1320.158
6060,1334.791
6061,1324.550
6062,1335.531
6063,1312.089
6064,1310.633
6065,1305.501
6066,1311.350
6067,1330.399
6068,1346.512
6069,1328.942
6070,1328.203
6071,1346.512
6072,1341.403
6073,1303.304
6074,1306.957
6075,1314.286
6076,1321.614
6077,1323.810
6078,1326.746
6079,1328.203
6080,1312.829
6081,1312.829
6082,1349.448
6083,1345.056
6084,1326.006
6085,1377.282
6086,1339.207
6087,1347.252
6088,1384.611
6089,1353.841
6090,1361.909
6091,1413.924
6092,1372.890
6093,1424.906
6094,1397.811
6095,1418.317
6096,1419.773
6097,1397.071
6098,1439.562
6099,1403.660
6100,1416.121
6101,1392.679
6102,1408.052
6103,1415.381
6104,1356.777
6105,1388.287
6106,1361.909
6107,1338.467
6108,1337.727
6109,1294.497
6110,1309.893
6111,1303.304
6112,1273.251
6113,1232.240
6114,1267.402
6115,1217.583
6116,1246.896
6117,1202.209
6118,1241.024
6119,1234.436
6120,1228.564
6121,1216.843
6122,1214.647
6123,1185.356
6124,1194.881
6125,1227.107
6126,1228.564
6127,1187.552
6128,1189.009
6129,1238.088
6130,1241.024
6131,1227.847
6132,1224.171
6133,1208.058
6134,1259.334
6135,1226.368
6136,1220.519
6137,1276.927
6138,1232.979
6139,1282.059
6140,1247.613
6141,1301.108
6142,1261.530
6143,1288.648
6144,1323.810
6145,1323.070
6146,1339.924
6147,1334.791
6148,1328.203
6149,1344.316
6150,1334.075
6151,1324.550
6152,1367.758
6153,1342.860
6154,1390.483
6155,1361.909
6156,1389.003
6157,1403.660
6158,1375.086
6159,1397.071
6160,1383.154
6161,1397.811
6162,1407.336
6163,1410.988
6164,1390.483
6165,1405.856
6166,1403.660
6167,1391.939
6168,1410.988
6169,1378.022
6170,1413.924
6171,1375.826
6172,1374.369
6173,1400.724
6174,1350.188
6175,1394.135
6176,1365.561
6177,1340.663
6178,1369.954
6179,1366.301
6180,1340.663
6181,1358.973
6182,1355.320
6183,1394.875
6184,1364.105
6185,1400.007
6186,1397.811
6187,1358.233
6188,1386.090
6189,1411.728
6190,1412.445
6191,1419.057
6192,1407.336
6193,1423.449
6194,1416.860
6195,1415.381
6196,1432.974
6197,1411.728
6198,1411.728
6199,1400.007
6200,1447.631
6201,1427.102
6202,1417.577
6203,1433.690
6204,1467.397
6205,1435.910
6206,1436.626
6207,1475.465
6208,1443.955
6209,1494.514
6210,1454.936
6211,1504.755
6212,1474.725
6213,1475.465
6214,1514.280
6215,1473.269
6216,1510.627
6217,1476.181
6218,1509.148
6219,1518.672
6220,1499.646
6221,1481.314
6222,1520.152
6223,1504.755
6224,1504.755
6225,1473.985
6226,1500.363
6227,1484.989
6228,1463.004
6229,1505.495
6230,1473.985
6231,1489.382
6232,1466.657
6233,1463.744
6234,1456.415
6235,1436.626
6236,1419.773
6237,1410.249
6238,1415.381
6239,1444.695
6240,1438.823
6241,1433.690
6242,1422.709
6243,1420.513
6244,1419.773
6245,1366.301
6246,1383.154
6247,1384.611
6248,1394.875
6249,1391.939
6250,1345.056
6251,1361.169
6252,1364.845
6253,1369.237
6254,1347.252
6255,1320.874
6256,1366.301
6257,1334.791
6258,1309.893
6259,1353.124
6260,1342.860
6261,1315.025
6262,1312.829
6263,1294.497
6264,1296.716
6265,1308.437
6266,1307.697
6267,1301.108
6268,1298.172
6269,1321.614
6270,1334.791
6271,1293.780
6272,1340.663
6273,1296.716
6274,1340.663
6275,1353.124
6276,1339.207
6277,1325.267
6278,1380.958
6279,1350.188
6280,1378.022
6281,1424.906
6282,1430.038
6283,1425.645
6284,1468.876
6285,1498.167
6286,1493.774
6287,1520.892
6288,1545.790
6289,1548.726
6290,1555.315
6291,1562.643
6292,1578.017
6293,1569.232
6294,1587.541
6295,1586.085
6296,1571.428
6297,1542.854
6298,1539.918
6299,1543.594
6300,1538.462
6301,1488.642
6302,1462.264
6303,1485.706
6304,1465.940
6305,1441.759
6306,1386.090
6307,1395.615
6308,1369.954
6309,1325.267
6310,1342.120
6311,1341.403
6312,1336.988
6313,1328.942
6314,1322.354
6315,1309.893
6316,1267.402
6317,1301.825
6318,1269.598
6319,1260.813
6320,1279.863
6321,1282.059
6322,1302.565
6323,1313.546
6324,1319.418
6325,1280.579
6326,1276.927
6327,1293.780
6328,1312.829
6329,1304.021
6330,1317.961
6331,1306.217
6332,1303.304
6333,1304.021
6334,1290.104
6335,1290.104
6336,1312.829
6337,1284.972
6338,1263.010
6339,1261.530
6340,1258.617
6341,1270.338
6342,1287.191
6343,1306.217
6344,1306.217
6345,1304.761
6346,1318.678
6347,1322.354
6348,1328.203
6349,1325.267
6350,1322.354
6351,1307.697
6352,1351.644
6353,1339.207
6354,1365.561
6355,1402.204
6356,1413.185
6357,1419.773
6358,1419.773
6359,1399.268
6360,1397.071
6361,1391.199
6362,1398.528
6363,1393.419
6364,1400.007
6365,1383.154
6366,1358.233
6367,1356.037
6368,1347.252
6369,1349.448
6370,1307.697
6371,1275.470
6372,1268.142
6373,1238.088
6374,1267.402
6375,1206.602
6376,1231.500
6377,1199.273
6378,1180.224
6379,1212.450
6380,1207.318
6381,1197.794
6382,1197.794
6383,1194.141
6384,1189.749
6385,1184.616
6386,1182.420
6387,1176.548
6388,1151.650
6389,1150.193
6390,1189.009
6391,1199.990
6392,1196.337
6393,1181.680
6394,1179.484
6395,1219.779
6396,1238.088
6397,1213.930
6398,1254.225
6399,1227.847
6400,1258.617
6401,1230.760
6402,1252.745
6403,1271.055
6404,1280.579
6405,1291.584
6406,1292.300
6407,1295.976
6408,1289.387
6409,1310.633
6410,1338.467
6411,1326.746
6412,1304.761
6413,1357.516
6414,1320.158
6415,1370.694
6416,1338.467
6417,1377.282
6418,1350.188
6419,1381.698
6420,1404.400
6421,1382.415
6422,1372.890
6423,1419.773
6424,1407.336
6425,1413.924
6426,1392.679
6427,1392.679
6428,1389.003
6429,1395.615
6430,1392.679
6431,1391.939
6432,1389.743
6433,1409.532
6434,1427.842
6435,1429.298
6436,1431.494
6437,1391.199
6438,1383.894
6439,1420.513
6440,1403.660
6441,1372.173
6442,1405.856
6443,1405.140
6444,1353.124
6445,1397.071
6446,1361.909
6447,1397.811
6448,1367.758
6449,1359.713
6450,1389.003
6451,1391.939
6452,1352.384
6453,1371.433
6454,1399.268
6455,1362.649
6456,1389.003
6457,1404.400
6458,1367.041
6459,1385.351
6460,1401.464
6461,1413.924
6462,1394.875
6463,1391.939
6464,1381.698
6465,1383.154
6466,1404.400
6467,1434.430
6468,1434.430
6469,1436.626
6470,1435.910
6471,1435.910
6472,1439.562
6473,1423.449
6474,1397.811
6475,1445.411
6476,1433.690
6477,1415.381
6478,1421.253
6479,1437.366
6480,1451.283
6481,1448.347
6482,1454.936
6483,1448.347
6484,1410.249
6485,1436.626
6486,1456.415
6487,1458.612
6488,1438.823
6489,1439.562
6490,1430.778
6491,1430.778
6492,1416.860
6493,1416.860
6494,1411.728
6495,1411.728
6496,1438.106
6497,1455.676
6498,1446.151
6499,1423.449
6500,1416.860
6501,1446.891
6502,1467.397
6503,1468.136
6504,1465.200
6505,1453.480
6506,1473.985
6507,1467.397
6508,1458.612
6509,1460.808
6510,1446.151
6511,1435.910
6512,1443.955
6513,1443.215
6514,1464.461
6515,1462.264
6516,1455.676
6517,1408.052
6518,1414.664
6519,1421.970
6520,1441.759
6521,1386.807
6522,1418.317
6523,1416.860
6524,1390.483
6525,1393.419
6526,1394.875
6527,1378.022
6528,1342.120
6529,1342.860
6530,1328.942
6531,1321.614
6532,1339.924
6533,1355.320
6534,1326.746
6535,1331.139
6536,1342.120
6537,1336.271
6538,1376.566
6539,1389.003
6540,1393.419
6541,1372.173
6542,1386.807
6543,1391.939
6544,1397.071
6545,1392.679
6546,1397.071
6547,1401.464
6548,1408.792
6549,1452.023
6550,1453.480
6551,1437.366
6552,1432.974
6553,1435.170
6554,1413.924
6555,1429.298
6556,1460.068
6557,1442.498
6558,1447.631
6559,1446.151
6560,1436.626
6561,1426.385
6562,1425.645
6563,1383.894
6564,1411.728
6565,1372.173
6566,1390.483
6567,1408.052
6568,1352.384
6569,1371.433
6570,1376.566
6571,1364.105
6572,1326.746
6573,1368.497
6574,1337.727
6575,1316.482
6576,1304.761
6577,1331.139
6578,1348.708
6579,1345.796
6580,1315.742
6581,1298.172
6582,1298.172
6583,1346.512
6584,1346.512
6585,1323.810
6586,1300.369
6587,1347.252
6588,1303.304
6589,1350.928
6590,1323.070
6591,1306.957
6592,1356.777
6593,1306.957
6594,1321.614
6595,1356.037
6596,1334.791
6597,1309.893
6598,1347.252
6599,1334.791
6600,1312.089
6601,1355.320
6602,1339.924
6603,1347.992
6604,1343.599
6605,1367.758
6606,1331.878
6607,1374.369
6608,1375.826
6609,1348.708
6610,1390.483
6611,1403.660
6612,1418.317
6613,1418.317
6614,1402.204
6615,1448.347
6616,1449.087
6617,1451.283
6618,1435.170
6619,1480.597
6620,1444.695
6621,1490.838
6622,1451.283
6623,1487.902
6624,1458.612
6625,1468.876
6626,1489.382
6627,1457.155
6628,1476.921
6629,1450.544
6630,1438.823
6631,1478.401
6632,1473.269
6633,1434.430
6634,1426.385
6635,1419.057
6636,1408.792
6637,1419.773
6638,1393.419
6639,1382.415
6640,1350.928
6641,1324.550
6642,1346.512
6643,1330.399
6644,1312.829
6645,1284.255
6646,1292.300
6647,1287.191
6648,1241.024
6649,1226.368
6650,1224.171
6651,1230.043
6652,1182.420
6653,1189.009
6654,1204.405
6655,1147.258
6656,1191.205
6657,1168.503
6658,1138.473
6659,1169.959
6660,1139.189
6661,1168.503
6662,1143.582
6663,1179.484
6664,1166.307
6665,1196.337
6666,1200.730
6667,1223.455
6668,1224.171
6669,1221.975
6670,1227.107
6671,1207.318
6672,1254.225
6673,1223.455
6674,1278.383
6675,1232.979
6676,1272.534
6677,1272.534
6678,1254.225
6679,1267.402
6680,1299.629
6681,1295.236
6682,1298.912
6683,1305.501
6684,1328.942
6685,1311.350
6686,1307.697
6687,1323.810
6688,1346.512
6689,1342.860
6690,1326.006
6691,1317.961
6692,1367.041
6693,1337.727
6694,1355.320
6695,1369.237
6696,1339.207
6697,1364.105
6698,1386.807
6699,1375.086
6700,1358.233
6701,1361.169
6702,1400.007
6703,1371.433
6704,1398.528
6705,1349.448
6706,1361.909
6707,1388.287
6708,1378.762
6709,1341.403
6710,1356.037
6711,1372.890
6712,1348.708
6713,1364.845
6714,1354.580
6715,1372.890
6716,1340.663
6717,1373.630
6718,1374.369
6719,1346.512
6720,1350.928
6721,1356.777
6722,1355.320
6723,1360.452
6724,1372.173
6725,1391.199
6726,1420.513
6727,1421.970
6728,1430.038
6729,1415.381
6730,1391.939
6731,1436.626
6732,1444.695
6733,1443.955
6734,1427.842
6735,1438.823
6736,1439.562
6737,1438.106
6738,1394.875
6739,1396.332
6740,1389.743
6741,1398.528
6742,1416.121
6743,1364.845
6744,1405.856
6745,1361.909
6746,1383.154
6747,1364.105
6748,1364.845
6749,1394.875
6750,1377.282
6751,1353.841
6752,1379.479
6753,1379.479
6754,1361.909
6755,1356.777
6756,1381.698
6757,1372.890
6758,1390.483
6759,1414.664
6760,1426.385
6761,1431.494
6762,1439.562
6763,1415.381
6764,1409.532
6765,1409.532
6766,1461.548
6767,1456.415
6768,1433.690
6769,1424.906
6770,1468.136
6771,1430.038
6772,1477.661
6773,1452.023
6774,1436.626
6775,1471.789
6776,1452.740
6777,1453.480
6778,1435.170
6779,1455.676
6780,1454.936
6781,1438.106
6782,1461.548
6783,1438.823
6784,1415.381
6785,1401.464
6786,1412.445
6787,1439.562
6788,1431.494
6789,1397.811
6790,1423.449
6791,1424.906
6792,1421.970
6793,1400.724
6794,1388.287
6795,1377.282
6796,1424.906
6797,1405.140
6798,1379.479
6799,1407.336
6800,1413.185
6801,1396.332
6802,1380.958
6803,1421.970
6804,1380.218
6805,1413.924
6806,1398.528
6807,1390.483
6808,1427.842
6809,1406.596
6810,1424.166
6811,1389.743
6812,1422.709
6813,1397.811
6814,1405.140
6815,1432.234
6816,1408.792
6817,1445.411
6818,1415.381
6819,1449.827
6820,1420.513
6821,1422.709
6822,1460.808
6823,1415.381
6824,1460.808
6825,1417.577
6826,1434.430
6827,1431.494
6828,1443.955
6829,1421.253
6830,1413.185
6831,1446.891
6832,1431.494
6833,1414.664
6834,1413.185
6835,1402.920
6836,1420.513
6837,1393.419
6838,1374.369
6839,1387.547
6840,1386.090
6841,1394.135
6842,1392.679
6843,1377.282
6844,1356.037
6845,1373.630
6846,1383.894
6847,1390.483
6848,1338.467
6849,1364.105
6850,1383.154
6851,1331.139
6852,1359.713
6853,1376.566
6854,1324.550
6855,1347.252
6856,1371.433
6857,1326.746
6858,1356.037
6859,1329.682
6860,1360.452
6861,1327.463
6862,1328.203
6863,1351.644
6864,1306.217
6865,1347.992
6866,1312.089
6867,1345.796
6868,1304.021
6869,1350.188
6870,1333.335
6871,1307.697
6872,1350.928
6873,1315.025
6874,1362.649
6875,1326.746
6876,1365.561
6877,1393.419
6878,1356.037
6879,1371.433
6880,1390.483
6881,1389.743
6882,1434.430
6883,1432.234
6884,1413.924
6885,1463.744
6886,1427.102
6887,1449.827
6888,1476.181
6889,1479.117
6890,1452.740
6891,1455.676
6892,1442.498
6893,1453.480
6894,1475.465
6895,1475.465
6896,1424.166
6897,1449.087
6898,1454.936
6899,1405.140
6900,1386.090
6901,1420.513
6902,1413.185
6903,1380.958
6904,1362.649
6905,1344.316
6906,1369.237
6907,1339.207
6908,1305.501
6909,1278.383
6910,1306.217
6911,1301.108
6912,1284.255
6913,1235.176
6914,1239.568
6915,1258.617
6916,1242.481
6917,1217.583
6918,1214.647
6919,1202.926
6920,1175.831
6921,1167.763
6922,1194.141
6923,1201.469
6924,1203.666
6925,1180.224
6926,1153.106
6927,1175.092
6928,1198.533
6929,1199.273
6930,1201.469
6931,1206.602
6932,1208.058
6933,1164.827
6934,1167.763
6935,1178.744
6936,1189.009
6937,1179.484
6938,1195.597
6939,1232.240
6940,1212.450
6941,1235.176
6942,1212.450
6943,1265.206
6944,1226.368
6945,1277.667
6946,1252.005
6947,1291.584
6948,1251.289
6949,1256.421
6950,1274.731
6951,1293.040
6952,1301.825
6953,1293.780
6954,1289.387
6955,1342.120
6956,1317.961
6957,1306.957
6958,1354.580
6959,1353.841
6960,1322.354
6961,1376.566
6962,1354.580
6963,1339.207
6964,1391.199
6965,1347.252
6966,1395.615
6967,1380.218
6968,1353.841
6969,1402.204
6970,1365.561
6971,1400.724
6972,1353.841
6973,1400.007
6974,1371.433
6975,1380.958
6976,1375.086
6977,1357.516
6978,1363.365
6979,1391.199
6980,1358.233
6981,1359.713
6982,1377.282
6983,1403.660
6984,1358.973
6985,1388.287
6986,1408.792
6987,1389.003
6988,1381.698
6989,1375.826
6990,1397.071
6991,1401.464
6992,1422.709
6993,1432.234
6994,1394.135
6995,1391.199
6996,1396.332
6997,1416.121
6998,1442.498
6999,1438.823
7000,1404.400
7001,1403.660
7002,1404.400
7003,1429.298
7004,1435.170
7005,1447.631
7006,1434.430
7007,1413.185
7008,1396.332
7009,1441.019
7010,1440.302
7011,1436.626
7012,1412.445
7013,1400.007
7014,1415.381
7015,1430.778
7016,1427.842
7017,1429.298
7018,1417.577
7019,1389.743
7020,1405.140
7021,1416.121
7022,1381.698
7023,1387.547
7024,1389.003
7025,1399.268
7026,1419.773
7027,1427.102
7028,1402.920
7029,1394.135
7030,1413.924
7031,1420.513
7032,1432.234
7033,1393.419
7034,1389.743
7035,1417.577
7036,1397.071
7037,1395.615
7038,1394.135
7039,1397.811
7040,1437.366
7041,1441.759
7042,1440.302
7043,1434.430
7044,1414.664
7045,1386.090
7046,1394.135
7047,1424.906
7048,1387.547
7049,1397.811
7050,1400.007
7051,1389.003
7052,1372.890
7053,1408.792
7054,1366.301
7055,1405.140
7056,1385.351
7057,1386.807
7058,1389.743
7059,1410.249
7060,1406.596
7061,1405.140
7062,1358.233
7063,1358.973
7064,1368.497
7065,1396.332
7066,1395.615
7067,1401.464
7068,1400.007
7069,1400.724
7070,1370.694
7071,1351.644
7072,1358.973
7073,1359.713
7074,1371.433
7075,1394.135
7076,1402.920
7077,1362.649
7078,1400.007
7079,1410.249
7080,1413.924
7081,1406.596
7082,1371.433
7083,1417.577
7084,1380.218
7085,1400.007
7086,1417.577
7087,1424.166
7088,1397.811
7089,1392.679
7090,1403.660
7091,1439.562
7092,1422.709
7093,1399.268
7094,1399.268
7095,1423.449
7096,1410.249
7097,1405.856
7098,1409.532
7099,1426.385
7100,1416.121
7101,1404.400
7102,1410.988
7103,1406.596
7104,1404.400
7105,1424.906
7106,1434.430
7107,1393.419
7108,1411.728
7109,1433.690
7110,1399.268
7111,1382.415
7112,1382.415
7113,1390.483
7114,1424.906
7115,1427.842
7116,1419.773
7117,1375.826
7118,1390.483
7119,1416.121
7120,1415.381
7121,1431.494
7122,1402.204
7123,1388.287
7124,1390.483
7125,1399.268
7126,1418.317
7127,1437.366
7128,1400.724
7129,1438.106
7130,1400.724
7131,1421.253
7132,1446.151
7133,1405.140
7134,1396.332
7135,1397.071
7136,1405.856
7137,1409.532
7138,1438.106
7139,1436.626
7140,1436.626
7141,1432.974
7142,1394.875
7143,1393.419
7144,1405.140
7145,1400.724
7146,1413.924
7147,1443.955
7148,1438.106
7149,1441.019
7150,1413.185
7151,1411.728
7152,1424.166
7153,1461.548
7154,1449.087
7155,1434.430
7156,1419.773
7157,1405.140
7158,1441.759
7159,1429.298
7160,1433.690
7161,1423.449
7162,1391.939
7163,1361.169
7164,1355.320
7165,1356.037
7166,1356.777
7167,1351.644
7168,1321.614
7169,1282.059
7170,1278.383
7171,1259.334
7172,1263.010
7173,1240.285
7174,1216.843
7175,1209.514
7176,1205.122
7177,1224.911
7178,1183.877
7179,1188.269
7180,1195.597
7181,1202.209
7182,1204.405
7183,1202.926
7184,1153.846
7185,1163.371
7186,1157.499
7187,1155.303
7188,1197.794
7189,1202.209
7190,1177.288
7191,1198.533
7192,1172.895
7193,1224.171
7194,1203.666
7195,1203.666
7196,1241.764
7197,1200.730
7198,1246.157
7199,1221.235
7200,1212.450
7201,1227.107
7202,1227.847
7203,1241.764
7204,1254.941
7205,1230.760
7206,1279.123
7207,1251.289
7208,1288.648
7209,1282.059
7210,1260.813
7211,1304.761
7212,1276.927
7213,1276.927
7214,1328.203
7215,1309.153
7216,1293.780
7217,1317.961
7218,1315.025
7219,1347.992
7220,1318.678
7221,1315.025
7222,1327.463
7223,1353.124
7224,1348.708
7225,1336.988
7226,1324.550
7227,1335.531
7228,1324.550
7229,1317.961
7230,1352.384
7231,1299.629
7232,1342.120
7233,1298.912
7234,1291.584
7235,1329.682
7236,1316.482
7237,1320.874
7238,1317.961
7239,1309.893
7240,1308.437
7241,1300.369
7242,1293.040
7243,1284.972
7244,1327.463
7245,1304.021
7246,1298.912
7247,1318.678
7248,1347.252
7249,1309.893
7250,1323.070
7251,1342.120
7252,1370.694
7253,1393.419
7254,1381.698
7255,1400.007
7256,1382.415
7257,1423.449
7258,1445.411
7259,1412.445
7260,1438.106
7261,1468.876
7262,1472.529
7263,1443.955
7264,1447.631
7265,1476.181
7266,1479.117
7267,1487.902
7268,1464.461
7269,1441.759
7270,1439.562
7271,1470.333
7272,1437.366
7273,1435.170
7274,1412.445
7275,1429.298
7276,1451.283
7277,1427.102
7278,1408.052
7279,1397.811
7280,1435.910
7281,1420.513
7282,1400.724
7283,1390.483
7284,1387.547
7285,1414.664
7286,1423.449
7287,1431.494
7288,1399.268
7289,1390.483
7290,1427.102
7291,1430.038
7292,1414.664
7293,1418.317
7294,1389.743
7295,1438.106
7296,1426.385
7297,1401.464
7298,1390.483
7299,1389.743
7300,1395.615
7301,1436.626
7302,1435.910
7303,1426.385
7304,1410.988
7305,1397.071
7306,1377.282
7307,1417.577
7308,1407.336
7309,1385.351
7310,1380.218
7311,1359.713
7312,1378.762
7313,1383.894
7314,1353.124
7315,1328.203
7316,1350.188
7317,1345.796
7318,1335.531
7319,1340.663
7320,1315.025
7321,1341.403
7322,1327.463
7323,1306.217
7324,1347.992
7325,1353.124
7326,1311.350
7327,1359.713
7328,1336.988
7329,1339.207
7330,1348.708
7331,1367.041
7332,1353.124
7333,1391.199
7334,1389.003
7335,1386.090
7336,1417.577
7337,1421.970
7338,1397.811
7339,1406.596
7340,1451.283
7341,1446.151
7342,1429.298
7343,1423.449
7344,1471.072
7345,1473.269
7346,1457.872
7347,1476.921
7348,1481.314
7349,1461.548
7350,1501.103
7351,1479.117
7352,1484.989
7353,1482.053
7354,1487.902
7355,1452.740
7356,1496.710
7357,1459.351
7358,1458.612
7359,1465.200
7360,1445.411
7361,1425.645
7362,1465.200
7363,1444.695
7364,1430.038
7365,1421.253
7366,1418.317
7367,1392.679
7368,1430.778
7369,1426.385
7370,1420.513
7371,1415.381
7372,1389.743
7373,1354.580
7374,1358.973
7375,1366.301
7376,1385.351
7377,1336.988
7378,1370.694
7379,1331.878
7380,1361.909
7381,1369.954
7382,1330.399
7383,1375.086
7384,1326.746
7385,1367.041
7386,1329.682
7387,1369.237
7388,1385.351
7389,1377.282
7390,1345.056
7391,1354.580
7392,1378.022
7393,1415.381
7394,1399.268
7395,1402.920
7396,1449.827
7397,1414.664
7398,1435.910
7399,1453.480
7400,1482.793
7401,1486.446
7402,1461.548
7403,1459.351
7404,1464.461
7405,1475.465
7406,1485.706
7407,1510.627
7408,1515.760
7409,1492.318
7410,1519.412
7411,1506.952
7412,1524.544
7413,1530.393
7414,1534.069
7415,1531.133
7416,1523.805
7417,1509.888
7418,1507.691
7419,1508.431
7420,1535.526
7421,1554.575
7422,1540.658
7423,1515.760
7424,1508.431
7425,1511.367
7426,1509.148
7427,1451.283
7428,1470.333
7429,1418.317
7430,1407.336
7431,1348.708
7432,1340.663
7433,1305.501
7434,1303.304
7435,1268.859
7436,1208.058
7437,1166.307
7438,1137.733
7439,1144.322
7440,1083.521
7441,1041.030
7442,1024.177
7443,1038.834
7444,994.863
7445,975.814
7446,1009.520
7447,992.667
7448,979.490
7449,957.504
7450,1004.388
7451,993.407
7452,967.029
7453,1025.633
7454,1010.260
7455,1019.045
7456,1063.015
7457,1075.453
7458,1046.162
7459,1093.785
7460,1126.752
7461,1127.468
7462,1121.620
7463,1176.548
7464,1186.073
7465,1227.847
7466,1227.847
7467,1249.809
7468,1283.515
7469,1276.927
7470,1280.579
7471,1318.678
7472,1347.992
7473,1364.845
7474,1380.218
7475,1387.547
7476,1384.611
7477,1365.561
7478,1402.204
7479,1390.483
7480,1428.581
7481,1390.483
7482,1431.494
7483,1405.856
7484,1441.019
7485,1413.924
7486,1404.400
7487,1398.528
7488,1395.615
7489,1391.939
7490,1389.003
7491,1428.581
7492,1429.298
7493,1404.400
7494,1411.728
7495,1383.154
7496,1360.452
7497,1355.320
7498,1365.561
7499,1385.351
7500,1339.207
7501,1351.644
7502,1369.237
7503,1328.203
7504,1331.139
7505,1353.124
7506,1367.758
7507,1372.173
7508,1369.954
7509,1372.890
7510,1337.727
7511,1328.203
7512,1343.599
7513,1339.924
7514,1334.791
7515,1346.512
7516,1361.169
7517,1375.826
7518,1380.958
7519,1377.282
7520,1365.561
7521,1373.630
7522,1339.924
7523,1358.973
7524,1380.958
7525,1335.531
7526,1350.928
7527,1371.433
7528,1317.222
7529,1340.663
7530,1314.286
7531,1312.829
7532,1345.056
7533,1317.961
7534,1296.716
7535,1308.437
7536,1293.780
7537,1326.746
7538,1328.942
7539,1312.829
7540,1309.153
7541,1301.825
7542,1304.021
7543,1341.403
7544,1345.056
7545,1325.267
7546,1362.649
7547,1379.479
7548,1369.954
7549,1367.041
7550,1405.856
7551,1409.532
7552,1387.547
7553,1418.317
7554,1408.792
7555,1442.498
7556,1464.461
7557,1431.494
7558,1441.759
7559,1478.401
7560,1497.427
7561,1458.612
7562,1455.676
7563,1459.351
7564,1458.612
7565,1476.181
7566,1461.548
7567,1463.744
7568,1490.122
7569,1437.366
7570,1476.181
7571,1457.155
7572,1419.773
7573,1442.498
7574,1410.249
7575,1378.762
7576,1401.464
7577,1405.140
7578,1351.644
7579,1367.758
7580,1326.746
7581,1364.845
7582,1323.070
7583,1316.482
7584,1339.924
7585,1322.354
7586,1297.433
7587,1282.776
7588,1295.236
7589,1320.158
7590,1277.667
7591,1284.972
7592,1277.667
7593,1330.399
7594,1317.222
7595,1313.546
7596,1290.844
7597,1344.316
7598,1350.928
7599,1343.599
7600,1314.286
7601,1366.301
7602,1324.550
7603,1350.928
7604,1387.547
7605,1348.708
7606,1380.958
7607,1412.445
7608,1393.419
7609,1424.166
7610,1440.302
7611,1446.151
7612,1411.728
7613,1423.449
7614,1469.593
7615,1436.626
7616,1459.351
7617,1470.333
7618,1469.593
7619,1484.989
7620,1497.427
7621,1460.068
7622,1454.219
7623,1488.642
7624,1467.397
7625,1479.117
7626,1466.657
7627,1469.593
7628,1446.151
7629,1474.725
7630,1447.631
7631,1452.740
7632,1449.087
7633,1419.773
7634,1460.068
7635,1436.626
7636,1413.924
7637,1456.415
7638,1407.336
7639,1452.740
7640,1400.724
7641,1444.695
7642,1402.920
7643,1391.199
7644,1401.464
7645,1380.958
7646,1395.615
7647,1413.924
7648,1378.762
7649,1360.452
7650,1369.954
7651,1386.807
7652,1349.448
7653,1354.580
7654,1369.954
7655,1331.139
7656,1314.286
7657,1351.644
7658,1334.075
7659,1301.108
7660,1301.825
7661,1309.153
7662,1335.531
7663,1334.791
7664,1309.153
7665,1313.546
7666,1329.682
7667,1304.021
7668,1335.531
7669,1316.482
7670,1326.006
7671,1365.561
7672,1387.547
7673,1367.758
7674,1366.301
7675,1413.185
7676,1410.988
7677,1403.660
7678,1446.891
7679,1420.513
7680,1472.529
7681,1438.823
7682,1489.382
7683,1452.740
7684,1482.793
7685,1505.495
7686,1457.155
7687,1485.706
7688,1473.269
7689,1457.155
7690,1435.170
7691,1400.724
7692,1387.547
7693,1389.003
7694,1351.644
7695,1319.418
7696,1320.874
7697,1248.353
7698,1264.466
7699,1237.372
7700,1210.994
7701,1141.386
7702,1142.865
7703,1104.027
7704,1126.752
7705,1109.899
7706,1101.091
7707,1085.717
7708,1054.947
7709,1037.354
7710,1066.668
7711,1057.883
7712,1058.600
7713,1088.653
7714,1094.502
7715,1100.374
7716,1106.223
7717,1101.830
7718,1076.193
7719,1113.551
7720,1112.095
7721,1113.551
7722,1169.959
7723,1168.503
7724,1191.945
7725,1194.141
7726,1183.160
7727,1191.945
7728,1229.304
7729,1213.930
7730,1233.696
7731,1250.549
7732,1219.779
7733,1228.564
7734,1257.877
7735,1283.515
7736,1300.369
7737,1303.304
7738,1289.387
7739,1274.731
7740,1331.139
7741,1298.172
7742,1342.860
7743,1318.678
7744,1339.924
7745,1339.207
7746,1360.452
7747,1326.006
7748,1370.694
7749,1361.909
7750,1342.860
7751,1353.841
7752,1361.169
7753,1405.856
7754,1396.332
7755,1398.528
7756,1387.547
7757,1388.287
7758,1417.577
7759,1441.759
7760,1435.170
7761,1425.645
7762,1421.253
7763,1419.057
7764,1459.351
7765,1449.087
7766,1441.019
7767,1478.401
7768,1445.411
7769,1443.955
7770,1463.004
7771,1433.690
7772,1473.985
7773,1468.136
7774,1440.302
7775,1477.661
7776,1429.298
7777,1469.593
7778,1464.461
7779,1433.690
7780,1427.102
7781,1429.298
7782,1426.385
7783,1417.577
7784,1446.151
7785,1419.773
7786,1409.532
7787,1386.807
7788,1380.218
7789,1379.479
7790,1364.845
7791,1372.173
7792,1385.351
7793,1367.758
7794,1335.531
7795,1355.320
7796,1317.222
7797,1310.633
7798,1328.942
7799,1308.437
7800,1276.927
7801,1286.451
7802,1289.387
7803,1276.187
7804,1294.497
7805,1310.633
7806,1294.497
7807,1287.191
7808,1318.678
7809,1342.860
7810,1341.403
7811,1326.746
7812,1366.301
7813,1397.071
7814,1412.445
7815,1427.102
7816,1406.596
7817,1460.068
7818,1437.366
7819,1476.921
7820,1515.020
7821,1510.627
7822,1507.691
7823,1560.447
7824,1539.918
7825,1553.858
7826,1586.085
7827,1604.394
7828,1599.262
7829,1639.557
7830,1602.938
7831,1652.018
7832,1627.119
7833,1619.051
7834,1652.018
7835,1620.508
7836,1637.361
7837,1652.757
7838,1632.968
7839,1619.791
7840,1628.576
7841,1627.836
7842,1610.983
7843,1609.526
7844,1581.692
7845,1558.251
7846,1531.133
7847,1561.903
7848,1550.922
7849,1521.608
7850,1520.892
7851,1506.235
7852,1446.151
7853,1471.789
7854,1429.298
7855,1416.860
7856,1439.562
7857,1410.988
7858,1412.445
7859,1380.218
7860,1352.384
7861,1358.973
7862,1380.958
7863,1336.271
7864,1355.320
7865,1380.958
7866,1375.086
7867,1339.924
7868,1356.777
7869,1353.841
7870,1376.566
7871,1368.497
7872,1408.792
7873,1411.728
7874,1402.204
7875,1445.411
7876,1421.970
7877,1460.068
7878,1423.449
7879,1427.102
7880,1431.494
7881,1449.827
7882,1441.019
7883,1452.023
7884,1446.891
7885,1458.612
7886,1482.053
7887,1480.597
7888,1461.548
7889,1466.657
7890,1482.793
7891,1451.283
7892,1465.200
7893,1479.117
7894,1453.480
7895,1484.250
7896,1443.955
7897,1469.593
7898,1449.087
7899,1455.676
7900,1416.860
7901,1450.544
7902,1439.562
7903,1433.690
7904,1391.939
7905,1391.939
7906,1394.135
7907,1397.811
7908,1365.561
7909,1375.086
7910,1392.679
7911,1336.271
7912,1375.826
7913,1349.448
7914,1327.463
7915,1327.463
7916,1318.678
7917,1279.863
7918,1290.844
7919,1276.187
7920,1301.825
7921,1246.896
7922,1276.927
7923,1278.383
7924,1262.270
7925,1263.010
7926,1254.225
7927,1225.651
7928,1258.617
7929,1219.039
7930,1211.734
7931,1243.960
7932,1226.368
7933,1231.500
7934,1202.926
7935,1238.828
7936,1215.386
7937,1214.647
7938,1241.764
7939,1210.994
7940,1239.568
7941,1276.187
7942,1284.255
7943,1293.780
7944,1291.584
7945,1290.104
7946,1293.040
7947,1335.531
7948,1299.629
7949,1339.924
7950,1354.580
7951,1325.267
7952,1347.992
7953,1339.207
7954,1359.713
7955,1358.233
7956,1312.089
7957,1315.025
7958,1323.810
7959,1296.716
7960,1277.667
7961,1262.270
7962,1258.617
7963,1261.530
7964,1219.039
7965,1221.235
7966,1180.964
7967,1221.975
7968,1179.484
7969,1213.190
7970,1160.435
7971,1205.122
7972,1165.567
7973,1208.798
7974,1178.028
7975,1214.647
7976,1213.190
7977,1213.190
7978,1226.368
7979,1197.077
7980,1244.700
7981,1252.745
7982,1252.745
7983,1215.386
7984,1219.779
7985,1251.289
7986,1274.731
7987,1280.579
7988,1280.579
7989,1279.863
7990,1262.270
7991,1276.187
7992,1303.304
7993,1304.021
7994,1290.844
7995,1275.470
7996,1283.515
7997,1329.682
7998,1315.742
7999,1340.663
8000,1347.992
8001,1339.207
8002,1324.550
8003,1326.006
8004,1328.203
8005,1339.207
8006,1326.006
8007,1334.791
8008,1334.791
8009,1342.120
8010,1342.860
8011,1342.120
8012,1352.384
8013,1375.826
8014,1350.928
8015,1391.939
8016,1394.135
8017,1402.920
8018,1375.086
8019,1363.365
8020,1366.301
8021,1366.301
8022,1359.713
8023,1366.301
8024,1364.845
8025,1370.694
8026,1389.743
8027,1390.483
8028,1339.924
8029,1334.075
8030,1326.746
8031,1326.006
8032,1320.874
8033,1350.188
8034,1314.286
8035,1315.025
8036,1346.512
8037,1295.236
8038,1326.746
8039,1292.300
8040,1338.467
8041,1295.236
8042,1316.482
8043,1304.761
8044,1318.678
8045,1349.448
8046,1316.482
8047,1312.089
8048,1341.403
8049,1371.433
8050,1372.890
8051,1389.003
8052,1391.199
8053,1393.419
8054,1372.890
8055,1375.086
8056,1424.166
8057,1405.856
8058,1402.204
8059,1417.577
8060,1432.974
8061,1433.690
8062,1406.596
8063,1441.019
8064,1415.381
8065,1457.872
8066,1432.234
8067,1460.808
8068,1452.023
8069,1441.759
8070,1446.151
8071,1431.494
8072,1457.872
8073,1474.725
8074,1432.974
8075,1473.985
8076,1432.234
8077,1469.593
8078,1440.302
8079,1429.298
8080,1465.200
8081,1415.381
8082,1452.023
8083,1411.728
8084,1452.740
8085,1428.581
8086,1405.856
8087,1441.019
8088,1421.253
8089,1431.494
8090,1423.449
8091,1450.544
8092,1415.381
8093,1448.347
8094,1432.234
8095,1415.381
8096,1450.544
8097,1429.298
8098,1452.023
8099,1443.955
8100,1445.411
8101,1418.317
8102,1457.872
8103,1427.842
8104,1429.298
8105,1444.695
8106,1422.709
8107,1413.924
8108,1454.936
8109,1422.709
8110,1456.415
8111,1436.626
8112,1463.004
8113,1424.166
8114,1469.593
8115,1432.974
8116,1482.053
8117,1444.695
8118,1484.250
8119,1449.827
8120,1452.023
8121,1449.087
8122,1451.283
8123,1446.151
8124,1441.759
8125,1429.298
8126,1453.480
8127,1418.317
8128,1411.728
8129,1399.268
8130,1412.445
8131,1426.385
8132,1414.664
8133,1408.792
8134,1416.860
8135,1369.954
8136,1360.452
8137,1377.282
8138,1399.268
8139,1347.252
8140,1376.566
8141,1359.713
8142,1363.365
8143,1374.369
8144,1367.758
8145,1344.316
8146,1393.419
8147,1366.301
8148,1374.369
8149,1381.698
8150,1362.649
8151,1395.615
8152,1353.124
8153,1381.698
8154,1386.090
8155,1372.173
8156,1361.909
8157,1362.649
8158,1395.615
8159,1379.479
8160,1359.713
8161,1408.052
8162,1401.464
8163,1393.419
8164,1367.758
8165,1368.497
8166,1379.479
8167,1421.970
8168,1423.449
8169,1426.385
8170,1406.596
8171,1398.528
8172,1407.336
8173,1411.728
8174,1423.449
8175,1408.052
8176,1394.135
8177,1416.121
8178,1422.709
8179,1410.988
8180,1401.464
8181,1419.057
8182,1421.970
8183,1417.577
8184,1364.845
8185,1389.003
8186,1392.679
8187,1373.630
8188,1387.547
8189,1385.351
8190,1357.516
8191,1345.056
8192,1339.924
8193,1339.924
8194,1309.153
8195,1322.354
8196,1300.369
8197,1342.120
8198,1336.271
8199,1336.271
8200,1316.482
8201,1295.236
8202,1339.924
8203,1312.829
8204,1335.531
8205,1358.973
8206,1346.512
8207,1336.988
8208,1359.713
8209,1375.826
8210,1380.958
8211,1372.173
8212,1379.479
8213,1421.253
8214,1381.698
8215,1427.842
8216,1414.664
8217,1390.483
8218,1421.253
8219,1394.875
8220,1397.811
8221,1373.630
8222,1399.268
8223,1403.660
8224,1388.287
8225,1367.758
8226,1336.988
8227,1316.482
8228,1336.988
8229,1300.369
8230,1303.304
8231,1260.813
8232,1232.240
8233,1254.941
8234,1218.322
8235,1208.798
8236,1178.744
8237,1180.224
8238,1205.122
8239,1189.749
8240,1178.028
8241,1184.616
8242,1175.831
8243,1178.028
8244,1175.831
8245,1155.303
8246,1158.978
8247,1155.303
8248,1137.733
8249,1185.356
8250,1157.499
8251,1175.831
8252,1182.420
8253,1160.435
8254,1216.843
8255,1173.635
8256,1226.368
8257,1190.488
8258,1219.779
8259,1226.368
8260,1247.613
8261,1279.863
8262,1257.138
8263,1298.172
8264,1310.633
8265,1313.546
8266,1306.957
8267,1320.874
8268,1337.727
8269,1306.957
8270,1343.599
8271,1361.909
8272,1336.988
8273,1377.282
8274,1381.698
8275,1388.287
8276,1377.282
8277,1377.282
8278,1366.301
8279,1384.611
8280,1416.860
8281,1410.249
8282,1387.547
8283,1394.135
8284,1405.856
8285,1380.958
8286,1427.102
8287,1385.351
8288,1388.287
8289,1423.449
8290,1420.513
8291,1410.988
8292,1392.679
8293,1388.287
8294,1384.611
8295,1398.528
8296,1405.856
8297,1402.920
8298,1369.237
8299,1363.365
8300,1357.516
8301,1366.301
8302,1361.169
8303,1356.037
8304,1356.037
8305,1358.233
8306,1374.369
8307,1404.400
8308,1403.660
8309,1394.135
8310,1405.856
8311,1405.140
8312,1402.920
8313,1390.483
8314,1363.365
8315,1380.958
8316,1409.532
8317,1407.336
8318,1379.479
8319,1379.479
8320,1413.924
8321,1416.860
8322,1417.577
8323,1413.185
8324,1393.419
8325,1421.253
8326,1402.204
8327,1447.631
8328,1453.480
8329,1456.415
8330,1440.302
8331,1432.974
8332,1447.631
8333,1476.181
8334,1466.657
8335,1443.955
8336,1452.023
8337,1476.921
8338,1447.631
8339,1493.774
8340,1446.891
8341,1490.122
8342,1444.695
8343,1489.382
8344,1478.401
8345,1439.562
8346,1479.117
8347,1457.155
8348,1429.298
8349,1464.461
8350,1446.151
8351,1451.283
8352,1439.562
8353,1442.498
8354,1443.955
8355,1411.728
8356,1424.166
8357,1416.121
8358,1406.596
8359,1396.332
8360,1396.332
8361,1396.332
8362,1438.823
8363,1426.385
8364,1426.385
8365,1417.577
8366,1424.906
8367,1413.924
8368,1412.445
8369,1415.381
8370,1426.385
8371,1413.924
8372,1427.842
8373,1426.385
8374,1430.038
8375,1410.249
8376,1400.007
8377,1394.135
8378,1389.743
8379,1408.052
8380,1395.615
8381,1389.003
8382,1389.003
8383,1372.890
8384,1375.086
8385,1378.022
8386,1415.381
8387,1413.924
8388,1396.332
8389,1370.694
8390,1369.954
8391,1386.807
8392,1412.445
8393,1397.811
8394,1368.497
8395,1364.105
8396,1356.037
8397,1356.037
8398,1369.237
8399,1392.679
8400,1370.694
8401,1350.188
8402,1384.611
8403,1358.233
8404,1378.762
8405,1358.973
8406,1358.973
8407,1372.890
8408,1361.169
8409,1373.630
8410,1344.316
8411,1371.433
8412,1388.287
8413,1364.845
8414,1364.105
8415,1360.452
8416,1377.282
8417,1380.958
8418,1390.483
8419,1393.419
8420,1393.419
8421,1388.287
8422,1395.615
8423,1432.234
8424,1395.615
8425,1419.057
8426,1444.695
8427,1426.385
8428,1397.071
8429,1432.974
8430,1443.955
8431,1424.906
8432,1414.664
8433,1419.057
8434,1447.631
8435,1434.430
8436,1426.385
8437,1418.317
8438,1402.920
8439,1449.087
8440,1424.166
8441,1397.071
8442,1438.106
8443,1417.577
8444,1409.532
8445,1403.660
8446,1402.204
8447,1400.724
8448,1400.724
8449,1401.464
8450,1347.992
8451,1368.497
8452,1331.878
8453,1358.973
8454,1339.207
8455,1307.697
8456,1312.829
8457,1338.467
8458,1332.595
8459,1285.712
8460,1328.942
8461,1279.123
8462,1298.172
8463,1306.957
8464,1322.354
8465,1309.893
8466,1347.992
8467,1350.188
8468,1352.384
8469,1366.301
8470,1366.301
8471,1365.561
8472,1407.336
8473,1408.792
8474,1389.743
8475,1425.645
8476,1421.970
8477,1441.759
8478,1410.249
8479,1415.381
8480,1440.302
8481,1433.690
8482,1402.920
8483,1385.351
8484,1391.939
8485,1354.580
8486,1344.316
8487,1316.482
8488,1299.629
8489,1295.236
8490,1247.613
8491,1230.760
8492,1195.597
8493,1199.273
8494,1209.514
8495,1198.533
8496,1189.749
8497,1160.435
8498,1176.548
8499,1126.012
8500,1135.537
8501,1151.650
8502,1109.159
8503,1145.778
8504,1149.454
8505,1110.615
8506,1120.140
8507,1133.340
8508,1150.910
8509,1159.718
8510,1136.276
8511,1191.945
8512,1167.763
8513,1188.269
8514,1184.616
8515,1225.651
8516,1232.240
8517,1216.126
8518,1225.651
8519,1268.859
8520,1260.813
8521,1257.138
8522,1288.648
8523,1287.191
8524,1319.418
8525,1290.844
8526,1297.433
8527,1320.874
8528,1347.992
8529,1346.512
8530,1350.188
8531,1345.056
8532,1346.512
8533,1394.875
8534,1367.758
8535,1375.826
8536,1377.282
8537,1413.185
8538,1395.615
8539,1395.615
8540,1402.204
8541,1413.924
8542,1397.811
8543,1397.811
8544,1394.135
8545,1380.218
8546,1380.218
8547,1417.577
8548,1376.566
8549,1373.630
8550,1375.086
8551,1371.433
8552,1386.090
8553,1400.724
8554,1397.071
8555,1356.777
8556,1352.384
8557,1371.433
8558,1379.479
8559,1334.075
8560,1336.988
8561,1353.124
8562,1373.630
8563,1375.086
8564,1356.037
8565,1338.467
8566,1334.791
8567,1342.860
8568,1346.512
8569,1356.037
8570,1353.124
8571,1367.041
8572,1405.856
8573,1383.894
8574,1393.419
8575,1393.419
8576,1430.778
8577,1402.204
8578,1435.170
8579,1402.204
8580,1400.007
8581,1450.544
8582,1422.709
8583,1412.445
8584,1446.891
8585,1421.970
8586,1427.102
8587,1416.860
8588,1460.808
8589,1430.038
8590,1411.728
8591,1455.676
8592,1421.253
8593,1457.872
8594,1416.121
8595,1452.740
8596,1460.808
8597,1416.860
8598,1461.548
8599,1419.057
8600,1461.548
8601,1423.449
8602,1445.411
8603,1465.200
8604,1439.562
8605,1473.985
8606,1429.298
8607,1457.872
8608,1462.264
8609,1430.038
8610,1474.725
8611,1459.351
8612,1465.940
8613,1426.385
8614,1446.151
8615,1452.023
8616,1432.974
8617,1473.985
8618,1426.385
8619,1448.347
8620,1449.087
8621,1427.102
8622,1465.200
8623,1436.626
8624,1460.068
8625,1430.038
8626,1442.498
8627,1416.860
8628,1413.185
8629,1448.347
8630,1408.792
8631,1434.430
8632,1446.151
8633,1417.577
8634,1416.860
8635,1416.860
8636,1427.102
8637,1416.121
8638,1370.694
8639,1369.954
8640,1377.282
8641,1405.856
8642,1402.204
8643,1348.708
8644,1361.909
8645,1393.419
8646,1360.452
