'sample interval','wrist_ppg'
'0.00390625 sec','mV'
0,1284.252
1,1258.611
2,1287.182
3,1276.920
4,1273.990
5,1268.866
6,1260.805
7,1246.884
8,1255.681
9,1243.954
10,1276.191
11,1254.209
12,1259.340
13,1286.446
14,1324.543
15,1329.674
16,1336.262
17,1373.623
18,1345.788
19,1361.174
20,1390.474
21,1379.490
22,1397.070
23,1441.755
24,1408.061
25,1447.623
26,1434.430
27,1425.640
28,1439.561
29,1444.685
30,1473.263
31,1449.816
32,1443.220
33,1458.606
34,1468.868
35,1457.877
36,1443.220
37,1442.491
38,1442.491
39,1452.746
40,1436.631
41,1441.026
42,1434.430
43,1437.360
44,1435.166
45,1449.087
46,1439.561
47,1471.062
48,1468.868
49,1462.272
50,1445.421
51,1435.166
52,1417.579
53,1428.570
54,1414.649
55,1443.220
56,1421.982
57,1401.465
58,1421.982
59,1394.869
60,1367.034
61,1382.420
62,1363.368
63,1367.763
64,1340.657
65,1334.069
66,1373.623
67,1338.464
68,1315.016
69,1310.622
70,1330.402
71,1340.657
72,1303.297
73,1294.507
74,1291.577
75,1293.042
76,1297.437
77,1321.613
78,1315.016
79,1353.113
80,1308.428
81,1348.718
82,1328.209
83,1327.472
84,1324.543
85,1356.779
86,1353.113
87,1298.902
88,1315.016
89,1320.876
90,1279.121
91,1304.033
92,1315.016
93,1283.516
94,1258.611
95,1263.735
96,1301.095
97,1282.051
98,1265.936
99,1254.209
100,1284.981
101,1297.437
102,1293.042
103,1273.261
104,1282.051
105,1311.358
106,1275.455
107,1279.121
108,1280.586
109,1296.701
110,1323.806
111,1328.209
112,1288.647
113,1338.464
114,1304.762
115,1312.823
116,1341.393
117,1351.648
118,1339.192
119,1328.937
120,1322.341
121,1318.683
122,1362.639
123,1315.753
124,1354.578
125,1361.174
126,1336.999
127,1336.262
128,1367.034
129,1323.806
130,1345.788
131,1328.209
132,1319.411
133,1360.438
134,1328.209
135,1360.438
136,1323.806
137,1326.744
138,1356.043
139,1311.358
140,1355.314
141,1347.253
142,1347.982
143,1354.578
144,1339.928
145,1327.472
146,1343.587
147,1323.078
148,1364.104
149,1323.806
150,1322.341
151,1350.183
152,1367.034
153,1332.604
154,1361.174
155,1354.578
156,1372.158
157,1333.332
158,1369.228
159,1340.657
160,1382.420
161,1343.587
162,1388.280
163,1368.499
164,1345.052
165,1388.280
166,1372.894
167,1364.833
168,1386.079
169,1374.359
170,1362.639
171,1368.499
172,1321.613
173,1353.849
174,1307.692
175,1305.498
176,1309.893
177,1311.358
178,1324.543
179,1309.157
180,1306.963
181,1307.692
182,1348.718
183,1347.253
184,1339.192
185,1383.149
186,1352.384
187,1356.779
188,1378.754
189,1397.070
190,1390.474
191,1433.702
192,1414.649
193,1399.271
194,1439.561
195,1422.710
196,1428.570
197,1431.500
198,1429.307
199,1431.500
200,1434.430
201,1406.596
202,1426.377
203,1398.535
204,1418.316
205,1387.544
206,1423.447
207,1404.395
208,1394.140
209,1386.815
210,1392.675
211,1409.526
212,1412.456
213,1394.869
214,1407.325
215,1405.860
216,1390.474
217,1408.789
218,1391.210
219,1380.219
220,1373.623
221,1396.333
222,1415.386
223,1411.719
224,1395.605
225,1372.894
226,1392.675
227,1403.666
228,1367.034
229,1404.395
230,1395.605
231,1396.333
232,1402.201
233,1356.043
234,1369.964
235,1384.614
236,1393.404
237,1389.745
238,1347.253
239,1383.885
240,1364.104
241,1361.903
242,1355.314
243,1371.429
244,1339.192
245,1320.148
246,1361.174
247,1326.007
248,1335.534
249,1326.007
250,1339.928
251,1344.323
252,1318.683
253,1327.472
254,1335.534
255,1333.332
256,1327.472
257,1306.227
258,1304.762
259,1289.376
260,1329.674
261,1294.507
262,1313.551
263,1262.270
264,1293.042
265,1276.920
266,1293.042
267,1273.990
268,1249.085
269,1238.094
270,1240.296
271,1244.690
272,1247.620
273,1262.270
274,1272.525
275,1295.236
276,1297.437
277,1287.911
278,1276.191
279,1260.076
280,1269.595
281,1265.936
282,1275.455
283,1317.218
284,1293.771
285,1300.367
286,1287.182
287,1300.367
288,1307.692
289,1301.095
290,1316.481
291,1329.674
292,1300.367
293,1334.069
294,1345.052
295,1353.113
296,1333.332
297,1357.508
298,1358.973
299,1360.438
300,1356.043
301,1339.928
302,1312.087
303,1356.779
304,1334.069
305,1313.551
306,1359.709
307,1325.271
308,1335.534
309,1336.999
310,1339.192
311,1325.271
312,1347.982
313,1362.639
314,1369.228
315,1369.964
316,1372.158
317,1368.499
318,1340.657
319,1331.867
320,1371.429
321,1340.657
322,1378.025
323,1375.824
324,1337.727
325,1348.718
326,1362.639
327,1355.314
328,1370.693
329,1380.219
330,1367.034
331,1362.639
332,1378.025
333,1371.429
334,1402.201
335,1388.280
336,1364.833
337,1379.490
338,1375.824
339,1386.079
340,1394.869
341,1419.781
342,1378.025
343,1398.535
344,1401.465
345,1380.219
346,1414.649
347,1391.939
348,1364.104
349,1364.833
350,1358.973
351,1358.973
352,1357.508
353,1397.070
354,1358.973
355,1374.359
356,1394.869
357,1364.104
358,1394.869
359,1390.474
360,1364.833
361,1383.149
362,1372.158
363,1378.025
364,1372.158
365,1356.779
366,1358.973
367,1361.174
368,1375.095
369,1407.325
370,1394.140
371,1374.359
372,1383.885
373,1369.228
374,1394.140
375,1409.526
376,1410.254
377,1402.930
378,1397.806
379,1383.885
380,1403.666
381,1418.316
382,1419.781
383,1405.131
384,1403.666
385,1413.921
386,1404.395
387,1419.044
388,1417.579
389,1402.930
390,1378.754
391,1423.447
392,1402.930
393,1402.930
394,1398.535
395,1386.815
396,1408.061
397,1419.044
398,1423.447
399,1397.070
400,1385.350
401,1385.350
402,1390.474
403,1410.991
404,1422.710
405,1380.219
406,1421.982
407,1399.271
408,1379.490
409,1383.149
410,1391.210
411,1372.158
412,1400.000
413,1398.535
414,1372.894
415,1362.639
416,1360.438
417,1358.244
418,1380.219
419,1374.359
420,1336.262
421,1344.323
422,1319.411
423,1349.447
424,1342.122
425,1312.823
426,1306.227
427,1333.332
428,1297.437
429,1327.472
430,1295.236
431,1313.551
432,1267.401
433,1284.252
434,1257.875
435,1256.410
436,1279.857
437,1281.322
438,1260.076
439,1282.787
440,1280.586
441,1284.252
442,1287.182
443,1242.489
444,1276.920
445,1249.814
446,1252.744
447,1294.507
448,1299.630
449,1290.841
450,1269.595
451,1292.306
452,1316.481
453,1293.771
454,1320.148
455,1292.306
456,1295.236
457,1279.857
458,1290.841
459,1333.332
460,1310.622
461,1342.122
462,1345.788
463,1350.183
464,1342.858
465,1307.692
466,1359.709
467,1337.727
468,1330.402
469,1347.982
470,1353.849
471,1345.788
472,1320.148
473,1358.973
474,1356.043
475,1320.148
476,1334.069
477,1323.078
478,1321.613
479,1358.244
480,1372.158
481,1368.499
482,1361.174
483,1331.867
484,1376.560
485,1360.438
486,1335.534
487,1342.122
488,1378.025
489,1388.280
490,1369.964
491,1390.474
492,1344.323
493,1367.763
494,1387.544
495,1391.210
496,1350.183
497,1372.894
498,1389.745
499,1393.404
500,1396.333
501,1378.025
502,1360.438
503,1364.833
504,1375.095
505,1386.815
506,1396.333
507,1414.649
508,1395.605
509,1377.289
510,1382.420
511,1391.939
512,1378.025
513,1410.991
514,1368.499
515,1367.763
516,1357.508
517,1363.368
518,1339.928
519,1347.982
520,1375.824
521,1341.393
522,1330.402
523,1342.858
524,1342.858
525,1326.744
526,1369.964
527,1340.657
528,1353.113
529,1383.149
530,1367.034
531,1367.034
532,1361.174
533,1369.228
534,1371.429
535,1367.763
536,1372.894
537,1402.930
538,1415.386
539,1381.684
540,1389.009
541,1377.289
542,1392.675
543,1368.499
544,1386.079
545,1408.789
546,1408.061
547,1394.140
548,1383.885
549,1380.219
550,1384.614
551,1410.254
552,1403.666
553,1388.280
554,1404.395
555,1394.140
556,1404.395
557,1429.307
558,1391.210
559,1403.666
560,1411.719
561,1402.930
562,1391.939
563,1391.210
564,1416.114
565,1432.237
566,1391.210
567,1418.316
568,1388.280
569,1430.035
570,1388.280
571,1383.149
572,1394.140
573,1402.930
574,1407.325
575,1394.869
576,1377.289
577,1365.569
578,1403.666
579,1372.894
580,1394.869
581,1358.973
582,1365.569
583,1384.614
584,1375.824
585,1381.684
586,1349.447
587,1337.727
588,1363.368
589,1338.464
590,1361.903
591,1352.384
592,1359.709
593,1339.192
594,1363.368
595,1381.684
596,1380.219
597,1339.928
598,1367.763
599,1361.903
600,1340.657
601,1311.358
602,1334.797
603,1324.543
604,1299.630
605,1313.551
606,1259.340
607,1301.832
608,1258.611
609,1278.385
610,1305.498
611,1292.306
612,1298.902
613,1304.762
614,1304.033
615,1285.717
616,1303.297
617,1301.095
618,1301.095
619,1300.367
620,1296.701
621,1299.630
622,1293.042
623,1298.166
624,1293.771
625,1294.507
626,1290.112
627,1254.209
628,1283.516
629,1282.787
630,1301.095
631,1290.841
632,1276.191
633,1312.087
634,1279.121
635,1311.358
636,1286.446
637,1288.647
638,1282.051
639,1324.543
640,1300.367
641,1309.157
642,1315.016
643,1320.876
644,1321.613
645,1310.622
646,1353.849
647,1350.920
648,1326.007
649,1345.052
650,1364.104
651,1372.158
652,1374.359
653,1375.824
654,1365.569
655,1350.183
656,1343.587
657,1335.534
658,1336.999
659,1381.684
660,1358.244
661,1364.833
662,1367.763
663,1366.298
664,1342.858
665,1368.499
666,1389.745
667,1389.745
668,1342.858
669,1345.052
670,1349.447
671,1365.569
672,1356.043
673,1389.745
674,1383.885
675,1365.569
676,1380.219
677,1405.131
678,1364.104
679,1393.404
680,1389.009
681,1389.009
682,1385.350
683,1389.009
684,1409.526
685,1396.333
686,1405.860
687,1367.763
688,1392.675
689,1348.718
690,1392.675
691,1373.623
692,1361.903
693,1342.858
694,1369.964
695,1391.939
696,1395.605
697,1399.271
698,1388.280
699,1360.438
700,1408.789
701,1371.429
702,1400.000
703,1408.061
704,1416.851
705,1414.649
706,1397.806
707,1380.955
708,1397.070
709,1419.044
710,1409.526
711,1424.175
712,1402.930
713,1394.869
714,1397.070
715,1402.201
716,1398.535
717,1398.535
718,1397.806
719,1400.000
720,1396.333
721,1397.070
722,1399.271
723,1407.325
724,1419.781
725,1435.166
726,1407.325
727,1420.509
728,1427.842
729,1442.491
730,1441.026
731,1440.290
732,1436.631
733,1399.271
734,1410.991
735,1418.316
736,1394.140
737,1383.149
738,1386.815
739,1416.114
740,1414.649
741,1413.184
742,1409.526
743,1361.903
744,1376.560
745,1394.140
746,1393.404
747,1339.192
748,1380.955
749,1361.174
750,1353.849
751,1335.534
752,1349.447
753,1364.833
754,1324.543
755,1320.148
756,1346.517
757,1353.849
758,1343.587
759,1312.087
760,1356.043
761,1306.963
762,1317.946
763,1361.903
764,1353.849
765,1334.069
766,1323.806
767,1345.788
768,1372.894
769,1372.894
770,1347.982
771,1330.402
772,1344.323
773,1327.472
774,1357.508
775,1353.849
776,1309.893
777,1341.393
778,1306.963
779,1290.112
780,1286.446
781,1315.753
782,1331.139
783,1331.867
784,1330.402
785,1331.867
786,1317.946
787,1317.218
788,1324.543
789,1320.148
790,1320.148
791,1311.358
792,1314.288
793,1311.358
794,1320.876
795,1326.007
796,1276.920
797,1279.121
798,1317.218
799,1293.042
800,1274.726
801,1306.963
802,1317.218
803,1304.033
804,1303.297
805,1326.007
806,1283.516
807,1293.042
808,1310.622
809,1337.727
810,1304.033
811,1298.166
812,1323.806
813,1348.718
814,1338.464
815,1311.358
816,1347.253
817,1320.148
818,1358.244
819,1318.683
820,1357.508
821,1314.288
822,1357.508
823,1319.411
824,1337.727
825,1349.447
826,1318.683
827,1351.648
828,1356.779
829,1328.209
830,1327.472
831,1326.007
832,1359.709
833,1372.158
834,1367.034
835,1358.973
836,1340.657
837,1382.420
838,1347.253
839,1353.849
840,1383.149
841,1383.885
842,1361.903
843,1369.964
844,1380.955
845,1361.174
846,1379.490
847,1412.456
848,1369.228
849,1396.333
850,1408.789
851,1370.693
852,1410.254
853,1411.719
854,1381.684
855,1386.815
856,1359.709
857,1346.517
858,1358.244
859,1364.833
860,1365.569
861,1374.359
862,1378.754
863,1370.693
864,1361.903
865,1333.332
866,1364.104
867,1370.693
868,1339.192
869,1357.508
870,1388.280
871,1367.763
872,1375.824
873,1356.043
874,1387.544
875,1388.280
876,1361.903
877,1383.149
878,1408.061
879,1386.815
880,1386.079
881,1369.228
882,1368.499
883,1387.544
884,1399.271
885,1365.569
886,1398.535
887,1370.693
888,1397.806
889,1364.833
890,1405.131
891,1386.079
892,1367.763
893,1376.560
894,1395.605
895,1357.508
896,1372.894
897,1391.939
898,1389.745
899,1378.754
900,1394.869
901,1368.499
902,1378.754
903,1379.490
904,1394.869
905,1423.447
906,1385.350
907,1419.044
908,1383.149
909,1405.860
910,1390.474
911,1421.246
912,1419.781
913,1400.000
914,1372.158
915,1366.298
916,1385.350
917,1353.113
918,1349.447
919,1356.043
920,1338.464
921,1378.025
922,1378.025
923,1328.937
924,1319.411
925,1358.973
926,1334.797
927,1331.867
928,1342.122
929,1347.253
930,1341.393
931,1319.411
932,1355.314
933,1312.087
934,1335.534
935,1328.937
936,1313.551
937,1324.543
938,1328.209
939,1360.438
940,1353.113
941,1353.849
942,1353.849
943,1320.148
944,1299.630
945,1305.498
946,1334.797
947,1315.016
948,1331.867
949,1291.577
950,1334.797
951,1331.139
952,1287.182
953,1332.604
954,1291.577
955,1336.999
956,1309.157
957,1285.717
958,1326.744
959,1294.507
960,1299.630
961,1329.674
962,1322.341
963,1290.112
964,1304.033
965,1314.288
966,1331.867
967,1326.007
968,1331.867
969,1334.797
970,1315.753
971,1290.112
972,1301.832
973,1308.428
974,1326.007
975,1338.464
976,1347.982
977,1353.849
978,1354.578
979,1350.183
980,1314.288
981,1353.849
982,1320.876
983,1331.867
984,1361.903
985,1360.438
986,1328.209
987,1328.209
988,1330.402
989,1352.384
990,1343.587
991,1353.849
992,1375.824
993,1345.052
994,1327.472
995,1347.253
996,1375.095
997,1335.534
998,1331.139
999,1371.429
1000,1371.429
1001,1374.359
1002,1361.174
1003,1346.517
1004,1326.744
1005,1326.744
1006,1326.744
1007,1328.937
1008,1349.447
1009,1350.920
1010,1353.113
1011,1367.034
1012,1370.693
1013,1373.623
1014,1368.499
1015,1358.973
1016,1371.429
1017,1375.824
1018,1340.657
1019,1328.209
1020,1339.192
1021,1367.763
1022,1365.569
1023,1342.858
1024,1380.955
1025,1340.657
1026,1348.718
1027,1379.490
1028,1364.833
1029,1363.368
1030,1352.384
1031,1347.253
1032,1347.982
1033,1368.499
1034,1353.849
1035,1340.657
1036,1347.982
1037,1394.140
1038,1364.104
1039,1380.955
1040,1393.404
1041,1369.228
1042,1397.806
1043,1405.860
1044,1412.456
1045,1380.955
1046,1394.140
1047,1406.596
1048,1394.869
1049,1405.860
1050,1400.736
1051,1394.869
1052,1386.079
1053,1404.395
1054,1388.280
1055,1383.149
1056,1375.095
1057,1372.894
1058,1376.560
1059,1383.885
1060,1398.535
1061,1367.034
1062,1386.079
1063,1408.789
1064,1361.903
1065,1393.404
1066,1404.395
1067,1360.438
1068,1382.420
1069,1359.709
1070,1397.806
1071,1405.131
1072,1403.666
1073,1371.429
1074,1386.079
1075,1383.885
1076,1374.359
1077,1369.964
1078,1383.885
1079,1373.623
1080,1387.544
1081,1386.079
1082,1391.210
1083,1410.991
1084,1367.763
1085,1386.079
1086,1361.174
1087,1403.666
1088,1404.395
1089,1383.885
1090,1397.070
1091,1364.833
1092,1367.034
1093,1344.323
1094,1380.955
1095,1346.517
1096,1350.920
1097,1364.104
1098,1367.034
1099,1359.709
1100,1347.253
1101,1362.639
1102,1334.797
1103,1345.052
1104,1360.438
1105,1361.174
1106,1349.447
1107,1359.709
1108,1347.982
1109,1345.052
1110,1352.384
1111,1349.447
1112,1339.192
1113,1327.472
1114,1306.227
1115,1304.033
1116,1325.271
1117,1287.182
1118,1320.876
1119,1310.622
1120,1274.726
1121,1312.823
1122,1283.516
1123,1298.166
1124,1268.130
1125,1313.551
1126,1291.577
1127,1268.866
1128,1287.182
1129,1299.630
1130,1303.297
1131,1271.796
1132,1307.692
1133,1320.148
1134,1298.166
1135,1280.586
1136,1274.726
1137,1290.112
1138,1291.577
1139,1292.306
1140,1274.726
1141,1322.341
1142,1323.806
1143,1290.112
1144,1330.402
1145,1331.867
1146,1330.402
1147,1339.928
1148,1300.367
1149,1339.192
1150,1337.727
1151,1320.148
1152,1358.973
1153,1340.657
1154,1325.271
1155,1354.578
1156,1373.623
1157,1366.298
1158,1353.113
1159,1342.122
1160,1389.009
1161,1354.578
1162,1376.560
1163,1388.280
1164,1364.833
1165,1394.869
1166,1376.560
1167,1353.113
1168,1396.333
1169,1372.894
1170,1350.920
1171,1389.745
1172,1356.043
1173,1396.333
1174,1391.210
1175,1367.763
1176,1368.499
1177,1349.447
1178,1376.560
1179,1394.869
1180,1384.614
1181,1390.474
1182,1378.025
1183,1380.955
1184,1375.824
1185,1395.605
1186,1394.140
1187,1395.605
1188,1392.675
1189,1383.885
1190,1386.079
1191,1355.314
1192,1364.104
1193,1353.113
1194,1396.333
1195,1356.779
1196,1380.219
1197,1369.964
1198,1353.849
1199,1357.508
1200,1354.578
1201,1353.849
1202,1362.639
1203,1365.569
1204,1339.192
1205,1372.158
1206,1331.867
1207,1335.534
1208,1326.007
1209,1353.849
1210,1328.937
1211,1336.262
1212,1361.903
1213,1378.754
1214,1358.973
1215,1380.219
1216,1394.140
1217,1388.280
1218,1402.201
1219,1421.246
1220,1390.474
1221,1398.535
1222,1415.386
1223,1380.955
1224,1405.131
1225,1418.316
1226,1405.131
1227,1385.350
1228,1389.009
1229,1421.982
1230,1413.921
1231,1413.184
1232,1400.000
1233,1406.596
1234,1411.719
1235,1374.359
1236,1372.894
1237,1398.535
1238,1412.456
1239,1374.359
1240,1405.860
1241,1362.639
1242,1378.754
1243,1405.860
1244,1387.544
1245,1358.973
1246,1398.535
1247,1359.709
1248,1399.271
1249,1361.903
1250,1402.201
1251,1364.104
1252,1402.201
1253,1385.350
1254,1358.973
1255,1397.806
1256,1402.201
1257,1388.280
1258,1356.779
1259,1395.605
1260,1367.034
1261,1366.298
1262,1391.210
1263,1369.964
1264,1346.517
1265,1350.920
1266,1380.219
1267,1341.393
1268,1367.763
1269,1366.298
1270,1351.648
1271,1378.754
1272,1367.034
1273,1353.113
1274,1354.578
1275,1340.657
1276,1334.069
1277,1344.323
1278,1339.192
1279,1369.964
1280,1347.253
1281,1347.982
1282,1380.219
1283,1377.289
1284,1380.955
1285,1384.614
1286,1355.314
1287,1349.447
1288,1361.903
1289,1358.244
1290,1355.314
1291,1338.464
1292,1334.069
1293,1339.192
1294,1303.297
1295,1290.112
1296,1301.095
1297,1299.630
1298,1286.446
1299,1284.252
1300,1285.717
1301,1265.936
1302,1284.252
1303,1243.954
1304,1258.611
1305,1295.972
1306,1281.322
1307,1282.787
1308,1259.340
1309,1298.166
1310,1298.902
1311,1275.455
1312,1263.735
1313,1263.006
1314,1280.586
1315,1307.692
1316,1298.166
1317,1286.446
1318,1269.595
1319,1277.656
1320,1288.647
1321,1297.437
1322,1334.069
1323,1337.727
1324,1329.674
1325,1336.999
1326,1312.823
1327,1353.849
1328,1361.903
1329,1326.007
1330,1340.657
1331,1371.429
1332,1330.402
1333,1336.262
1334,1351.648
1335,1364.833
1336,1382.420
1337,1340.657
1338,1360.438
1339,1369.964
1340,1349.447
1341,1369.228
1342,1372.158
1343,1349.447
1344,1397.806
1345,1352.384
1346,1383.149
1347,1379.490
1348,1361.174
1349,1400.736
1350,1404.395
1351,1378.754
1352,1383.885
1353,1404.395
1354,1394.140
1355,1359.709
1356,1381.684
1357,1389.009
1358,1405.860
1359,1402.201
1360,1405.131
1361,1383.149
1362,1366.298
1363,1380.955
1364,1360.438
1365,1365.569
1366,1380.219
1367,1397.806
1368,1412.456
1369,1366.298
1370,1378.754
1371,1355.314
1372,1374.359
1373,1347.982
1374,1338.464
1375,1319.411
1376,1312.087
1377,1323.078
1378,1304.033
1379,1315.016
1380,1311.358
1381,1328.209
1382,1326.007
1383,1344.323
1384,1367.034
1385,1369.964
1386,1371.429
1387,1409.526
1388,1419.781
1389,1421.982
1390,1392.675
1391,1419.781
1392,1405.860
1393,1432.965
1394,1394.140
1395,1431.500
1396,1391.939
1397,1434.430
1398,1415.386
1399,1415.386
1400,1404.395
1401,1421.982
1402,1392.675
1403,1389.009
1404,1410.254
1405,1413.184
1406,1367.763
1407,1400.736
1408,1375.824
1409,1354.578
1410,1365.569
1411,1391.939
1412,1394.140
1413,1388.280
1414,1386.815
1415,1371.429
1416,1372.894
1417,1371.429
1418,1378.754
1419,1355.314
1420,1379.490
1421,1371.429
1422,1347.253
1423,1368.499
1424,1385.350
1425,1353.113
1426,1394.140
1427,1377.289
1428,1361.903
1429,1359.709
1430,1383.885
1431,1363.368
1432,1375.824
1433,1394.869
1434,1392.675
1435,1385.350
1436,1387.544
1437,1386.815
1438,1382.420
1439,1347.253
1440,1372.158
1441,1371.429
1442,1331.139
1443,1348.718
1444,1377.289
1445,1358.244
1446,1345.052
1447,1349.447
1448,1367.034
1449,1331.867
1450,1380.955
1451,1365.569
1452,1342.858
1453,1356.779
1454,1394.869
1455,1376.560
1456,1357.508
1457,1393.404
1458,1350.920
1459,1347.982
1460,1365.569
1461,1323.078
1462,1311.358
1463,1311.358
1464,1337.727
1465,1325.271
1466,1275.455
1467,1289.376
1468,1299.630
1469,1279.121
1470,1311.358
1471,1278.385
1472,1266.665
1473,1284.252
1474,1321.613
1475,1305.498
1476,1312.087
1477,1284.981
1478,1292.306
1479,1304.033
1480,1317.218
1481,1307.692
1482,1296.701
1483,1337.727
1484,1292.306
1485,1340.657
1486,1292.306
1487,1304.033
1488,1314.288
1489,1308.428
1490,1299.630
1491,1345.052
1492,1320.148
1493,1341.393
1494,1309.157
1495,1312.823
1496,1317.946
1497,1326.007
1498,1325.271
1499,1319.411
1500,1331.867
1501,1362.639
1502,1349.447
1503,1365.569
1504,1339.928
1505,1373.623
1506,1328.937
1507,1366.298
1508,1328.209
1509,1375.095
1510,1328.937
1511,1371.429
1512,1328.937
1513,1370.693
1514,1366.298
1515,1337.727
1516,1367.034
1517,1375.095
1518,1331.867
1519,1369.228
1520,1346.517
1521,1378.025
1522,1350.183
1523,1340.657
1524,1382.420
1525,1383.885
1526,1385.350
1527,1381.684
1528,1386.815
1529,1381.684
1530,1367.034
1531,1347.982
1532,1387.544
1533,1345.788
1534,1378.754
1535,1361.903
1536,1362.639
1537,1398.535
1538,1399.271
1539,1403.666
1540,1400.736
1541,1394.140
1542,1388.280
1543,1389.009
1544,1397.806
1545,1422.710
1546,1379.490
1547,1403.666
1548,1400.736
1549,1402.201
1550,1347.253
1551,1369.964
1552,1383.885
1553,1360.438
1554,1330.402
1555,1329.674
1556,1338.464
1557,1323.806
1558,1326.744
1559,1371.429
1560,1342.858
1561,1347.982
1562,1361.903
1563,1389.745
1564,1361.903
1565,1391.210
1566,1398.535
1567,1403.666
1568,1406.596
1569,1408.061
1570,1411.719
1571,1382.420
1572,1375.095
1573,1415.386
1574,1395.605
1575,1379.490
1576,1395.605
1577,1408.789
1578,1388.280
1579,1375.824
1580,1375.095
1581,1402.201
1582,1381.684
1583,1383.885
1584,1397.806
1585,1412.456
1586,1365.569
1587,1386.815
1588,1408.789
1589,1368.499
1590,1377.289
1591,1403.666
1592,1394.140
1593,1378.025
1594,1395.605
1595,1406.596
1596,1397.806
1597,1368.499
1598,1364.833
1599,1364.104
1600,1362.639
1601,1374.359
1602,1393.404
1603,1377.289
1604,1399.271
1605,1408.061
1606,1397.806
1607,1360.438
1608,1394.869
1609,1364.104
1610,1402.201
1611,1399.271
1612,1353.849
1613,1362.639
1614,1388.280
1615,1361.903
1616,1359.709
1617,1374.359
1618,1382.420
1619,1380.955
1620,1332.604
1621,1331.139
1622,1339.928
1623,1349.447
1624,1360.438
1625,1378.754
1626,1368.499
1627,1334.797
1628,1338.464
1629,1370.693
1630,1344.323
1631,1358.244
1632,1328.209
1633,1369.228
1634,1331.867
1635,1331.867
1636,1314.288
1637,1346.517
1638,1291.577
1639,1308.428
1640,1280.586
1641,1274.726
1642,1296.701
1643,1317.946
1644,1281.322
1645,1265.200
1646,1306.227
1647,1312.087
1648,1314.288
1649,1306.963
1650,1295.236
1651,1276.920
1652,1317.946
1653,1321.613
1654,1304.762
1655,1317.946
1656,1324.543
1657,1326.007
1658,1294.507
1659,1308.428
1660,1337.727
1661,1312.823
1662,1307.692
1663,1295.236
1664,1331.867
1665,1334.797
1666,1306.963
1667,1350.920
1668,1306.227
1669,1315.016
1670,1349.447
1671,1348.718
1672,1338.464
1673,1326.007
1674,1318.683
1675,1366.298
1676,1327.472
1677,1369.228
1678,1353.113
1679,1357.508
1680,1340.657
1681,1339.928
1682,1347.253
1683,1364.833
1684,1353.113
1685,1361.903
1686,1357.508
1687,1367.034
1688,1350.920
1689,1349.447
1690,1347.253
1691,1324.543
1692,1372.158
1693,1331.867
1694,1369.964
1695,1353.849
1696,1329.674
1697,1358.973
1698,1377.289
1699,1375.095
1700,1370.693
1701,1385.350
1702,1375.824
1703,1360.438
1704,1369.228
1705,1369.964
1706,1377.289
1707,1347.982
1708,1391.210
1709,1357.508
1710,1353.113
1711,1384.614
1712,1397.806
1713,1402.201
1714,1408.061
1715,1406.596
1716,1410.254
1717,1412.456
1718,1411.719
1719,1381.684
1720,1385.350
1721,1395.605
1722,1396.333
1723,1372.894
1724,1366.298
1725,1392.675
1726,1366.298
1727,1358.244
1728,1382.420
1729,1356.043
1730,1349.447
1731,1390.474
1732,1347.982
1733,1361.903
1734,1392.675
1735,1382.420
1736,1391.939
1737,1361.174
1738,1383.885
1739,1402.930
1740,1367.034
1741,1364.104
1742,1368.499
1743,1413.921
1744,1410.991
1745,1377.289
1746,1369.964
1747,1377.289
1748,1378.025
1749,1411.719
1750,1414.649
1751,1416.114
1752,1386.079
1753,1370.693
1754,1378.754
1755,1379.490
1756,1394.140
1757,1364.104
1758,1408.789
1759,1386.815
1760,1358.973
1761,1397.070
1762,1393.404
1763,1352.384
1764,1357.508
1765,1376.560
1766,1347.982
1767,1380.219
1768,1393.404
1769,1381.684
1770,1387.544
1771,1361.903
1772,1380.955
1773,1391.939
1774,1350.183
1775,1397.070
1776,1370.693
1777,1380.955
1778,1394.140
1779,1363.368
1780,1361.903
1781,1369.964
1782,1376.560
1783,1386.815
1784,1369.964
1785,1346.517
1786,1391.210
1787,1387.544
1788,1385.350
1789,1362.639
1790,1337.727
1791,1326.744
1792,1351.648
1793,1321.613
1794,1367.763
1795,1341.393
1796,1339.192
1797,1317.218
1798,1348.718
1799,1364.104
1800,1342.858
1801,1364.833
1802,1328.937
1803,1341.393
1804,1364.104
1805,1375.824
1806,1371.429
1807,1364.833
1808,1324.543
1809,1367.763
1810,1364.833
1811,1340.657
1812,1307.692
1813,1343.587
1814,1334.069
1815,1335.534
1816,1336.999
1817,1310.622
1818,1295.236
1819,1317.946
1820,1309.893
1821,1299.630
1822,1307.692
1823,1301.832
1824,1324.543
1825,1336.999
1826,1332.604
1827,1318.683
1828,1288.647
1829,1338.464
1830,1328.209
1831,1287.911
1832,1315.016
1833,1301.832
1834,1316.481
1835,1322.341
1836,1287.182
1837,1310.622
1838,1332.604
1839,1332.604
1840,1292.306
1841,1336.262
1842,1287.182
1843,1331.867
1844,1326.744
1845,1312.823
1846,1310.622
1847,1323.806
1848,1338.464
1849,1332.604
1850,1336.999
1851,1354.578
1852,1309.893
1853,1343.587
1854,1363.368
1855,1330.402
1856,1331.867
1857,1323.806
1858,1342.122
1859,1356.779
1860,1382.420
1861,1375.095
1862,1364.833
1863,1345.788
1864,1391.939
1865,1364.833
1866,1373.623
1867,1388.280
1868,1365.569
1869,1394.869
1870,1393.404
1871,1368.499
1872,1367.763
1873,1401.465
1874,1409.526
1875,1412.456
1876,1415.386
1877,1404.395
1878,1411.719
1879,1416.114
1880,1416.114
1881,1380.955
1882,1380.955
1883,1417.579
1884,1383.885
1885,1416.851
1886,1389.745
1887,1368.499
1888,1361.174
1889,1404.395
1890,1377.289
1891,1388.280
1892,1369.228
1893,1334.069
1894,1336.999
1895,1309.893
1896,1329.674
1897,1289.376
1898,1300.367
1899,1287.911
1900,1276.191
1901,1260.805
1902,1268.130
1903,1242.489
1904,1256.410
1905,1275.455
1906,1299.630
1907,1273.261
1908,1275.455
1909,1336.999
1910,1324.543
1911,1321.613
1912,1378.025
1913,1375.824
1914,1369.228
1915,1392.675
1916,1408.789
1917,1400.736
1918,1407.325
1919,1431.500
1920,1441.755
1921,1443.220
1922,1426.377
1923,1412.456
1924,1436.631
1925,1454.947
1926,1435.166
1927,1416.114
1928,1423.447
1929,1411.719
1930,1426.377
1931,1451.281
1932,1404.395
1933,1425.640
1934,1410.254
1935,1408.789
1936,1430.035
1937,1396.333
1938,1403.666
1939,1422.710
1940,1389.745
1941,1421.246
1942,1382.420
1943,1413.921
1944,1380.219
1945,1397.070
1946,1422.710
1947,1419.044
1948,1419.044
1949,1408.061
1950,1405.860
1951,1389.745
1952,1400.000
1953,1391.939
1954,1410.991
1955,1429.307
1956,1421.982
1957,1391.939
1958,1411.719
1959,1416.851
1960,1396.333
1961,1386.079
1962,1379.490
1963,1404.395
1964,1417.579
1965,1372.894
1966,1412.456
1967,1372.894
1968,1364.833
1969,1369.228
1970,1392.675
1971,1385.350
1972,1401.465
1973,1383.885
1974,1359.709
1975,1358.244
1976,1380.219
1977,1364.833
1978,1361.903
1979,1370.693
1980,1323.078
1981,1322.341
1982,1309.893
1983,1351.648
1984,1339.192
1985,1311.358
1986,1320.148
1987,1276.191
1988,1270.331
1989,1285.717
1990,1265.936
1991,1241.024
1992,1241.024
1993,1254.209
1994,1265.200
1995,1255.681
1996,1226.375
1997,1265.936
1998,1262.270
1999,1270.331
2000,1273.261
2001,1234.436
2002,1275.455
2003,1293.042
2004,1284.252
2005,1249.085
2006,1299.630
2007,1256.410
2008,1277.656
2009,1306.227
2010,1309.893
2011,1297.437
2012,1284.252
2013,1282.051
2014,1282.051
2015,1298.902
2016,1307.692
2017,1325.271
2018,1339.192
2019,1342.858
2020,1304.033
2021,1307.692
2022,1309.893
2023,1331.139
2024,1360.438
2025,1352.384
2026,1327.472
2027,1336.999
2028,1372.894
2029,1331.139
2030,1372.894
2031,1353.849
2032,1356.043
2033,1334.797
2034,1355.314
2035,1380.219
2036,1333.332
2037,1363.368
2038,1336.999
2039,1376.560
2040,1349.447
2041,1331.867
2042,1365.569
2043,1353.849
2044,1326.744
2045,1344.323
2046,1367.034
2047,1358.244
2048,1323.078
2049,1351.648
2050,1338.464
2051,1357.508
2052,1317.946
2053,1364.833
2054,1334.069
2055,1350.920
2056,1315.753
2057,1360.438
2058,1327.472
2059,1360.438
2060,1369.228
2061,1364.833
2062,1350.183
2063,1348.718
2064,1364.833
2065,1383.149
2066,1382.420
2067,1357.508
2068,1372.894
2069,1399.271
2070,1410.254
2071,1384.614
2072,1423.447
2073,1394.140
2074,1430.772
2075,1417.579
2076,1404.395
2077,1402.201
2078,1430.772
2079,1391.210
2080,1403.666
2081,1402.201
2082,1408.789
2083,1389.009
2084,1385.350
2085,1426.377
2086,1389.009
2087,1398.535
2088,1424.912
2089,1415.386
2090,1383.149
2091,1411.719
2092,1424.912
2093,1402.201
2094,1384.614
2095,1393.404
2096,1391.210
2097,1378.025
2098,1390.474
2099,1412.456
2100,1398.535
2101,1400.000
2102,1413.184
2103,1411.719
2104,1408.789
2105,1389.745
2106,1380.955
2107,1381.684
2108,1410.254
2109,1369.964
2110,1389.009
2111,1364.104
2112,1393.404
2113,1377.289
2114,1358.973
2115,1362.639
2116,1400.000
2117,1360.438
2118,1381.684
2119,1372.894
2120,1394.140
2121,1355.314
2122,1363.368
2123,1393.404
2124,1393.404
2125,1381.684
2126,1386.079
2127,1356.043
2128,1374.359
2129,1365.569
2130,1383.885
2131,1385.350
2132,1350.183
2133,1347.253
2134,1383.149
2135,1381.684
2136,1365.569
2137,1331.867
2138,1372.158
2139,1358.244
2140,1353.849
2141,1335.534
2142,1358.244
2143,1335.534
2144,1323.806
2145,1352.384
2146,1300.367
2147,1334.797
2148,1318.683
2149,1345.052
2150,1307.692
2151,1334.069
2152,1352.384
2153,1307.692
2154,1328.937
2155,1364.104
2156,1363.368
2157,1336.999
2158,1348.718
2159,1378.754
2160,1364.833
2161,1339.192
2162,1345.052
2163,1358.973
2164,1361.903
2165,1331.139
2166,1361.174
2167,1343.587
2168,1322.341
2169,1339.192
2170,1334.069
2171,1309.157
2172,1325.271
2173,1334.069
2174,1326.744
2175,1326.007
2176,1308.428
2177,1312.823
2178,1314.288
2179,1306.227
2180,1344.323
2181,1293.042
2182,1339.928
2183,1304.033
2184,1293.771
2185,1293.042
2186,1335.534
2187,1334.797
2188,1307.692
2189,1306.963
2190,1330.402
2191,1312.087
2192,1302.560
2193,1289.376
2194,1326.007
2195,1293.771
2196,1336.262
2197,1317.946
2198,1299.630
2199,1309.157
2200,1347.982
2201,1346.517
2202,1308.428
2203,1348.718
2204,1320.148
2205,1331.139
2206,1320.876
2207,1355.314
2208,1320.876
2209,1356.779
2210,1340.657
2211,1346.517
2212,1335.534
2213,1317.218
2214,1339.192
2215,1363.368
2216,1328.937
2217,1326.007
2218,1357.508
2219,1358.973
2220,1356.779
2221,1340.657
2222,1333.332
2223,1336.262
2224,1351.648
2225,1364.833
2226,1371.429
2227,1361.174
2228,1329.674
2229,1335.534
2230,1342.122
2231,1358.973
2232,1334.069
2233,1362.639
2234,1350.183
2235,1358.244
2236,1364.833
2237,1367.034
2238,1369.228
2239,1352.384
2240,1347.253
2241,1392.675
2242,1383.149
2243,1381.684
2244,1367.034
2245,1393.404
2246,1406.596
2247,1389.009
2248,1377.289
2249,1392.675
2250,1400.000
2251,1404.395
2252,1358.973
2253,1366.298
2254,1393.404
2255,1342.858
2256,1352.384
2257,1383.885
2258,1340.657
2259,1343.587
2260,1346.517
2261,1393.404
2262,1372.158
2263,1392.675
2264,1389.745
2265,1380.955
2266,1370.693
2267,1416.851
2268,1408.061
2269,1387.544
2270,1422.710
2271,1393.404
2272,1383.885
2273,1386.079
2274,1400.736
2275,1406.596
2276,1426.377
2277,1387.544
2278,1390.474
2279,1392.675
2280,1417.579
2281,1399.271
2282,1392.675
2283,1416.114
2284,1429.307
2285,1415.386
2286,1403.666
2287,1387.544
2288,1402.201
2289,1427.105
2290,1383.885
2291,1403.666
2292,1416.114
2293,1418.316
2294,1427.842
2295,1418.316
2296,1398.535
2297,1383.885
2298,1390.474
2299,1418.316
2300,1420.509
2301,1383.149
2302,1408.061
2303,1380.219
2304,1417.579
2305,1400.000
2306,1390.474
2307,1378.754
2308,1399.271
2309,1363.368
2310,1372.894
2311,1355.314
2312,1375.095
2313,1345.052
2314,1342.122
2315,1338.464
2316,1347.982
2317,1353.113
2318,1367.034
2319,1326.744
2320,1372.158
2321,1336.262
2322,1317.946
2323,1325.271
2324,1343.587
2325,1315.753
2326,1326.007
2327,1359.709
2328,1321.613
2329,1349.447
2330,1338.464
2331,1369.228
2332,1326.007
2333,1352.384
2334,1337.727
2335,1371.429
2336,1360.438
2337,1358.244
2338,1338.464
2339,1325.271
2340,1326.744
2341,1313.551
2342,1339.928
2343,1328.937
2344,1327.472
2345,1306.963
2346,1284.252
2347,1310.622
2348,1288.647
2349,1314.288
2350,1265.200
2351,1271.796
2352,1268.866
2353,1281.322
2354,1272.525
2355,1282.051
2356,1317.218
2357,1318.683
2358,1306.963
2359,1293.771
2360,1323.806
2361,1317.946
2362,1291.577
2363,1284.981
2364,1323.806
2365,1327.472
2366,1317.218
2367,1330.402
2368,1327.472
2369,1301.832
2370,1317.946
2371,1326.744
2372,1292.306
2373,1300.367
2374,1338.464
2375,1334.797
2376,1311.358
2377,1303.297
2378,1336.262
2379,1310.622
2380,1348.718
2381,1360.438
2382,1353.849
2383,1349.447
2384,1360.438
2385,1363.368
2386,1367.034
2387,1368.499
2388,1368.499
2389,1358.973
2390,1336.999
2391,1349.447
2392,1370.693
2393,1361.903
2394,1342.122
2395,1336.999
2396,1369.964
2397,1374.359
2398,1361.174
2399,1341.393
2400,1375.824
2401,1334.069
2402,1356.779
2403,1364.104
2404,1375.824
2405,1361.174
2406,1341.393
2407,1342.858
2408,1363.368
2409,1380.219
2410,1378.754
2411,1375.824
2412,1350.183
2413,1357.508
2414,1351.648
2415,1354.578
2416,1378.754
2417,1401.465
2418,1367.763
2419,1394.869
2420,1389.009
2421,1400.000
2422,1391.939
2423,1378.025
2424,1395.605
2425,1404.395
2426,1367.034
2427,1358.244
2428,1377.289
2429,1396.333
2430,1347.253
2431,1387.544
2432,1370.693
2433,1354.578
2434,1367.034
2435,1387.544
2436,1394.869
2437,1392.675
2438,1386.815
2439,1361.174
2440,1389.009
2441,1388.280
2442,1367.034
2443,1408.789
2444,1417.579
2445,1386.079
2446,1378.025
2447,1414.649
2448,1384.614
2449,1405.860
2450,1421.246
2451,1416.114
2452,1420.509
2453,1412.456
2454,1417.579
2455,1399.271
2456,1416.114
2457,1441.026
2458,1435.895
2459,1422.710
2460,1422.710
2461,1424.175
2462,1422.710
2463,1408.789
2464,1424.912
2465,1426.377
2466,1408.061
2467,1393.404
2468,1432.965
2469,1397.806
2470,1432.237
2471,1408.061
2472,1386.079
2473,1403.666
2474,1425.640
2475,1420.509
2476,1405.860
2477,1390.474
2478,1393.404
2479,1375.824
2480,1369.228
2481,1374.359
2482,1376.560
2483,1363.368
2484,1371.429
2485,1385.350
2486,1368.499
2487,1340.657
2488,1367.763
2489,1353.113
2490,1357.508
2491,1361.174
2492,1351.648
2493,1325.271
2494,1325.271
2495,1315.016
2496,1360.438
2497,1353.849
2498,1317.946
2499,1356.779
2500,1315.753
2501,1355.314
2502,1339.928
2503,1331.139
2504,1351.648
2505,1369.964
2506,1380.219
2507,1331.867
2508,1378.754
2509,1352.384
2510,1370.693
2511,1360.438
2512,1348.718
2513,1312.087
2514,1295.972
2515,1317.946
2516,1295.972
2517,1288.647
2518,1309.157
2519,1260.076
2520,1298.902
2521,1246.884
2522,1293.771
2523,1253.480
2524,1247.620
2525,1260.805
2526,1290.112
2527,1290.112
2528,1298.166
2529,1296.701
2530,1303.297
2531,1304.762
2532,1307.692
2533,1268.866
2534,1303.297
2535,1259.340
2536,1296.701
2537,1308.428
2538,1310.622
2539,1308.428
2540,1284.252
2541,1308.428
2542,1302.560
2543,1322.341
2544,1302.560
2545,1332.604
2546,1287.182
2547,1293.771
2548,1294.507
2549,1305.498
2550,1326.007
2551,1353.113
2552,1307.692
2553,1354.578
2554,1314.288
2555,1326.007
2556,1342.858
2557,1316.481
2558,1360.438
2559,1337.727
2560,1320.876
2561,1323.806
2562,1347.982
2563,1366.298
2564,1336.999
2565,1376.560
2566,1352.384
2567,1345.788
2568,1366.298
2569,1367.763
2570,1346.517
2571,1388.280
2572,1348.718
2573,1374.359
2574,1397.806
2575,1396.333
2576,1377.289
2577,1402.201
2578,1358.973
2579,1402.930
2580,1369.228
2581,1375.095
2582,1403.666
2583,1356.043
2584,1404.395
2585,1358.973
2586,1397.070
2587,1391.210
2588,1356.043
2589,1389.009
2590,1369.964
2591,1369.964
2592,1395.605
2593,1410.254
2594,1380.955
2595,1365.569
2596,1372.894
2597,1367.034
2598,1356.043
2599,1389.745
2600,1375.095
2601,1349.447
2602,1375.824
2603,1361.903
2604,1366.298
2605,1331.867
2606,1323.806
2607,1339.192
2608,1331.139
2609,1331.139
2610,1367.763
2611,1376.560
2612,1376.560
2613,1350.183
2614,1359.709
2615,1366.298
2616,1375.824
2617,1400.736
2618,1404.395
2619,1388.280
2620,1399.271
2621,1408.061
2622,1418.316
2623,1420.509
2624,1417.579
2625,1443.220
2626,1457.141
2627,1445.421
2628,1418.316
2629,1452.017
2630,1446.158
2631,1439.561
2632,1431.500
2633,1430.772
2634,1419.781
2635,1413.921
2636,1440.290
2637,1442.491
2638,1424.912
2639,1411.719
2640,1421.246
2641,1401.465
2642,1435.166
2643,1440.290
2644,1412.456
2645,1417.579
2646,1391.939
2647,1406.596
2648,1411.719
2649,1387.544
2650,1409.526
2651,1424.912
2652,1414.649
2653,1421.982
2654,1419.044
2655,1397.806
2656,1374.359
2657,1384.614
2658,1406.596
2659,1402.201
2660,1372.894
2661,1350.920
2662,1390.474
2663,1386.079
2664,1374.359
2665,1380.219
2666,1346.517
2667,1339.192
2668,1369.964
2669,1325.271
2670,1350.183
2671,1350.920
2672,1320.148
2673,1335.534
2674,1367.034
2675,1335.534
2676,1323.806
2677,1359.709
2678,1326.744
2679,1320.876
2680,1322.341
2681,1358.244
2682,1315.016
2683,1309.893
2684,1340.657
2685,1328.937
2686,1309.157
2687,1309.893
2688,1317.218
2689,1260.805
2690,1302.560
2691,1290.841
2692,1265.200
2693,1246.884
2694,1284.981
2695,1242.489
2696,1268.130
2697,1293.042
2698,1293.042
2699,1261.541
2700,1300.367
2701,1270.331
2702,1273.990
2703,1300.367
2704,1303.297
2705,1276.191
2706,1295.972
2707,1321.613
2708,1301.095
2709,1309.893
2710,1320.876
2711,1326.007
2712,1284.252
2713,1334.069
2714,1287.911
2715,1295.972
2716,1309.157
2717,1297.437
2718,1332.604
2719,1344.323
2720,1304.033
2721,1340.657
2722,1356.043
2723,1359.709
2724,1359.709
2725,1359.709
2726,1351.648
2727,1342.858
2728,1345.052
2729,1358.244
2730,1329.674
2731,1357.508
2732,1336.999
2733,1355.314
2734,1332.604
2735,1363.368
2736,1377.289
2737,1333.332
2738,1364.833
2739,1364.104
2740,1342.122
2741,1378.025
2742,1331.867
2743,1366.298
2744,1344.323
2745,1371.429
2746,1330.402
2747,1377.289
2748,1328.937
2749,1374.359
2750,1351.648
2751,1325.271
2752,1325.271
2753,1323.806
2754,1339.928
2755,1358.973
2756,1351.648
2757,1367.034
2758,1369.964
2759,1369.964
2760,1361.903
2761,1356.779
2762,1328.937
2763,1365.569
2764,1364.833
2765,1346.517
2766,1375.095
2767,1377.289
2768,1372.158
2769,1358.973
2770,1394.140
2771,1394.140
2772,1409.526
2773,1400.736
2774,1372.894
2775,1368.499
2776,1400.736
2777,1386.079
2778,1395.605
2779,1349.447
2780,1353.849
2781,1391.939
2782,1346.517
2783,1371.429
2784,1389.009
2785,1387.544
2786,1364.104
2787,1381.684
2788,1357.508
2789,1380.219
2790,1401.465
2791,1389.745
2792,1361.174
2793,1363.368
2794,1365.569
2795,1367.763
2796,1370.693
2797,1412.456
2798,1410.254
2799,1400.000
2800,1385.350
2801,1375.095
2802,1400.000
2803,1405.131
2804,1393.404
2805,1406.596
2806,1391.939
2807,1372.894
2808,1416.851
2809,1386.815
2810,1377.289
2811,1404.395
2812,1410.991
2813,1378.754
2814,1387.544
2815,1394.140
2816,1379.490
2817,1364.833
2818,1361.174
2819,1402.930
2820,1406.596
2821,1402.930
2822,1406.596
2823,1409.526
2824,1406.596
2825,1408.789
2826,1408.789
2827,1389.009
2828,1362.639
2829,1367.034
2830,1405.131
2831,1392.675
2832,1364.104
2833,1401.465
2834,1387.544
2835,1382.420
2836,1394.869
2837,1389.009
2838,1361.903
2839,1352.384
2840,1345.052
2841,1373.623
2842,1372.894
2843,1367.034
2844,1346.517
2845,1339.192
2846,1333.332
2847,1375.824
2848,1356.779
2849,1372.894
2850,1378.754
2851,1358.973
2852,1353.113
2853,1353.849
2854,1342.858
2855,1340.657
2856,1353.113
2857,1377.289
2858,1378.754
2859,1345.788
2860,1363.368
2861,1353.113
2862,1354.578
2863,1320.148
2864,1315.753
2865,1279.857
2866,1294.507
2867,1312.087
2868,1255.681
2869,1274.726
2870,1285.717
2871,1293.771
2872,1280.586
2873,1258.611
2874,1293.042
2875,1268.866
2876,1255.681
2877,1260.076
2878,1283.516
2879,1301.832
2880,1292.306
2881,1272.525
2882,1255.681
2883,1302.560
2884,1279.857
2885,1260.076
2886,1275.455
2887,1292.306
2888,1312.087
2889,1280.586
2890,1302.560
2891,1312.087
2892,1312.823
2893,1315.753
2894,1279.857
2895,1325.271
2896,1297.437
2897,1296.701
2898,1290.112
2899,1285.717
2900,1301.095
2901,1336.999
2902,1293.042
2903,1340.657
2904,1343.587
2905,1336.262
2906,1339.192
2907,1302.560
2908,1342.858
2909,1305.498
2910,1340.657
2911,1352.384
2912,1309.893
2913,1315.753
2914,1327.472
2915,1336.999
2916,1331.139
2917,1368.499
2918,1328.937
2919,1335.534
2920,1347.982
2921,1352.384
2922,1361.174
2923,1342.122
2924,1383.885
2925,1366.298
2926,1368.499
2927,1350.920
2928,1353.849
2929,1359.709
2930,1362.639
2931,1372.158
2932,1393.404
2933,1390.474
2934,1391.939
2935,1400.000
2936,1383.149
2937,1419.044
2938,1381.684
2939,1410.991
2940,1419.044
2941,1410.991
2942,1427.105
2943,1427.105
2944,1416.114
2945,1412.456
2946,1398.535
2947,1392.675
2948,1389.009
2949,1370.693
2950,1389.009
2951,1353.849
2952,1360.438
2953,1331.867
2954,1344.323
2955,1353.849
2956,1342.858
2957,1342.858
2958,1322.341
2959,1361.174
2960,1367.034
2961,1329.674
2962,1361.903
2963,1347.982
2964,1363.368
2965,1356.043
2966,1402.930
2967,1371.429
2968,1401.465
2969,1403.666
2970,1418.316
2971,1397.070
2972,1400.000
2973,1399.271
2974,1395.605
2975,1415.386
2976,1391.210
2977,1390.474
2978,1396.333
2979,1390.474
2980,1389.745
2981,1392.675
2982,1391.939
2983,1419.044
2984,1412.456
2985,1378.025
2986,1389.745
2987,1416.114
2988,1397.806
2989,1371.429
2990,1364.833
2991,1365.569
2992,1375.095
2993,1404.395
2994,1397.806
2995,1403.666
2996,1395.605
2997,1375.095
2998,1375.095
2999,1387.544
3000,1372.894
3001,1370.693
3002,1369.228
3003,1375.824
3004,1402.930
3005,1405.860
3006,1375.824
3007,1386.815
3008,1361.174
3009,1397.806
3010,1367.763
3011,1354.578
3012,1393.404
3013,1358.973
3014,1355.314
3015,1388.280
3016,1382.420
3017,1383.149
3018,1359.709
3019,1330.402
3020,1339.928
3021,1365.569
3022,1327.472
3023,1334.069
3024,1340.657
3025,1362.639
3026,1375.095
3027,1372.894
3028,1369.964
3029,1384.614
3030,1350.920
3031,1336.262
3032,1328.209
3033,1336.262
3034,1315.753
3035,1306.963
3036,1347.982
3037,1336.999
3038,1328.209
3039,1284.981
3040,1300.367
3041,1313.551
3042,1301.095
3043,1300.367
3044,1303.297
3045,1286.446
3046,1304.762
3047,1266.665
3048,1305.498
3049,1262.270
3050,1268.866
3051,1263.735
3052,1270.331
3053,1320.148
3054,1300.367
3055,1283.516
3056,1278.385
3057,1299.630
3058,1328.937
3059,1331.867
3060,1285.717
3061,1306.963
3062,1338.464
3063,1340.657
3064,1344.323
3065,1337.727
3066,1298.902
3067,1345.788
3068,1354.578
3069,1309.893
3070,1341.393
3071,1361.174
3072,1358.244
3073,1355.314
3074,1323.806
3075,1367.034
3076,1340.657
3077,1364.833
3078,1328.209
3079,1334.069
3080,1345.052
3081,1372.894
3082,1361.174
3083,1359.709
3084,1355.314
3085,1373.623
3086,1327.472
3087,1369.228
3088,1370.693
3089,1349.447
3090,1344.323
3091,1348.718
3092,1350.183
3093,1360.438
3094,1326.007
3095,1335.534
3096,1371.429
3097,1362.639
3098,1328.937
3099,1348.718
3100,1350.183
3101,1350.920
3102,1369.964
3103,1344.323
3104,1339.192
3105,1379.490
3106,1353.849
3107,1350.183
3108,1377.289
3109,1364.833
3110,1393.404
3111,1386.815
3112,1396.333
3113,1398.535
3114,1364.833
3115,1394.869
3116,1372.158
3117,1390.474
3118,1394.869
3119,1372.158
3120,1381.684
3121,1362.639
3122,1352.384
3123,1392.675
3124,1367.763
3125,1328.937
3126,1356.043
3127,1342.858
3128,1337.727
3129,1337.727
3130,1328.937
3131,1315.016
3132,1348.718
3133,1350.920
3134,1315.753
3135,1369.964
3136,1348.718
3137,1375.095
3138,1334.797
3139,1350.183
3140,1358.973
3141,1350.183
3142,1394.869
3143,1367.034
3144,1384.614
3145,1383.149
3146,1378.025
3147,1416.114
3148,1394.869
3149,1417.579
3150,1406.596
3151,1432.237
3152,1391.939
3153,1401.465
3154,1430.035
3155,1429.307
3156,1394.140
3157,1405.860
3158,1427.105
3159,1410.991
3160,1386.079
3161,1416.851
3162,1424.175
3163,1423.447
3164,1422.710
3165,1397.806
3166,1372.894
3167,1375.095
3168,1394.140
3169,1402.201
3170,1402.201
3171,1370.693
3172,1414.649
3173,1401.465
3174,1402.201
3175,1368.499
3176,1375.095
3177,1402.201
3178,1377.289
3179,1376.560
3180,1356.043
3181,1388.280
3182,1397.806
3183,1389.009
3184,1378.025
3185,1347.253
3186,1353.849
3187,1375.095
3188,1369.964
3189,1355.314
3190,1342.858
3191,1372.894
3192,1323.078
3193,1363.368
3194,1352.384
3195,1339.928
3196,1321.613
3197,1334.797
3198,1345.052
3199,1349.447
3200,1340.657
3201,1344.323
3202,1381.684
3203,1389.745
3204,1384.614
3205,1346.517
3206,1372.158
3207,1372.894
3208,1329.674
3209,1323.078
3210,1331.139
3211,1347.253
3212,1305.498
3213,1287.911
3214,1290.112
3215,1324.543
3216,1317.946
3217,1323.806
3218,1324.543
3219,1324.543
3220,1298.902
3221,1284.252
3222,1327.472
3223,1286.446
3224,1307.692
3225,1291.577
3226,1326.744
3227,1281.322
3228,1328.937
3229,1316.481
3230,1282.051
3231,1329.674
3232,1287.182
3233,1295.972
3234,1304.762
3235,1330.402
3236,1331.139
3237,1317.946
3238,1287.182
3239,1308.428
3240,1336.999
3241,1332.604
3242,1326.744
3243,1347.253
3244,1344.323
3245,1315.016
3246,1350.920
3247,1306.227
3248,1341.393
3249,1340.657
3250,1320.148
3251,1331.867
3252,1331.139
3253,1328.209
3254,1333.332
3255,1317.218
3256,1349.447
3257,1348.718
3258,1308.428
3259,1334.797
3260,1353.113
3261,1355.314
3262,1359.709
3263,1361.903
3264,1347.982
3265,1322.341
3266,1329.674
3267,1366.298
3268,1328.937
3269,1325.271
3270,1339.192
3271,1339.928
3272,1355.314
3273,1367.763
3274,1345.052
3275,1342.122
3276,1358.244
3277,1349.447
3278,1356.779
3279,1383.885
3280,1406.596
3281,1402.930
3282,1403.666
3283,1410.254
3284,1391.210
3285,1399.271
3286,1438.096
3287,1398.535
3288,1402.201
3289,1427.105
3290,1406.596
3291,1432.965
3292,1430.035
3293,1426.377
3294,1432.237
3295,1384.614
3296,1411.719
3297,1380.219
3298,1372.158
3299,1372.158
3300,1368.499
3301,1380.955
3302,1408.789
3303,1386.815
3304,1357.508
3305,1402.930
3306,1372.894
3307,1382.420
3308,1384.614
3309,1369.228
3310,1360.438
3311,1372.894
3312,1378.025
3313,1389.009
3314,1349.447
3315,1346.517
3316,1364.833
3317,1389.009
3318,1389.745
3319,1362.639
3320,1357.508
3321,1350.920
3322,1360.438
3323,1386.079
3324,1355.314
3325,1380.955
3326,1344.323
3327,1381.684
3328,1336.262
3329,1382.420
3330,1340.657
3331,1380.955
3332,1364.104
3333,1334.069
3334,1377.289
3335,1336.262
3336,1342.122
3337,1348.718
3338,1366.298
3339,1331.867
3340,1359.709
3341,1380.219
3342,1375.824
3343,1369.964
3344,1364.104
3345,1345.052
3346,1388.280
3347,1364.104
3348,1391.210
3349,1367.763
3350,1354.578
3351,1370.693
3352,1378.025
3353,1391.939
3354,1383.885
3355,1386.815
3356,1402.930
3357,1393.404
3358,1366.298
3359,1373.623
3360,1407.325
3361,1359.709
3362,1389.009
3363,1407.325
3364,1364.104
3365,1405.860
3366,1368.499
3367,1391.210
3368,1388.280
3369,1394.140
3370,1400.000
3371,1353.849
3372,1400.736
3373,1364.104
3374,1386.815
3375,1358.244
3376,1347.253
3377,1360.438
3378,1369.228
3379,1341.393
3380,1369.964
3381,1353.113
3382,1349.447
3383,1341.393
3384,1281.322
3385,1321.613
3386,1312.823
3387,1263.735
3388,1299.630
3389,1255.681
3390,1296.701
3391,1252.744
3392,1246.884
3393,1281.322
3394,1300.367
3395,1288.647
3396,1274.726
3397,1276.920
3398,1310.622
3399,1279.857
3400,1317.946
3401,1283.516
3402,1295.972
3403,1300.367
3404,1298.166
3405,1328.209
3406,1316.481
3407,1287.182
3408,1329.674
3409,1283.516
3410,1318.683
3411,1284.981
3412,1331.139
3413,1307.692
3414,1289.376
3415,1290.112
3416,1326.744
3417,1334.069
3418,1310.622
3419,1306.963
3420,1324.543
3421,1341.393
3422,1326.744
3423,1314.288
3424,1347.982
3425,1312.087
3426,1350.183
3427,1322.341
3428,1346.517
3429,1305.498
3430,1331.867
3431,1331.867
3432,1336.262
3433,1323.806
3434,1361.903
3435,1320.148
3436,1323.806
3437,1331.867
3438,1365.569
3439,1349.447
3440,1380.219
3441,1382.420
3442,1382.420
3443,1383.149
3444,1391.939
3445,1372.894
3446,1353.849
3447,1369.964
3448,1390.474
3449,1361.174
3450,1393.404
3451,1350.183
3452,1372.158
3453,1396.333
3454,1356.779
3455,1393.404
3456,1374.359
3457,1367.034
3458,1400.000
3459,1410.991
3460,1397.070
3461,1389.745
3462,1397.070
3463,1430.035
3464,1395.605
3465,1394.140
3466,1402.930
3467,1391.210
3468,1399.271
3469,1374.359
3470,1375.824
3471,1401.465
3472,1391.939
3473,1381.684
3474,1399.271
3475,1347.982
3476,1350.920
3477,1358.973
3478,1389.009
3479,1390.474
3480,1387.544
3481,1361.174
3482,1389.745
3483,1388.280
3484,1385.350
3485,1355.314
3486,1370.693
3487,1390.474
3488,1387.544
3489,1362.639
3490,1367.763
3491,1381.684
3492,1368.499
3493,1390.474
3494,1409.526
3495,1387.544
3496,1402.201
3497,1388.280
3498,1416.114
3499,1374.359
3500,1406.596
3501,1398.535
3502,1402.201
3503,1417.579
3504,1398.535
3505,1413.921
3506,1390.474
3507,1389.009
3508,1405.860
3509,1410.254
3510,1396.333
3511,1370.693
3512,1374.359
3513,1409.526
3514,1375.824
3515,1376.560
3516,1405.131
3517,1380.219
3518,1401.465
3519,1380.219
3520,1387.544
3521,1410.991
3522,1425.640
3523,1423.447
3524,1424.175
3525,1402.201
3526,1389.745
3527,1395.605
3528,1403.666
3529,1422.710
3530,1389.009
3531,1425.640
3532,1414.649
3533,1411.719
3534,1410.254
3535,1372.894
3536,1402.201
3537,1364.104
3538,1362.639
3539,1381.684
3540,1347.982
3541,1372.894
3542,1352.384
3543,1365.569
3544,1387.544
3545,1379.490
3546,1381.684
3547,1371.429
3548,1342.858
3549,1346.517
3550,1372.158
3551,1344.323
3552,1346.517
3553,1302.560
3554,1299.630
3555,1293.042
3556,1279.121
3557,1268.130
3558,1278.385
3559,1264.471
3560,1295.972
3561,1285.717
3562,1254.209
3563,1235.164
3564,1232.234
3565,1243.225
3566,1282.787
3567,1233.699
3568,1277.656
3569,1287.182
3570,1287.182
3571,1282.787
3572,1294.507
3573,1248.349
3574,1282.051
3575,1263.006
3576,1269.595
3577,1258.611
3578,1263.006
3579,1290.112
3580,1313.551
3581,1320.876
3582,1320.148
3583,1324.543
3584,1329.674
3585,1283.516
3586,1334.069
3587,1301.832
3588,1315.753
3589,1341.393
3590,1344.323
3591,1336.262
3592,1307.692
3593,1309.893
3594,1336.999
3595,1315.016
3596,1355.314
3597,1307.692
3598,1321.613
3599,1350.183
3600,1357.508
3601,1341.393
3602,1358.244
3603,1314.288
3604,1352.384
3605,1344.323
3606,1324.543
3607,1370.693
3608,1356.043
3609,1341.393
3610,1331.139
3611,1378.025
3612,1371.429
3613,1352.384
3614,1358.973
3615,1365.569
3616,1393.404
3617,1396.333
3618,1396.333
3619,1386.815
3620,1372.894
3621,1360.438
3622,1404.395
3623,1369.964
3624,1380.955
3625,1401.465
3626,1367.034
3627,1411.719
3628,1384.614
3629,1387.544
3630,1393.404
3631,1402.201
3632,1425.640
3633,1419.044
3634,1400.000
3635,1399.271
3636,1403.666
3637,1422.710
3638,1393.404
3639,1386.079
3640,1421.246
3641,1392.675
3642,1361.174
3643,1347.253
3644,1356.043
3645,1328.937
3646,1328.209
3647,1353.849
3648,1307.692
3649,1346.517
3650,1350.920
3651,1327.472
3652,1354.578
3653,1329.674
3654,1350.183
3655,1364.104
3656,1335.534
3657,1374.359
3658,1333.332
3659,1338.464
3660,1369.228
3661,1394.140
3662,1369.228
3663,1388.280
3664,1367.034
3665,1394.140
3666,1407.325
3667,1394.869
3668,1416.851
3669,1386.079
3670,1380.219
3671,1390.474
3672,1383.885
3673,1396.333
3674,1407.325
3675,1432.237
3676,1427.842
3677,1401.465
3678,1402.201
3679,1390.474
3680,1391.939
3681,1402.930
3682,1424.175
3683,1405.860
3684,1405.131
3685,1429.307
3686,1416.114
3687,1402.201
3688,1418.316
3689,1426.377
3690,1405.860
3691,1443.220
3692,1419.044
3693,1400.736
3694,1411.719
3695,1405.860
3696,1402.201
3697,1411.719
3698,1413.921
3699,1420.509
3700,1387.544
3701,1384.614
3702,1399.271
3703,1380.955
3704,1371.429
3705,1367.763
3706,1372.894
3707,1391.939
3708,1367.763
3709,1354.578
3710,1377.289
3711,1346.517
3712,1338.464
3713,1335.534
3714,1333.332
3715,1358.973
3716,1334.069
3717,1376.560
3718,1372.894
3719,1337.727
3720,1324.543
3721,1364.833
3722,1356.779
3723,1355.314
3724,1334.069
3725,1329.674
3726,1317.218
3727,1268.866
3728,1271.060
3729,1281.322
3730,1260.805
3731,1226.375
3732,1220.515
3733,1224.173
3734,1236.629
3735,1245.419
3736,1205.129
3737,1232.971
3738,1249.085
3739,1205.129
3740,1232.971
3741,1244.690
3742,1263.006
3743,1268.130
3744,1289.376
3745,1250.550
3746,1283.516
3747,1284.252
3748,1311.358
3749,1314.288
3750,1296.701
3751,1319.411
3752,1306.963
3753,1333.332
3754,1319.411
3755,1326.007
3756,1299.630
3757,1352.384
3758,1333.332
3759,1359.709
3760,1360.438
3761,1331.139
3762,1350.183
3763,1361.174
3764,1369.228
3765,1347.982
3766,1389.009
3767,1379.490
3768,1374.359
3769,1374.359
3770,1406.596
3771,1361.903
3772,1407.325
3773,1363.368
3774,1392.675
3775,1394.869
3776,1384.614
3777,1380.219
3778,1397.806
3779,1396.333
3780,1373.623
3781,1388.280
3782,1408.061
3783,1386.079
3784,1365.569
3785,1394.869
3786,1393.404
3787,1365.569
3788,1362.639
3789,1372.158
3790,1361.903
3791,1365.569
3792,1397.806
3793,1362.639
3794,1401.465
3795,1390.474
3796,1355.314
3797,1354.578
3798,1356.779
3799,1372.894
3800,1390.474
3801,1380.219
3802,1367.763
3803,1358.973
3804,1397.070
3805,1356.043
3806,1399.271
3807,1364.104
3808,1365.569
3809,1383.149
3810,1383.149
3811,1391.210
3812,1383.149
3813,1328.209
3814,1369.228
3815,1347.982
3816,1313.551
3817,1353.113
3818,1331.139
3819,1300.367
3820,1336.262
3821,1350.183
3822,1348.718
3823,1311.358
3824,1345.052
3825,1354.578
3826,1355.314
3827,1338.464
3828,1378.025
3829,1368.499
3830,1343.587
3831,1383.885
3832,1386.079
3833,1402.930
3834,1400.000
3835,1375.095
3836,1415.386
3837,1383.885
3838,1419.781
3839,1399.271
3840,1405.860
3841,1424.175
3842,1391.939
3843,1412.456
3844,1383.149
3845,1410.254
3846,1426.377
3847,1396.333
3848,1381.684
3849,1416.114
3850,1394.140
3851,1374.359
3852,1383.885
3853,1397.806
3854,1371.429
3855,1380.219
3856,1379.490
3857,1366.298
3858,1391.939
3859,1398.535
3860,1407.325
3861,1385.350
3862,1384.614
3863,1362.639
3864,1370.693
3865,1364.833
3866,1398.535
3867,1384.614
3868,1410.254
3869,1408.061
3870,1374.359
3871,1376.560
3872,1383.149
3873,1384.614
3874,1421.246
3875,1402.930
3876,1388.280
3877,1391.210
3878,1410.991
3879,1430.772
3880,1422.710
3881,1400.736
3882,1415.386
3883,1423.447
3884,1400.000
3885,1410.991
3886,1379.490
3887,1378.025
3888,1399.271
3889,1391.939
3890,1394.140
3891,1360.438
3892,1375.824
3893,1354.578
3894,1358.973
3895,1390.474
3896,1382.420
3897,1330.402
3898,1316.481
3899,1323.806
3900,1316.481
3901,1331.139
3902,1321.613
3903,1305.498
3904,1282.051
3905,1290.112
3906,1273.990
3907,1242.489
3908,1220.515
3909,1257.146
3910,1233.699
3911,1252.744
3912,1219.050
3913,1232.234
3914,1234.436
3915,1260.076
3916,1263.006
3917,1228.568
3918,1260.805
3919,1276.920
3920,1279.857
3921,1303.297
3922,1262.270
3923,1295.972
3924,1322.341
3925,1282.787
3926,1301.832
3927,1331.867
3928,1333.332
3929,1295.236
3930,1348.718
3931,1301.832
3932,1336.999
3933,1334.069
3934,1312.823
3935,1352.384
3936,1336.999
3937,1336.999
3938,1345.788
3939,1336.262
3940,1334.069
3941,1318.683
3942,1314.288
3943,1303.297
3944,1321.613
3945,1336.999
3946,1320.876
3947,1339.192
3948,1334.069
3949,1343.587
3950,1333.332
3951,1295.236
3952,1346.517
3953,1317.218
3954,1349.447
3955,1334.069
3956,1321.613
3957,1336.999
3958,1336.999
3959,1356.779
3960,1360.438
3961,1328.937
3962,1334.797
3963,1364.104
3964,1325.271
3965,1341.393
3966,1376.560
3967,1358.973
3968,1369.964
3969,1380.219
3970,1358.244
3971,1385.350
3972,1346.517
3973,1364.833
3974,1374.359
3975,1356.043
3976,1370.693
3977,1405.860
3978,1411.719
3979,1390.474
3980,1423.447
3981,1399.271
3982,1433.702
3983,1415.386
3984,1427.842
3985,1394.140
3986,1396.333
3987,1406.596
3988,1428.570
3989,1386.079
3990,1406.596
3991,1378.025
3992,1379.490
3993,1373.623
3994,1372.894
3995,1395.605
3996,1402.201
3997,1413.921
3998,1364.104
3999,1388.280
4000,1410.254
4001,1365.569
4002,1410.254
4003,1408.789
4004,1403.666
4005,1410.254
4006,1399.271
4007,1376.560
4008,1416.114
4009,1383.149
4010,1411.719
4011,1416.114
4012,1381.684
4013,1401.465
4014,1410.991
4015,1391.939
4016,1387.544
4017,1383.149
4018,1385.350
4019,1393.404
4020,1427.842
4021,1417.579
4022,1396.333
4023,1389.745
4024,1389.009
4025,1380.955
4026,1380.219
4027,1409.526
4028,1380.219
4029,1405.860
4030,1423.447
4031,1400.736
4032,1378.025
4033,1419.781
4034,1415.386
4035,1406.596
4036,1406.596
4037,1412.456
4038,1374.359
4039,1396.333
4040,1366.298
4041,1364.833
4042,1371.429
4043,1394.140
4044,1387.544
4045,1391.210
4046,1345.052
4047,1384.614
4048,1338.464
4049,1383.885
4050,1378.025
4051,1369.228
4052,1339.928
4053,1330.402
4054,1336.999
4055,1329.674
4056,1336.262
4057,1323.806
4058,1348.718
4059,1367.034
4060,1368.499
4061,1361.903
4062,1370.693
4063,1339.192
4064,1333.332
4065,1372.158
4066,1337.727
4067,1380.955
4068,1361.174
4069,1355.314
4070,1375.824
4071,1380.955
4072,1358.973
4073,1362.639
4074,1369.228
4075,1317.218
4076,1353.113
4077,1351.648
4078,1298.166
4079,1337.727
4080,1318.683
4081,1293.042
4082,1282.051
4083,1298.902
4084,1317.946
4085,1315.753
4086,1280.586
4087,1273.990
4088,1308.428
4089,1274.726
4090,1309.893
4091,1263.735
4092,1299.630
4093,1264.471
4094,1309.893
4095,1300.367
4096,1266.665
4097,1261.541
4098,1263.006
4099,1274.726
4100,1283.516
4101,1265.936
4102,1314.288
4103,1279.857
4104,1276.920
4105,1317.218
4106,1324.543
4107,1282.787
4108,1290.841
4109,1317.218
4110,1338.464
4111,1313.551
4112,1330.402
4113,1301.095
4114,1339.928
4115,1349.447
4116,1348.718
4117,1308.428
4118,1308.428
4119,1323.078
4120,1339.928
4121,1355.314
4122,1347.253
4123,1354.578
4124,1330.402
4125,1325.271
4126,1324.543
4127,1364.104
4128,1348.718
4129,1367.034
4130,1372.894
4131,1367.763
4132,1364.104
4133,1350.183
4134,1338.464
4135,1387.544
4136,1346.517
4137,1383.149
4138,1393.404
4139,1394.140
4140,1392.675
4141,1380.219
4142,1359.709
4143,1394.869
4144,1380.219
4145,1361.903
4146,1406.596
4147,1374.359
4148,1408.789
4149,1384.614
4150,1402.930
4151,1417.579
4152,1420.509
4153,1401.465
4154,1384.614
4155,1429.307
4156,1391.210
4157,1386.815
4158,1391.939
4159,1415.386
4160,1428.570
4161,1386.815
4162,1405.860
4163,1381.684
4164,1426.377
4165,1391.939
4166,1377.289
4167,1419.044
4168,1416.114
4169,1409.526
4170,1401.465
4171,1374.359
4172,1367.763
4173,1377.289
4174,1405.131
4175,1354.578
4176,1398.535
4177,1356.779
4178,1380.955
4179,1388.280
4180,1379.490
4181,1364.104
4182,1378.754
4183,1383.885
4184,1387.544
4185,1380.219
4186,1402.930
4187,1405.860
4188,1408.061
4189,1406.596
4190,1394.140
4191,1395.605
4192,1408.789
4193,1395.605
4194,1379.490
4195,1372.158
4196,1378.025
4197,1375.824
4198,1369.964
4199,1364.104
4200,1368.499
4201,1365.569
4202,1364.833
4203,1377.289
4204,1404.395
4205,1402.930
4206,1365.569
4207,1408.789
4208,1409.526
4209,1367.034
4210,1407.325
4211,1405.860
4212,1393.404
4213,1371.429
4214,1394.869
4215,1410.991
4216,1405.131
4217,1405.131
4218,1413.921
4219,1405.131
4220,1407.325
4221,1361.903
4222,1405.131
4223,1394.869
4224,1397.806
4225,1370.693
4226,1372.894
4227,1342.858
4228,1335.534
4229,1345.788
4230,1336.999
4231,1325.271
4232,1364.833
4233,1361.903
4234,1323.078
4235,1345.788
4236,1354.578
4237,1330.402
4238,1327.472
4239,1370.693
4240,1320.148
4241,1346.517
4242,1355.314
4243,1356.779
4244,1324.543
4245,1317.946
4246,1348.718
4247,1315.753
4248,1323.806
4249,1336.999
4250,1325.271
4251,1304.033
4252,1321.613
4253,1289.376
4254,1286.446
4255,1322.341
4256,1320.876
4257,1312.087
4258,1290.841
4259,1281.322
4260,1288.647
4261,1272.525
4262,1279.857
4263,1277.656
4264,1291.577
4265,1292.306
4266,1302.560
4267,1314.288
4268,1295.236
4269,1298.902
4270,1317.218
4271,1272.525
4272,1318.683
4273,1323.806
4274,1326.744
4275,1315.753
4276,1286.446
4277,1336.262
4278,1302.560
4279,1298.902
4280,1306.963
4281,1304.033
4282,1309.157
4283,1351.648
4284,1333.332
4285,1354.578
4286,1360.438
4287,1338.464
4288,1315.753
4289,1334.797
4290,1321.613
4291,1353.849
4292,1341.393
4293,1364.833
4294,1331.139
4295,1336.262
4296,1337.727
4297,1347.982
4298,1352.384
4299,1392.675
4300,1377.289
4301,1351.648
4302,1397.070
4303,1354.578
4304,1385.350
4305,1360.438
4306,1391.210
4307,1356.043
4308,1380.955
4309,1401.465
4310,1374.359
4311,1399.271
4312,1367.034
4313,1395.605
4314,1353.113
4315,1395.605
4316,1376.560
4317,1400.736
4318,1356.043
4319,1360.438
4320,1393.404
4321,1395.605
4322,1369.228
4323,1401.465
4324,1418.316
4325,1402.201
4326,1396.333
4327,1429.307
4328,1406.596
4329,1416.114
4330,1435.166
4331,1403.666
4332,1441.755
4333,1409.526
4334,1399.271
4335,1402.930
4336,1408.789
4337,1419.044
4338,1435.166
4339,1387.544
4340,1414.649
4341,1382.420
4342,1422.710
4343,1405.860
4344,1384.614
4345,1374.359
4346,1373.623
4347,1374.359
4348,1388.280
4349,1372.894
4350,1386.815
4351,1390.474
4352,1398.535
4353,1401.465
4354,1410.254
4355,1384.614
4356,1369.228
4357,1367.763
4358,1381.684
4359,1391.939
4360,1384.614
4361,1378.025
4362,1368.499
4363,1373.623
4364,1378.025
4365,1376.560
4366,1389.009
4367,1407.325
4368,1410.991
4369,1386.079
4370,1405.131
4371,1400.736
4372,1408.789
4373,1382.420
4374,1378.754
4375,1370.693
4376,1402.930
4377,1416.114
4378,1407.325
4379,1387.544
4380,1375.824
4381,1378.754
4382,1395.605
4383,1375.095
4384,1395.605
4385,1386.079
4386,1374.359
4387,1385.350
4388,1403.666
4389,1382.420
4390,1394.869
4391,1375.095
4392,1391.210
4393,1401.465
4394,1352.384
4395,1378.025
4396,1392.675
4397,1369.964
4398,1372.158
4399,1341.393
4400,1376.560
4401,1380.219
4402,1381.684
4403,1385.350
4404,1383.885
4405,1382.420
4406,1336.999
4407,1369.964
4408,1356.043
4409,1368.499
4410,1367.034
4411,1339.928
4412,1326.007
4413,1305.498
4414,1302.560
4415,1313.551
4416,1337.727
4417,1304.033
4418,1301.832
4419,1328.937
4420,1281.322
4421,1318.683
4422,1306.227
4423,1291.577
4424,1326.744
4425,1304.762
4426,1330.402
4427,1331.139
4428,1314.288
4429,1315.016
4430,1314.288
4431,1352.384
4432,1311.358
4433,1342.122
4434,1356.043
4435,1364.833
4436,1342.122
4437,1332.604
4438,1327.472
4439,1372.894
4440,1363.368
4441,1338.464
4442,1361.903
4443,1373.623
4444,1363.368
4445,1331.139
4446,1367.763
4447,1374.359
4448,1374.359
4449,1367.034
4450,1372.894
4451,1371.429
4452,1364.833
4453,1360.438
4454,1349.447
4455,1331.867
4456,1329.674
4457,1370.693
4458,1339.192
4459,1345.788
4460,1375.824
4461,1341.393
4462,1343.587
4463,1378.025
4464,1363.368
4465,1336.999
4466,1367.034
4467,1340.657
4468,1350.183
4469,1364.104
4470,1337.727
4471,1363.368
4472,1335.534
4473,1350.183
4474,1373.623
4475,1342.122
4476,1365.569
4477,1353.849
4478,1336.999
4479,1353.113
4480,1376.560
4481,1360.438
4482,1332.604
4483,1374.359
4484,1358.973
4485,1333.332
4486,1376.560
4487,1360.438
4488,1329.674
4489,1348.718
4490,1364.833
4491,1346.517
4492,1341.393
4493,1353.849
4494,1358.244
4495,1375.095
4496,1342.122
4497,1326.744
4498,1339.928
4499,1345.052
4500,1345.788
4501,1342.858
4502,1347.253
4503,1342.858
4504,1325.271
4505,1318.683
4506,1339.192
4507,1352.384
4508,1325.271
4509,1373.623
4510,1374.359
4511,1383.149
4512,1347.982
4513,1361.903
4514,1380.955
4515,1379.490
4516,1377.289
4517,1375.095
4518,1394.140
4519,1415.386
4520,1422.710
4521,1419.044
4522,1420.509
4523,1388.280
4524,1416.851
4525,1374.359
4526,1363.368
4527,1358.244
4528,1389.009
4529,1355.314
4530,1373.623
4531,1387.544
4532,1361.903
4533,1330.402
4534,1364.833
4535,1344.323
4536,1342.122
4537,1317.218
4538,1318.683
4539,1313.551
4540,1309.893
4541,1309.157
4542,1305.498
4543,1318.683
4544,1331.139
4545,1330.402
4546,1314.288
4547,1336.999
4548,1335.534
4549,1333.332
4550,1378.754
4551,1347.253
4552,1398.535
4553,1364.833
4554,1372.158
4555,1377.289
4556,1388.280
4557,1393.404
4558,1413.184
4559,1396.333
4560,1411.719
4561,1397.806
4562,1415.386
4563,1411.719
4564,1396.333
4565,1371.429
4566,1383.149
4567,1373.623
4568,1343.587
4569,1324.543
4570,1317.946
4571,1360.438
4572,1315.753
4573,1321.613
4574,1347.253
4575,1312.087
4576,1304.033
4577,1330.402
4578,1336.262
4579,1331.139
4580,1296.701
4581,1328.209
4582,1304.762
4583,1298.166
4584,1301.095
4585,1273.261
4586,1281.322
4587,1271.796
4588,1227.840
4589,1246.155
4590,1236.629
4591,1197.068
4592,1183.147
4593,1176.558
4594,1202.199
4595,1199.998
4596,1214.655
4597,1213.919
4598,1203.664
4599,1257.875
4600,1227.103
4601,1259.340
4602,1250.550
4603,1247.620
4604,1276.920
4605,1262.270
4606,1292.306
4607,1263.735
4608,1293.771
4609,1315.016
4610,1327.472
4611,1305.498
4612,1302.560
4613,1342.122
4614,1361.903
4615,1335.534
4616,1375.824
4617,1361.903
4618,1354.578
4619,1384.614
4620,1389.009
4621,1378.754
4622,1376.560
4623,1406.596
4624,1421.246
4625,1391.210
4626,1400.736
4627,1435.166
4628,1440.290
4629,1429.307
4630,1441.026
4631,1401.465
4632,1418.316
4633,1399.271
4634,1389.745
4635,1419.044
4636,1383.885
4637,1416.114
4638,1393.404
4639,1384.614
4640,1413.921
4641,1397.806
4642,1372.894
4643,1361.174
4644,1383.149
4645,1397.070
4646,1380.219
4647,1339.928
4648,1341.393
4649,1347.982
4650,1367.034
4651,1368.499
4652,1350.920
4653,1328.209
4654,1360.438
4655,1318.683
4656,1356.779
4657,1309.893
4658,1315.016
4659,1328.937
4660,1343.587
4661,1372.894
4662,1356.043
4663,1348.718
4664,1347.253
4665,1396.333
4666,1379.490
4667,1419.044
4668,1378.754
4669,1426.377
4670,1405.860
4671,1423.447
4672,1402.201
4673,1378.025
4674,1375.824
4675,1351.648
4676,1376.560
4677,1334.797
4678,1336.999
4679,1350.183
4680,1317.946
4681,1320.148
4682,1312.087
4683,1327.472
4684,1335.534
4685,1358.244
4686,1321.613
4687,1317.946
4688,1336.262
4689,1356.043
4690,1371.429
4691,1329.674
4692,1338.464
4693,1340.657
4694,1387.544
4695,1376.560
4696,1386.079
4697,1354.578
4698,1365.569
4699,1383.885
4700,1377.289
4701,1363.368
4702,1373.623
4703,1392.675
4704,1410.254
4705,1413.184
4706,1378.025
4707,1413.921
4708,1380.219
4709,1374.359
4710,1413.184
4711,1404.395
4712,1385.350
4713,1408.789
4714,1401.465
4715,1391.939
4716,1419.044
4717,1374.359
4718,1419.781
4719,1391.210
4720,1415.386
4721,1384.614
4722,1416.851
4723,1380.219
4724,1393.404
4725,1419.044
4726,1389.009
4727,1380.219
4728,1403.666
4729,1418.316
4730,1383.149
4731,1375.824
4732,1377.289
4733,1386.815
4734,1399.271
4735,1413.921
4736,1367.034
4737,1405.131
4738,1392.675
4739,1405.131
4740,1392.675
4741,1358.973
4742,1383.885
4743,1394.140
4744,1357.508
4745,1347.982
4746,1383.149
4747,1330.402
4748,1375.824
4749,1356.779
4750,1331.867
4751,1346.517
4752,1331.867
4753,1318.683
4754,1329.674
4755,1356.779
4756,1359.709
4757,1332.604
4758,1349.447
4759,1310.622
4760,1288.647
4761,1322.341
4762,1309.157
4763,1313.551
4764,1275.455
4765,1275.455
4766,1252.744
4767,1293.042
4768,1275.455
4769,1243.954
4770,1279.857
4771,1248.349
4772,1243.954
4773,1247.620
4774,1291.577
4775,1270.331
4776,1276.920
4777,1304.762
4778,1314.288
4779,1310.622
4780,1273.990
4781,1306.963
4782,1321.613
4783,1300.367
4784,1304.762
4785,1304.033
4786,1331.139
4787,1325.271
4788,1288.647
4789,1331.867
4790,1293.042
4791,1326.007
4792,1328.937
4793,1308.428
4794,1314.288
4795,1305.498
4796,1313.551
4797,1338.464
4798,1341.393
4799,1345.052
4800,1356.043
4801,1334.797
4802,1368.499
4803,1328.209
4804,1370.693
4805,1367.763
4806,1333.332
4807,1371.429
4808,1329.674
4809,1358.244
4810,1370.693
4811,1331.139
4812,1357.508
4813,1372.894
4814,1333.332
4815,1379.490
4816,1369.964
4817,1364.833
4818,1336.262
4819,1375.824
4820,1349.447
4821,1341.393
4822,1364.833
4823,1383.149
4824,1345.788
4825,1345.788
4826,1347.982
4827,1369.228
4828,1389.745
4829,1386.815
4830,1345.052
4831,1344.323
4832,1345.788
4833,1345.788
4834,1362.639
4835,1389.745
4836,1370.693
4837,1355.314
4838,1384.614
4839,1379.490
4840,1390.474
4841,1408.061
4842,1406.596
4843,1370.693
4844,1405.131
4845,1419.044
4846,1387.544
4847,1413.921
4848,1410.254
4849,1372.894
4850,1415.386
4851,1379.490
4852,1362.639
4853,1356.043
4854,1351.648
4855,1358.973
4856,1373.623
4857,1380.955
4858,1371.429
4859,1367.034
4860,1339.192
4861,1365.569
4862,1383.885
4863,1383.149
4864,1369.964
4865,1345.788
4866,1392.675
4867,1358.973
4868,1357.508
4869,1389.009
4870,1380.955
4871,1361.174
4872,1380.219
4873,1389.745
4874,1388.280
4875,1389.745
4876,1410.254
4877,1397.070
4878,1399.271
4879,1383.149
4880,1416.851
4881,1384.614
4882,1407.325
4883,1394.869
4884,1413.921
4885,1373.623
4886,1370.693
4887,1411.719
4888,1382.420
4889,1383.885
4890,1388.280
4891,1377.289
4892,1373.623
4893,1395.605
4894,1364.833
4895,1406.596
4896,1366.298
4897,1389.745
4898,1374.359
4899,1375.095
4900,1375.095
4901,1383.149
4902,1418.316
4903,1424.175
4904,1418.316
4905,1427.842
4906,1429.307
4907,1408.789
4908,1385.350
4909,1395.605
4910,1426.377
4911,1380.955
4912,1378.025
4913,1374.359
4914,1397.070
4915,1378.754
4916,1408.789
4917,1402.201
4918,1397.070
4919,1352.384
4920,1389.745
4921,1372.894
4922,1369.964
4923,1368.499
4924,1378.025
4925,1356.779
4926,1356.043
4927,1343.587
4928,1368.499
4929,1358.244
4930,1347.982
4931,1316.481
4932,1325.271
4933,1321.613
4934,1317.218
4935,1325.271
4936,1310.622
4937,1265.936
4938,1301.832
4939,1294.507
4940,1253.480
4941,1272.525
4942,1301.832
4943,1254.209
4944,1298.166
4945,1268.130
4946,1271.796
4947,1287.911
4948,1273.261
4949,1318.683
4950,1297.437
4951,1323.806
4952,1328.937
4953,1334.069
4954,1301.095
4955,1330.402
4956,1293.042
4957,1339.192
4958,1317.946
4959,1337.727
4960,1293.042
4961,1331.867
4962,1298.166
4963,1336.999
4964,1305.498
4965,1338.464
4966,1302.560
4967,1293.771
4968,1330.402
4969,1341.393
4970,1346.517
4971,1331.139
4972,1304.762
4973,1354.578
4974,1315.016
4975,1347.253
4976,1341.393
4977,1361.174
4978,1363.368
4979,1363.368
4980,1363.368
4981,1361.903
4982,1355.314
4983,1361.903
4984,1357.508
4985,1353.113
4986,1347.982
4987,1316.481
4988,1365.569
4989,1318.683
4990,1364.833
4991,1328.937
4992,1361.174
4993,1369.964
4994,1375.824
4995,1378.025
4996,1369.228
4997,1339.192
4998,1385.350
4999,1364.833
5000,1347.253
5001,1379.490
5002,1388.280
5003,1394.869
5004,1401.465
5005,1392.675
5006,1380.219
5007,1380.955
5008,1367.034
5009,1410.991
5010,1380.955
5011,1409.526
5012,1394.140
5013,1376.560
5014,1399.271
5015,1403.666
5016,1400.000
5017,1419.781
5018,1378.754
5019,1402.201
5020,1429.307
5021,1400.736
5022,1392.675
5023,1418.316
5024,1403.666
5025,1372.894
5026,1351.648
5027,1364.104
5028,1372.894
5029,1328.937
5030,1310.622
5031,1335.534
5032,1295.236
5033,1320.876
5034,1301.832
5035,1323.078
5036,1308.428
5037,1308.428
5038,1318.683
5039,1314.288
5040,1340.657
5041,1345.788
5042,1353.113
5043,1373.623
5044,1346.517
5045,1367.034
5046,1389.009
5047,1402.201
5048,1395.605
5049,1417.579
5050,1380.955
5051,1424.912
5052,1427.842
5053,1423.447
5054,1439.561
5055,1427.842
5056,1408.061
5057,1447.623
5058,1414.649
5059,1433.702
5060,1413.921
5061,1438.096
5062,1426.377
5063,1415.386
5064,1410.991
5065,1421.246
5066,1438.096
5067,1397.070
5068,1411.719
5069,1389.009
5070,1387.544
5071,1394.140
5072,1391.939
5073,1402.930
5074,1427.105
5075,1426.377
5076,1404.395
5077,1380.955
5078,1407.325
5079,1420.509
5080,1406.596
5081,1413.921
5082,1377.289
5083,1397.806
5084,1380.219
5085,1374.359
5086,1399.271
5087,1363.368
5088,1364.104
5089,1379.490
5090,1331.867
5091,1373.623
5092,1362.639
5093,1359.709
5094,1358.244
5095,1323.078
5096,1309.893
5097,1340.657
5098,1356.043
5099,1336.999
5100,1316.481
5101,1322.341
5102,1315.016
5103,1307.692
5104,1344.323
5105,1338.464
5106,1298.902
5107,1315.016
5108,1280.586
5109,1282.051
5110,1249.085
5111,1216.120
5112,1239.559
5113,1201.463
5114,1199.269
5115,1189.014
5116,1212.454
5117,1194.138
5118,1216.848
5119,1206.594
5120,1219.778
5121,1272.525
5122,1248.349
5123,1279.857
5124,1243.954
5125,1265.200
5126,1296.701
5127,1260.076
5128,1296.701
5129,1291.577
5130,1308.428
5131,1282.787
5132,1296.701
5133,1343.587
5134,1309.893
5135,1323.806
5136,1351.648
5137,1331.867
5138,1356.779
5139,1348.718
5140,1377.289
5141,1362.639
5142,1405.860
5143,1373.623
5144,1398.535
5145,1404.395
5146,1372.158
5147,1364.833
5148,1366.298
5149,1397.806
5150,1361.174
5151,1358.244
5152,1398.535
5153,1353.113
5154,1394.140
5155,1350.920
5156,1366.298
5157,1379.490
5158,1345.788
5159,1393.404
5160,1383.885
5161,1361.174
5162,1383.885
5163,1358.973
5164,1397.070
5165,1352.384
5166,1384.614
5167,1386.815
5168,1356.043
5169,1361.903
5170,1388.280
5171,1401.465
5172,1400.736
5173,1364.833
5174,1356.779
5175,1390.474
5176,1394.869
5177,1379.490
5178,1389.745
5179,1401.465
5180,1360.438
5181,1361.174
5182,1358.973
5183,1386.079
5184,1401.465
5185,1358.973
5186,1394.140
5187,1362.639
5188,1401.465
5189,1392.675
5190,1395.605
5191,1372.894
5192,1366.298
5193,1379.490
5194,1326.007
5195,1310.622
5196,1337.727
5197,1324.543
5198,1266.665
5199,1299.630
5200,1268.866
5201,1271.796
5202,1295.236
5203,1299.630
5204,1293.042
5205,1317.218
5206,1329.674
5207,1301.095
5208,1313.551
5209,1342.122
5210,1339.192
5211,1349.447
5212,1361.903
5213,1397.070
5214,1397.806
5215,1400.000
5216,1430.772
5217,1438.825
5218,1426.377
5219,1410.254
5220,1416.851
5221,1405.131
5222,1435.166
5223,1427.105
5224,1425.640
5225,1400.736
5226,1421.246
5227,1409.526
5228,1433.702
5229,1417.579
5230,1419.781
5231,1425.640
5232,1420.509
5233,1397.806
5234,1383.149
5235,1421.982
5236,1383.149
5237,1411.719
5238,1401.465
5239,1415.386
5240,1413.184
5241,1410.254
5242,1386.079
5243,1378.025
5244,1378.754
5245,1384.614
5246,1395.605
5247,1393.404
5248,1407.325
5249,1408.061
5250,1410.991
5251,1376.560
5252,1369.964
5253,1407.325
5254,1367.034
5255,1402.201
5256,1385.350
5257,1355.314
5258,1352.384
5259,1353.113
5260,1347.253
5261,1353.113
5262,1389.745
5263,1341.393
5264,1384.614
5265,1368.499
5266,1354.578
5267,1375.095
5268,1367.763
5269,1337.727
5270,1364.104
5271,1375.095
5272,1367.034
5273,1378.754
5274,1377.289
5275,1381.684
5276,1331.139
5277,1371.429
5278,1353.113
5279,1364.833
5280,1336.262
5281,1356.043
5282,1347.982
5283,1311.358
5284,1292.306
5285,1334.069
5286,1279.857
5287,1321.613
5288,1318.683
5289,1320.148
5290,1315.753
5291,1301.095
5292,1269.595
5293,1295.972
5294,1317.218
5295,1317.946
5296,1325.271
5297,1319.411
5298,1305.498
5299,1299.630
5300,1326.007
5301,1336.262
5302,1292.306
5303,1328.937
5304,1342.858
5305,1327.472
5306,1345.052
5307,1334.069
5308,1339.192
5309,1329.674
5310,1316.481
5311,1303.297
5312,1345.052
5313,1302.560
5314,1352.384
5315,1337.727
5316,1321.613
5317,1335.534
5318,1326.744
5319,1352.384
5320,1360.438
5321,1361.903
5322,1363.368
5323,1357.508
5324,1361.903
5325,1352.384
5326,1345.052
5327,1325.271
5328,1320.876
5329,1336.262
5330,1356.043
5331,1352.384
5332,1337.727
5333,1335.534
5334,1334.069
5335,1323.806
5336,1369.964
5337,1342.858
5338,1353.113
5339,1336.262
5340,1375.095
5341,1332.604
5342,1346.517
5343,1375.095
5344,1375.095
5345,1379.490
5346,1342.122
5347,1342.122
5348,1335.534
5349,1335.534
5350,1350.183
5351,1359.709
5352,1365.569
5353,1356.779
5354,1339.192
5355,1367.034
5356,1386.815
5357,1346.517
5358,1385.350
5359,1388.280
5360,1364.104
5361,1401.465
5362,1398.535
5363,1383.149
5364,1391.210
5365,1394.869
5366,1356.043
5367,1384.614
5368,1386.815
5369,1330.402
5370,1364.104
5371,1340.657
5372,1309.893
5373,1356.043
5374,1309.157
5375,1339.192
5376,1324.543
5377,1352.384
5378,1358.973
5379,1367.763
5380,1364.833
5381,1403.666
5382,1367.034
5383,1391.939
5384,1415.386
5385,1430.772
5386,1436.631
5387,1446.158
5388,1426.377
5389,1416.851
5390,1454.211
5391,1432.965
5392,1415.386
5393,1422.710
5394,1438.825
5395,1432.965
5396,1413.921
5397,1415.386
5398,1414.649
5399,1442.491
5400,1435.895
5401,1398.535
5402,1419.044
5403,1390.474
5404,1375.095
5405,1394.140
5406,1406.596
5407,1362.639
5408,1385.350
5409,1357.508
5410,1394.140
5411,1367.763
5412,1353.113
5413,1376.560
5414,1361.903
5415,1378.025
5416,1364.833
5417,1358.244
5418,1373.623
5419,1367.763
5420,1378.754
5421,1391.210
5422,1372.894
5423,1376.560
5424,1414.649
5425,1391.210
5426,1378.754
5427,1380.219
5428,1393.404
5429,1396.333
5430,1405.131
5431,1400.736
5432,1370.693
5433,1356.043
5434,1386.079
5435,1379.490
5436,1375.824
5437,1369.964
5438,1330.402
5439,1352.384
5440,1320.148
5441,1365.569
5442,1346.517
5443,1345.788
5444,1359.709
5445,1347.253
5446,1347.253
5447,1363.368
5448,1353.849
5449,1361.174
5450,1358.973
5451,1353.113
5452,1316.481
5453,1326.744
5454,1277.656
5455,1260.076
5456,1289.376
5457,1287.911
5458,1276.191
5459,1230.769
5460,1219.050
5461,1215.384
5462,1216.120
5463,1263.735
5464,1216.120
5465,1235.901
5466,1227.103
5467,1274.726
5468,1286.446
5469,1271.796
5470,1252.744
5471,1252.015
5472,1282.051
5473,1306.227
5474,1285.717
5475,1302.560
5476,1320.148
5477,1324.543
5478,1321.613
5479,1301.832
5480,1324.543
5481,1301.095
5482,1316.481
5483,1303.297
5484,1311.358
5485,1343.587
5486,1320.876
5487,1333.332
5488,1303.297
5489,1341.393
5490,1328.209
5491,1347.253
5492,1310.622
5493,1359.709
5494,1317.946
5495,1360.438
5496,1314.288
5497,1338.464
5498,1310.622
5499,1354.578
5500,1326.744
5501,1309.893
5502,1353.849
5503,1336.262
5504,1301.832
5505,1349.447
5506,1348.718
5507,1328.937
5508,1308.428
5509,1342.858
5510,1316.481
5511,1304.762
5512,1322.341
5513,1343.587
5514,1354.578
5515,1355.314
5516,1347.253
5517,1328.937
5518,1336.999
5519,1359.709
5520,1359.709
5521,1390.474
5522,1354.578
5523,1386.079
5524,1397.806
5525,1387.544
5526,1366.298
5527,1380.219
5528,1387.544
5529,1380.219
5530,1417.579
5531,1402.201
5532,1432.965
5533,1418.316
5534,1408.061
5535,1438.825
5536,1414.649
5537,1410.254
5538,1424.175
5539,1391.939
5540,1394.140
5541,1397.806
5542,1380.219
5543,1376.560
5544,1369.964
5545,1394.869
5546,1397.070
5547,1378.754
5548,1347.982
5549,1375.824
5550,1348.718
5551,1345.052
5552,1354.578
5553,1347.982
5554,1381.684
5555,1389.745
5556,1358.973
5557,1365.569
5558,1405.860
5559,1386.815
5560,1372.894
5561,1419.781
5562,1383.149
5563,1386.079
5564,1389.009
5565,1391.210
5566,1434.430
5567,1417.579
5568,1405.860
5569,1394.869
5570,1402.201
5571,1415.386
5572,1389.009
5573,1389.009
5574,1410.254
5575,1420.509
5576,1378.025
5577,1419.044
5578,1381.684
5579,1399.271
5580,1419.044
5581,1425.640
5582,1389.745
5583,1389.009
5584,1408.789
5585,1421.982
5586,1421.246
5587,1422.710
5588,1402.930
5589,1391.939
5590,1399.271
5591,1416.114
5592,1435.166
5593,1406.596
5594,1405.860
5595,1427.105
5596,1419.781
5597,1399.271
5598,1391.939
5599,1420.509
5600,1406.596
5601,1410.991
5602,1361.174
5603,1401.465
5604,1381.684
5605,1369.964
5606,1388.280
5607,1354.578
5608,1337.727
5609,1353.849
5610,1367.763
5611,1315.016
5612,1341.393
5613,1346.517
5614,1311.358
5615,1317.218
5616,1352.384
5617,1329.674
5618,1320.148
5619,1347.982
5620,1311.358
5621,1333.332
5622,1296.701
5623,1303.297
5624,1285.717
5625,1275.455
5626,1310.622
5627,1289.376
5628,1297.437
5629,1241.024
5630,1232.971
5631,1227.103
5632,1225.638
5633,1243.954
5634,1264.471
5635,1264.471
5636,1232.971
5637,1271.796
5638,1227.103
5639,1227.840
5640,1238.831
5641,1272.525
5642,1240.296
5643,1276.191
5644,1295.972
5645,1292.306
5646,1298.166
5647,1271.796
5648,1259.340
5649,1302.560
5650,1282.787
5651,1262.270
5652,1308.428
5653,1283.516
5654,1268.866
5655,1298.166
5656,1260.805
5657,1283.516
5658,1304.762
5659,1258.611
5660,1260.805
5661,1265.936
5662,1284.252
5663,1313.551
5664,1307.692
5665,1267.401
5666,1271.796
5667,1287.911
5668,1280.586
5669,1279.121
5670,1331.139
5671,1316.481
5672,1320.148
5673,1315.016
5674,1334.069
5675,1306.227
5676,1346.517
5677,1358.244
5678,1347.982
5679,1339.928
5680,1346.517
5681,1372.158
5682,1378.754
5683,1381.684
5684,1380.955
5685,1356.043
5686,1402.930
5687,1411.719
5688,1397.806
5689,1402.930
5690,1430.035
5691,1425.640
5692,1405.860
5693,1430.035
5694,1451.281
5695,1419.781
5696,1454.211
5697,1418.316
5698,1442.491
5699,1464.466
5700,1432.237
5701,1435.895
5702,1449.816
5703,1452.017
5704,1450.552
5705,1476.922
5706,1487.177
5707,1490.107
5708,1453.482
5709,1483.518
5710,1451.281
5711,1446.158
5712,1443.956
5713,1437.360
5714,1457.877
5715,1439.561
5716,1428.570
5717,1427.842
5718,1431.500
5719,1408.789
5720,1430.772
5721,1403.666
5722,1389.009
5723,1402.930
5724,1407.325
5725,1425.640
5726,1419.044
5727,1417.579
5728,1420.509
5729,1397.806
5730,1394.869
5731,1375.824
5732,1376.560
5733,1389.009
5734,1393.404
5735,1380.219
5736,1402.201
5737,1379.490
5738,1406.596
5739,1391.939
5740,1383.885
5741,1365.569
5742,1367.763
5743,1371.429
5744,1361.903
5745,1386.815
5746,1389.009
5747,1353.849
5748,1390.474
5749,1364.833
5750,1359.709
5751,1362.639
5752,1387.544
5753,1387.544
5754,1383.885
5755,1379.490
5756,1389.745
5757,1354.578
5758,1402.930
5759,1364.104
5760,1404.395
5761,1408.061
5762,1394.869
5763,1406.596
5764,1413.921
5765,1416.114
5766,1416.851
5767,1416.114
5768,1415.386
5769,1387.544
5770,1372.894
5771,1408.061
5772,1397.070
5773,1381.684
5774,1367.034
5775,1391.210
5776,1401.465
5777,1400.000
5778,1361.903
5779,1356.043
5780,1389.009
5781,1378.025
5782,1367.034
5783,1348.718
5784,1345.788
5785,1339.928
5786,1366.298
5787,1336.999
5788,1333.332
5789,1331.867
5790,1375.095
5791,1360.438
5792,1361.174
5793,1313.551
5794,1293.042
5795,1326.007
5796,1266.665
5797,1255.681
5798,1265.936
5799,1249.085
5800,1260.805
5801,1208.795
5802,1246.155
5803,1235.901
5804,1238.831
5805,1194.138
5806,1225.638
5807,1207.322
5808,1250.550
5809,1260.076
5810,1254.209
5811,1276.191
5812,1246.884
5813,1267.401
5814,1276.191
5815,1266.665
5816,1275.455
5817,1248.349
5818,1283.516
5819,1247.620
5820,1283.516
5821,1289.376
5822,1254.945
5823,1287.182
5824,1245.419
5825,1271.060
5826,1290.112
5827,1298.166
5828,1292.306
5829,1298.166
5830,1264.471
5831,1271.796
5832,1273.990
5833,1282.787
5834,1283.516
5835,1271.796
5836,1284.981
5837,1277.656
5838,1312.087
5839,1287.911
5840,1312.087
5841,1334.797
5842,1306.963
5843,1344.323
5844,1339.928
5845,1364.104
5846,1371.429
5847,1334.797
5848,1356.779
5849,1393.404
5850,1355.314
5851,1378.025
5852,1389.745
5853,1384.614
5854,1411.719
5855,1392.675
5856,1432.965
5857,1413.184
5858,1409.526
5859,1408.061
5860,1429.307
5861,1429.307
5862,1405.860
5863,1419.044
5864,1432.237
5865,1429.307
5866,1434.430
5867,1451.281
5868,1426.377
5869,1410.991
5870,1409.526
5871,1421.982
5872,1448.351
5873,1409.526
5874,1442.491
5875,1429.307
5876,1412.456
5877,1418.316
5878,1453.482
5879,1445.421
5880,1432.237
5881,1408.061
5882,1447.623
5883,1415.386
5884,1395.605
5885,1383.149
5886,1398.535
5887,1362.639
5888,1345.052
5889,1368.499
5890,1324.543
5891,1312.823
5892,1307.692
5893,1306.227
5894,1301.095
5895,1333.332
5896,1348.718
5897,1308.428
5898,1323.806
5899,1315.016
5900,1358.244
5901,1373.623
5902,1357.508
5903,1342.858
5904,1371.429
5905,1370.693
5906,1383.149
5907,1389.745
5908,1367.034
5909,1383.149
5910,1407.325
5911,1411.719
5912,1380.219
5913,1372.894
5914,1375.095
5915,1379.490
5916,1389.009
5917,1391.939
5918,1418.316
5919,1374.359
5920,1396.333
5921,1372.894
5922,1374.359
5923,1385.350
5924,1392.675
5925,1375.824
5926,1378.025
5927,1394.140
5928,1370.693
5929,1391.939
5930,1411.719
5931,1412.456
5932,1405.131
5933,1421.246
5934,1388.280
5935,1390.474
5936,1413.184
5937,1385.350
5938,1426.377
5939,1391.939
5940,1386.815
5941,1430.772
5942,1426.377
5943,1421.246
5944,1424.912
5945,1380.219
5946,1417.579
5947,1381.684
5948,1374.359
5949,1385.350
5950,1413.184
5951,1380.219
5952,1380.955
5953,1402.930
5954,1388.280
5955,1347.982
5956,1379.490
5957,1342.858
5958,1380.955
5959,1386.079
5960,1388.280
5961,1336.999
5962,1375.095
5963,1378.025
5964,1347.982
5965,1350.183
5966,1315.016
5967,1301.832
5968,1331.867
5969,1317.218
5970,1284.252
5971,1293.771
5972,1246.155
5973,1236.629
5974,1223.445
5975,1219.778
5976,1259.340
5977,1209.524
5978,1246.884
5979,1251.279
5980,1249.085
5981,1254.945
5982,1216.848
5983,1252.744
5984,1254.209
5985,1222.708
5986,1243.225
5987,1239.559
5988,1284.252
5989,1252.015
5990,1279.857
5991,1297.437
5992,1282.051
5993,1260.076
5994,1282.051
5995,1309.893
5996,1317.946
5997,1281.322
5998,1279.857
5999,1317.946
6000,1323.806
6001,1331.139
6002,1334.069
6003,1345.788
6004,1340.657
6005,1356.043
6006,1352.384
6007,1323.078
6008,1369.228
6009,1364.104
6010,1379.490
6011,1358.244
6012,1369.228
6013,1347.982
6014,1389.009
6015,1379.490
6016,1350.920
6017,1397.806
6018,1356.043
6019,1394.140
6020,1369.964
6021,1364.833
6022,1402.201
6023,1373.623
6024,1403.666
6025,1412.456
6026,1402.201
6027,1371.429
6028,1371.429
6029,1386.815
6030,1399.271
6031,1409.526
6032,1383.149
6033,1368.499
6034,1365.569
6035,1410.991
6036,1376.560
6037,1361.903
6038,1372.894
6039,1383.149
6040,1398.535
6041,1360.438
6042,1358.973
6043,1389.009
6044,1385.350
6045,1383.149
6046,1343.587
6047,1382.420
6048,1380.955
6049,1342.122
6050,1347.982
6051,1322.341
6052,1311.358
6053,1326.007
6054,1348.718
6055,1327.472
6056,1319.411
6057,1294.507
6058,1306.963
6059,1317.218
6060,1307.692
6061,1328.937
6062,1318.683
6063,1336.999
6064,1335.534
6065,1372.158
6066,1394.140
6067,1389.745
6068,1399.271
6069,1405.860
6070,1415.386
6071,1428.570
6072,1391.939
6073,1424.175
6074,1405.131
6075,1404.395
6076,1408.061
6077,1423.447
6078,1435.895
6079,1445.421
6080,1406.596
6081,1446.886
6082,1416.851
6083,1403.666
6084,1399.271
6085,1397.070
6086,1406.596
6087,1423.447
6088,1424.912
6089,1404.395
6090,1386.815
6091,1378.754
6092,1397.070
6093,1409.526
6094,1386.815
6095,1370.693
6096,1410.254
6097,1408.789
6098,1403.666
6099,1405.131
6100,1382.420
6101,1391.939
6102,1398.535
6103,1361.903
6104,1371.429
6105,1397.806
6106,1357.508
6107,1380.955
6108,1393.404
6109,1355.314
6110,1368.499
6111,1380.955
6112,1360.438
6113,1371.429
6114,1365.569
6115,1393.404
6116,1389.745
6117,1385.350
6118,1369.964
6119,1367.034
6120,1348.718
6121,1342.858
6122,1367.034
6123,1374.359
6124,1367.034
6125,1369.228
6126,1365.569
6127,1360.438
6128,1323.078
6129,1320.148
6130,1309.157
6131,1308.428
6132,1340.657
6133,1359.709
6134,1357.508
6135,1360.438
6136,1350.920
6137,1323.078
6138,1316.481
6139,1355.314
6140,1319.411
6141,1301.832
6142,1320.876
6143,1330.402
6144,1302.560
6145,1298.902
6146,1328.937
6147,1307.692
6148,1314.288
6149,1311.358
6150,1307.692
6151,1304.762
6152,1294.507
6153,1261.541
6154,1270.331
6155,1277.656
6156,1297.437
6157,1279.857
6158,1292.306
6159,1278.385
6160,1278.385
6161,1312.087
6162,1305.498
6163,1295.972
6164,1280.586
6165,1322.341
6166,1276.920
6167,1282.051
6168,1324.543
6169,1295.236
6170,1334.797
6171,1309.893
6172,1312.087
6173,1315.016
6174,1348.718
6175,1326.007
6176,1336.262
6177,1313.551
6178,1323.078
6179,1350.183
6180,1372.158
6181,1328.209
6182,1331.139
6183,1347.982
6184,1356.779
6185,1350.920
6186,1386.079
6187,1385.350
6188,1347.253
6189,1377.289
6190,1378.754
6191,1388.280
6192,1367.034
6193,1361.174
6194,1397.070
6195,1389.009
6196,1364.833
6197,1358.973
6198,1398.535
6199,1380.219
6200,1357.508
6201,1386.815
6202,1378.754
6203,1375.824
6204,1396.333
6205,1358.973
6206,1402.930
6207,1375.824
6208,1362.639
6209,1377.289
6210,1380.219
6211,1378.754
6212,1387.544
6213,1377.289
6214,1355.314
6215,1358.244
6216,1380.955
6217,1359.709
6218,1352.384
6219,1358.244
6220,1370.693
6221,1376.560
6222,1388.280
6223,1394.140
6224,1393.404
6225,1390.474
6226,1373.623
6227,1349.447
6228,1350.920
6229,1350.920
6230,1381.684
6231,1369.228
6232,1353.849
6233,1350.183
6234,1366.298
6235,1361.174
6236,1321.613
6237,1313.551
6238,1326.744
6239,1360.438
6240,1322.341
6241,1358.244
6242,1328.937
6243,1331.139
6244,1369.228
6245,1345.788
6246,1381.684
6247,1343.587
6248,1361.903
6249,1371.429
6250,1353.849
6251,1372.158
6252,1378.025
6253,1387.544
6254,1372.158
6255,1367.763
6256,1410.991
6257,1373.623
6258,1419.781
6259,1395.605
6260,1416.851
6261,1405.131
6262,1381.684
6263,1423.447
6264,1397.070
6265,1415.386
6266,1391.210
6267,1422.710
6268,1378.754
6269,1409.526
6270,1420.509
6271,1379.490
6272,1403.666
6273,1424.175
6274,1386.079
6275,1387.544
6276,1408.789
6277,1419.781
6278,1417.579
6279,1389.745
6280,1393.404
6281,1398.535
6282,1394.140
6283,1395.605
6284,1399.271
6285,1409.526
6286,1429.307
6287,1389.009
6288,1426.377
6289,1424.912
6290,1403.666
6291,1378.025
6292,1377.289
6293,1372.894
6294,1389.009
6295,1368.499
6296,1364.833
6297,1393.404
6298,1375.824
6299,1369.228
6300,1387.544
6301,1335.534
6302,1379.490
6303,1361.903
6304,1334.797
6305,1323.806
6306,1359.709
6307,1337.727
6308,1334.797
6309,1355.314
6310,1342.122
6311,1350.183
6312,1338.464
6313,1354.578
6314,1301.095
6315,1341.393
6316,1337.727
6317,1283.516
6318,1322.341
6319,1271.796
6320,1285.717
6321,1290.112
6322,1280.586
6323,1254.945
6324,1254.945
6325,1268.130
6326,1261.541
6327,1257.146
6328,1256.410
6329,1302.560
6330,1293.042
6331,1272.525
6332,1271.796
6333,1315.016
6334,1287.911
6335,1297.437
6336,1317.946
6337,1313.551
6338,1278.385
6339,1289.376
6340,1320.876
6341,1323.806
6342,1323.806
6343,1304.033
6344,1292.306
6345,1334.797
6346,1315.753
6347,1341.393
6348,1345.052
6349,1306.963
6350,1349.447
6351,1317.218
6352,1318.683
6353,1326.744
6354,1371.429
6355,1328.937
6356,1376.560
6357,1381.684
6358,1369.964
6359,1383.885
6360,1387.544
6361,1388.280
6362,1381.684
6363,1380.219
6364,1364.104
6365,1356.779
6366,1350.183
6367,1347.253
6368,1378.025
6369,1375.095
6370,1347.253
6371,1346.517
6372,1356.779
6373,1386.815
6374,1356.779
6375,1369.964
6376,1376.560
6377,1342.122
6378,1347.982
6379,1338.464
6380,1350.920
6381,1368.499
6382,1366.298
6383,1343.587
6384,1326.744
6385,1334.797
6386,1353.849
6387,1321.613
6388,1313.551
6389,1349.447
6390,1344.323
6391,1351.648
6392,1343.587
6393,1358.244
6394,1353.849
6395,1346.517
6396,1360.438
6397,1389.745
6398,1352.384
6399,1385.350
6400,1345.052
6401,1358.973
6402,1367.034
6403,1365.569
6404,1346.517
6405,1355.314
6406,1386.079
6407,1349.447
6408,1349.447
6409,1361.174
6410,1350.920
6411,1376.560
6412,1391.939
6413,1358.244
6414,1386.079
6415,1360.438
6416,1364.104
6417,1375.824
6418,1396.333
6419,1400.736
6420,1367.763
6421,1370.693
6422,1365.569
6423,1368.499
6424,1367.034
6425,1366.298
6426,1378.754
6427,1395.605
6428,1413.184
6429,1378.025
6430,1367.034
6431,1403.666
6432,1412.456
6433,1364.833
6434,1379.490
6435,1408.789
6436,1377.289
6437,1364.833
6438,1402.930
6439,1362.639
6440,1374.359
6441,1406.596
6442,1381.684
6443,1363.368
6444,1378.754
6445,1394.140
6446,1409.526
6447,1374.359
6448,1389.009
6449,1400.736
6450,1411.719
6451,1406.596
6452,1389.009
6453,1368.499
6454,1411.719
6455,1400.736
6456,1390.474
6457,1378.025
6458,1380.219
6459,1397.806
6460,1414.649
6461,1378.754
6462,1397.806
6463,1391.939
6464,1383.885
6465,1364.104
6466,1375.824
6467,1404.395
6468,1385.350
6469,1392.675
6470,1354.578
6471,1395.605
6472,1371.429
6473,1380.955
6474,1383.885
6475,1377.289
6476,1342.122
6477,1340.657
6478,1364.833
6479,1375.824
6480,1385.350
6481,1353.849
6482,1339.192
6483,1354.578
6484,1383.149
6485,1372.158
6486,1361.174
6487,1334.797
6488,1335.534
6489,1322.341
6490,1316.481
6491,1326.744
6492,1278.385
6493,1271.796
6494,1263.006
6495,1286.446
6496,1301.832
6497,1291.577
6498,1298.902
6499,1299.630
6500,1279.857
6501,1263.006
6502,1292.306
6503,1293.771
6504,1297.437
6505,1294.507
6506,1287.911
6507,1300.367
6508,1322.341
6509,1320.148
6510,1336.262
6511,1335.534
6512,1304.762
6513,1342.858
6514,1317.946
6515,1336.999
6516,1300.367
6517,1309.893
6518,1336.999
6519,1344.323
6520,1315.016
6521,1353.113
6522,1359.709
6523,1343.587
6524,1317.946
6525,1322.341
6526,1324.543
6527,1337.727
6528,1330.402
6529,1321.613
6530,1325.271
6531,1324.543
6532,1322.341
6533,1326.744
6534,1352.384
6535,1370.693
6536,1335.534
6537,1364.833
6538,1351.648
6539,1336.999
6540,1368.499
6541,1383.885
6542,1338.464
6543,1379.490
6544,1342.122
6545,1358.973
6546,1364.833
6547,1383.149
6548,1386.079
6549,1375.824
6550,1352.384
6551,1374.359
6552,1378.754
6553,1373.623
6554,1376.560
6555,1370.693
6556,1352.384
6557,1328.209
6558,1336.999
6559,1358.244
6560,1329.674
6561,1359.709
6562,1315.753
6563,1362.639
6564,1322.341
6565,1327.472
6566,1340.657
6567,1369.228
6568,1364.104
6569,1360.438
6570,1365.569
6571,1376.560
6572,1376.560
6573,1328.209
6574,1372.894
6575,1342.858
6576,1356.779
6577,1364.833
6578,1323.078
6579,1311.358
6580,1334.797
6581,1335.534
6582,1326.744
6583,1311.358
6584,1359.709
6585,1316.481
6586,1339.928
6587,1358.973
6588,1328.937
6589,1367.034
6590,1381.684
6591,1361.174
6592,1379.490
6593,1382.420
6594,1374.359
6595,1361.903
6596,1380.219
6597,1386.079
6598,1383.149
6599,1382.420
6600,1375.824
6601,1400.000
6602,1403.666
6603,1413.184
6604,1390.474
6605,1389.745
6606,1382.420
6607,1393.404
6608,1425.640
6609,1421.246
6610,1417.579
6611,1419.044
6612,1406.596
6613,1389.745
6614,1416.114
6615,1425.640
6616,1422.710
6617,1403.666
6618,1380.955
6619,1405.131
6620,1402.930
6621,1419.781
6622,1405.860
6623,1400.000
6624,1383.149
6625,1408.789
6626,1395.605
6627,1424.912
6628,1425.640
6629,1407.325
6630,1401.465
6631,1388.280
6632,1382.420
6633,1398.535
6634,1398.535
6635,1413.184
6636,1409.526
6637,1390.474
6638,1389.009
6639,1372.158
6640,1382.420
6641,1387.544
6642,1353.113
6643,1375.095
6644,1346.517
6645,1334.797
6646,1346.517
6647,1366.298
6648,1319.411
6649,1364.104
6650,1320.876
6651,1358.973
6652,1341.393
6653,1312.087
6654,1360.438
6655,1342.858
6656,1316.481
6657,1355.314
6658,1355.314
6659,1359.709
6660,1337.727
6661,1315.016
6662,1347.982
6663,1345.788
6664,1292.306
6665,1335.534
6666,1328.209
6667,1273.261
6668,1304.033
6669,1271.796
6670,1290.112
6671,1248.349
6672,1284.252
6673,1281.322
6674,1272.525
6675,1266.665
6676,1247.620
6677,1234.436
6678,1264.471
6679,1264.471
6680,1282.051
6681,1285.717
6682,1284.981
6683,1243.225
6684,1257.146
6685,1290.841
6686,1301.832
6687,1304.033
6688,1265.200
6689,1306.963
6690,1309.893
6691,1307.692
6692,1301.095
6693,1301.095
6694,1309.157
6695,1321.613
6696,1332.604
6697,1301.095
6698,1339.192
6699,1308.428
6700,1301.095
6701,1334.069
6702,1353.113
6703,1346.517
6704,1361.174
6705,1357.508
6706,1357.508
6707,1330.402
6708,1370.693
6709,1347.982
6710,1341.393
6711,1358.973
6712,1344.323
6713,1375.824
6714,1396.333
6715,1382.420
6716,1365.569
6717,1386.079
6718,1368.499
6719,1405.860
6720,1378.025
6721,1385.350
6722,1397.070
6723,1384.614
6724,1364.833
6725,1400.000
6726,1372.158
6727,1405.860
6728,1389.009
6729,1376.560
6730,1365.569
6731,1357.508
6732,1359.709
6733,1385.350
6734,1390.474
6735,1356.779
6736,1383.885
6737,1351.648
6738,1348.718
6739,1353.849
6740,1389.009
6741,1393.404
6742,1361.903
6743,1388.280
6744,1383.885
6745,1359.709
6746,1345.052
6747,1327.472
6748,1341.393
6749,1331.139
6750,1291.577
6751,1319.411
6752,1329.674
6753,1332.604
6754,1301.832
6755,1301.095
6756,1323.806
6757,1335.534
6758,1353.849
6759,1355.314
6760,1370.693
6761,1375.095
6762,1386.815
6763,1396.333
6764,1424.175
6765,1404.395
6766,1408.789
6767,1451.281
6768,1417.579
6769,1443.956
6770,1452.746
6771,1464.466
6772,1433.702
6773,1432.965
6774,1437.360
6775,1445.421
6776,1448.351
6777,1430.035
6778,1438.096
6779,1465.202
6780,1431.500
6781,1422.710
6782,1442.491
6783,1416.851
6784,1449.087
6785,1415.386
6786,1407.325
6787,1400.000
6788,1436.631
6789,1391.210
6790,1432.237
6791,1389.009
6792,1419.044
6793,1398.535
6794,1386.815
6795,1393.404
6796,1420.509
6797,1414.649
6798,1405.131
6799,1425.640
6800,1398.535
6801,1380.955
6802,1416.114
6803,1379.490
6804,1407.325
6805,1417.579
6806,1372.894
6807,1383.885
6808,1397.806
6809,1389.009
6810,1384.614
6811,1403.666
6812,1372.894
6813,1389.745
6814,1367.034
6815,1386.079
6816,1370.693
6817,1346.517
6818,1364.833
6819,1323.078
6820,1359.709
6821,1347.982
6822,1350.920
6823,1323.078
6824,1307.692
6825,1345.788
6826,1304.033
6827,1330.402
6828,1302.560
6829,1337.727
6830,1327.472
6831,1333.332
6832,1290.841
6833,1323.078
6834,1330.402
6835,1275.455
6836,1314.288
6837,1279.121
6838,1283.516
6839,1244.690
6840,1238.831
6841,1239.559
6842,1233.699
6843,1252.744
6844,1263.006
6845,1273.261
6846,1264.471
6847,1231.498
6848,1230.033
6849,1284.252
6850,1246.155
6851,1261.541
6852,1267.401
6853,1295.972
6854,1281.322
6855,1295.972
6856,1281.322
6857,1317.218
6858,1309.893
6859,1314.288
6860,1325.271
6861,1290.112
6862,1328.209
6863,1317.218
6864,1307.692
6865,1320.148
6866,1308.428
6867,1349.447
6868,1361.903
6869,1364.833
6870,1360.438
6871,1371.429
6872,1369.228
6873,1367.034
6874,1340.657
6875,1339.192
6876,1352.384
6877,1372.894
6878,1370.693
6879,1372.158
6880,1373.623
6881,1330.402
6882,1340.657
6883,1370.693
6884,1331.139
6885,1345.052
6886,1354.578
6887,1331.867
6888,1331.139
6889,1323.806
6890,1341.393
6891,1362.639
6892,1375.095
6893,1349.447
6894,1366.298
6895,1373.623
6896,1336.999
6897,1375.095
6898,1364.833
6899,1369.964
6900,1370.693
6901,1355.314
6902,1384.614
6903,1386.079
6904,1347.253
6905,1353.849
6906,1372.894
6907,1380.219
6908,1348.718
6909,1384.614
6910,1378.754
6911,1374.359
6912,1387.544
6913,1362.639
6914,1351.648
6915,1384.614
6916,1366.298
6917,1389.745
6918,1375.824
6919,1382.420
6920,1334.069
6921,1375.824
6922,1342.858
6923,1344.323
6924,1353.849
6925,1356.779
6926,1307.692
6927,1335.534
6928,1356.043
6929,1323.806
6930,1362.639
6931,1358.973
6932,1347.982
6933,1381.684
6934,1380.955
6935,1358.244
6936,1408.789
6937,1391.210
6938,1380.219
6939,1395.605
6940,1432.965
6941,1414.649
6942,1421.982
6943,1443.956
6944,1426.377
6945,1411.719
6946,1448.351
6947,1438.825
6948,1419.044
6949,1422.710
6950,1450.552
6951,1436.631
6952,1420.509
6953,1420.509
6954,1438.096
6955,1432.965
6956,1398.535
6957,1435.166
6958,1421.246
6959,1408.061
6960,1392.675
6961,1397.806
6962,1420.509
6963,1409.526
6964,1397.806
6965,1370.693
6966,1372.894
6967,1402.930
6968,1373.623
6969,1378.754
6970,1412.456
6971,1410.254
6972,1377.289
6973,1378.025
6974,1405.860
6975,1411.719
6976,1416.114
6977,1417.579
6978,1413.921
6979,1408.061
6980,1420.509
6981,1398.535
6982,1375.095
6983,1395.605
6984,1417.579
6985,1404.395
6986,1417.579
6987,1415.386
6988,1402.201
6989,1383.149
6990,1412.456
6991,1362.639
6992,1371.429
6993,1366.298
6994,1383.885
6995,1375.824
6996,1347.253
6997,1362.639
6998,1369.228
6999,1386.815
7000,1378.754
7001,1379.490
7002,1384.614
7003,1364.104
7004,1360.438
7005,1376.560
7006,1334.797
7007,1349.447
7008,1337.727
7009,1350.183
7010,1325.271
7011,1276.191
7012,1312.823
7013,1297.437
7014,1253.480
7015,1267.401
7016,1268.130
7017,1252.015
7018,1243.954
7019,1202.928
7020,1232.971
7021,1208.059
7022,1202.928
7023,1242.489
7024,1241.024
7025,1224.910
7026,1241.024
7027,1270.331
7028,1227.840
7029,1232.971
7030,1260.076
7031,1285.717
7032,1251.279
7033,1241.761
7034,1279.121
7035,1285.717
7036,1282.787
7037,1284.981
7038,1279.121
7039,1282.787
7040,1262.270
7041,1268.866
7042,1285.717
7043,1268.130
7044,1254.209
7045,1263.735
7046,1276.191
7047,1284.252
7048,1269.595
7049,1320.148
7050,1328.937
7051,1325.271
7052,1345.788
7053,1332.604
7054,1362.639
7055,1364.833
7056,1350.920
7057,1371.429
7058,1352.384
7059,1399.271
7060,1372.894
7061,1404.395
7062,1415.386
7063,1418.316
7064,1400.000
7065,1390.474
7066,1432.237
7067,1435.895
7068,1428.570
7069,1405.860
7070,1435.895
7071,1397.070
7072,1421.246
7073,1439.561
7074,1397.806
7075,1398.535
7076,1430.035
7077,1432.965
7078,1430.035
7079,1429.307
7080,1432.965
7081,1428.570
7082,1389.009
7083,1419.044
7084,1383.885
7085,1427.842
7086,1409.526
7087,1389.009
7088,1421.982
7089,1400.000
7090,1391.939
7091,1432.965
7092,1400.000
7093,1394.869
7094,1372.158
7095,1371.429
7096,1405.131
7097,1394.869
7098,1349.447
7099,1372.158
7100,1326.007
7101,1320.148
7102,1327.472
7103,1359.709
7104,1309.157
7105,1326.007
7106,1344.323
7107,1332.604
7108,1328.209
7109,1320.148
7110,1323.078
7111,1356.779
7112,1338.464
7113,1342.122
7114,1366.298
7115,1357.508
7116,1380.219
7117,1383.149
7118,1371.429
7119,1417.579
7120,1386.079
7121,1416.114
7122,1402.930
7123,1407.325
7124,1389.009
7125,1427.842
7126,1398.535
7127,1401.465
7128,1422.710
7129,1383.149
7130,1426.377
7131,1406.596
7132,1389.745
7133,1380.955
7134,1408.789
7135,1413.921
7136,1389.745
7137,1383.885
7138,1422.710
7139,1394.869
7140,1413.921
7141,1421.982
7142,1397.070
7143,1400.736
7144,1404.395
7145,1396.333
7146,1429.307
7147,1391.939
7148,1427.842
7149,1389.009
7150,1397.070
7151,1423.447
7152,1424.912
7153,1408.789
7154,1383.885
7155,1392.675
7156,1417.579
7157,1386.815
7158,1372.894
7159,1375.095
7160,1392.675
7161,1368.499
7162,1390.474
7163,1352.384
7164,1386.079
7165,1388.280
7166,1374.359
7167,1373.623
7168,1377.289
7169,1358.244
7170,1342.122
7171,1392.675
7172,1364.104
7173,1402.201
7174,1405.860
7175,1367.034
7176,1418.316
7177,1415.386
7178,1375.824
7179,1417.579
7180,1386.815
7181,1399.271
7182,1378.025
7183,1380.219
7184,1333.332
7185,1315.016
7186,1305.498
7187,1287.182
7188,1284.981
7189,1275.455
7190,1304.033
7191,1294.507
7192,1254.209
7193,1303.297
7194,1281.322
7195,1256.410
7196,1295.972
7197,1308.428
7198,1275.455
7199,1264.471
7200,1270.331
7201,1266.665
7202,1304.033
7203,1309.157
7204,1317.218
7205,1310.622
7206,1296.701
7207,1282.051
7208,1276.920
7209,1276.920
7210,1276.191
7211,1273.990
7212,1277.656
7213,1326.007
7214,1293.042
7215,1286.446
7216,1302.560
7217,1307.692
7218,1342.122
7219,1336.262
7220,1340.657
7221,1303.297
7222,1353.113
7223,1303.297
7224,1350.920
7225,1345.052
7226,1317.218
7227,1320.876
7228,1349.447
7229,1307.692
7230,1350.183
7231,1306.963
7232,1338.464
7233,1336.262
7234,1354.578
7235,1345.788
7236,1333.332
7237,1336.999
7238,1319.411
7239,1323.806
7240,1372.894
7241,1353.849
7242,1350.183
7243,1353.113
7244,1356.779
7245,1345.788
7246,1394.140
7247,1377.289
7248,1376.560
7249,1375.095
7250,1405.131
7251,1404.395
7252,1411.719
7253,1413.921
7254,1378.025
7255,1399.271
7256,1421.982
7257,1387.544
7258,1389.009
7259,1419.044
7260,1431.500
7261,1430.035
7262,1445.421
7263,1405.131
7264,1433.702
7265,1424.175
7266,1440.290
7267,1397.806
7268,1403.666
7269,1397.806
7270,1397.070
7271,1357.508
7272,1363.368
7273,1372.894
7274,1372.158
7275,1361.174
7276,1339.192
7277,1317.218
7278,1313.551
7279,1297.437
7280,1287.911
7281,1332.604
7282,1339.192
7283,1331.139
7284,1332.604
7285,1303.297
7286,1320.876
7287,1318.683
7288,1368.499
7289,1326.007
7290,1331.867
7291,1367.034
7292,1339.192
7293,1369.964
7294,1383.149
7295,1396.333
7296,1397.806
7297,1397.806
7298,1396.333
7299,1356.043
7300,1372.158
7301,1395.605
7302,1360.438
7303,1402.201
7304,1362.639
7305,1371.429
7306,1366.298
7307,1414.649
7308,1378.754
7309,1418.316
7310,1411.719
7311,1411.719
7312,1390.474
7313,1429.307
7314,1410.254
7315,1417.579
7316,1438.825
7317,1435.895
7318,1432.965
7319,1432.237
7320,1421.246
7321,1413.184
7322,1452.017
7323,1447.623
7324,1435.166
7325,1457.141
7326,1411.719
7327,1452.017
7328,1432.237
7329,1441.026
7330,1424.175
7331,1426.377
7332,1425.640
7333,1417.579
7334,1403.666
7335,1388.280
7336,1386.079
7337,1378.025
7338,1353.849
7339,1342.858
7340,1367.763
7341,1345.788
7342,1356.043
7343,1360.438
7344,1324.543
7345,1366.298
7346,1364.104
7347,1346.517
7348,1361.903
7349,1361.174
7350,1361.903
7351,1367.034
7352,1350.183
7353,1371.429
7354,1367.034
7355,1346.517
7356,1351.648
7357,1295.972
7358,1281.322
7359,1320.148
7360,1295.236
7361,1250.550
7362,1244.690
7363,1232.971
7364,1271.060
7365,1259.340
7366,1238.831
7367,1213.190
7368,1232.234
7369,1246.884
7370,1254.209
7371,1256.410
7372,1242.489
7373,1249.085
7374,1247.620
7375,1248.349
7376,1247.620
7377,1219.050
7378,1197.804
7379,1245.419
7380,1239.559
7381,1254.945
7382,1219.050
7383,1265.936
7384,1274.726
7385,1268.866
7386,1289.376
7387,1293.771
7388,1324.543
7389,1298.902
7390,1303.297
7391,1343.587
7392,1328.937
7393,1358.244
7394,1357.508
7395,1372.158
7396,1388.280
7397,1391.939
7398,1389.745
7399,1389.009
7400,1434.430
7401,1397.806
7402,1424.912
7403,1425.640
7404,1407.325
7405,1400.000
7406,1419.044
7407,1437.360
7408,1404.395
7409,1442.491
7410,1433.702
7411,1416.851
7412,1408.061
7413,1413.921
7414,1431.500
7415,1424.912
7416,1430.035
7417,1391.210
7418,1389.745
7419,1421.246
7420,1416.114
7421,1388.280
7422,1378.025
7423,1403.666
7424,1385.350
7425,1411.719
7426,1389.745
7427,1398.535
7428,1391.939
7429,1382.420
7430,1359.709
7431,1328.937
7432,1355.314
7433,1324.543
7434,1312.087
7435,1316.481
7436,1263.735
7437,1269.595
7438,1268.130
7439,1244.690
7440,1280.586
7441,1230.033
7442,1254.209
7443,1267.401
7444,1271.060
7445,1245.419
7446,1241.761
7447,1263.735
7448,1268.130
7449,1315.753
7450,1297.437
7451,1303.297
7452,1311.358
7453,1343.587
7454,1361.903
7455,1337.727
7456,1393.404
7457,1391.939
7458,1374.359
7459,1380.219
7460,1394.869
7461,1402.930
7462,1438.096
7463,1438.825
7464,1445.421
7465,1419.781
7466,1439.561
7467,1432.237
7468,1416.114
7469,1458.606
7470,1450.552
7471,1420.509
7472,1460.807
7473,1434.430
7474,1449.087
7475,1432.965
7476,1463.001
7477,1436.631
7478,1430.035
7479,1424.912
7480,1421.982
7481,1433.702
7482,1454.211
7483,1419.044
7484,1413.921
7485,1404.395
7486,1407.325
7487,1403.666
7488,1414.649
7489,1399.271
7490,1416.114
7491,1438.825
7492,1395.605
7493,1432.965
7494,1408.789
7495,1391.939
7496,1408.789
7497,1387.544
7498,1403.666
7499,1409.526
7500,1419.044
7501,1375.824
7502,1382.420
7503,1369.964
7504,1408.061
7505,1391.210
7506,1397.806
7507,1404.395
7508,1369.964
7509,1356.043
7510,1397.806
7511,1351.648
7512,1376.560
7513,1396.333
7514,1389.009
7515,1358.973
7516,1372.894
7517,1391.210
7518,1345.052
7519,1386.079
7520,1343.587
7521,1374.359
7522,1334.069
7523,1334.797
7524,1338.464
7525,1302.560
7526,1289.376
7527,1252.015
7528,1250.550
7529,1235.164
7530,1191.208
7531,1169.962
7532,1175.822
7533,1158.971
7534,1143.593
7535,1105.496
7536,1098.900
7537,1117.216
7538,1098.900
7539,1104.031
7540,1136.996
7541,1131.865
7542,1126.742
7543,1167.768
7544,1164.838
7545,1232.971
7546,1251.279
7547,1252.015
7548,1303.297
7549,1296.701
7550,1299.630
7551,1338.464
7552,1379.490
7553,1385.350
7554,1417.579
7555,1405.860
7556,1410.991
7557,1429.307
7558,1457.141
7559,1447.623
7560,1461.536
7561,1461.536
7562,1455.676
7563,1482.782
7564,1495.974
7565,1496.703
7566,1493.044
7567,1460.807
7568,1485.712
7569,1465.202
7570,1470.333
7571,1479.852
7572,1442.491
7573,1474.728
7574,1459.342
7575,1463.001
7576,1420.509
7577,1437.360
7578,1446.886
7579,1445.421
7580,1416.114
7581,1397.070
7582,1386.815
7583,1394.140
7584,1419.781
7585,1389.745
7586,1397.806
7587,1402.930
7588,1369.228
7589,1402.930
7590,1369.964
7591,1377.289
7592,1389.745
7593,1346.517
7594,1351.648
7595,1342.858
7596,1370.693
7597,1365.569
7598,1356.043
7599,1334.797
7600,1352.384
7601,1369.964
7602,1322.341
7603,1364.833
7604,1364.104
7605,1341.393
7606,1332.604
7607,1343.587
7608,1291.577
7609,1331.867
7610,1327.472
7611,1315.753
7612,1272.525
7613,1289.376
7614,1293.042
7615,1292.306
7616,1275.455
7617,1301.832
7618,1265.936
7619,1311.358
7620,1272.525
7621,1279.121
7622,1319.411
7623,1314.288
7624,1321.613
7625,1356.779
7626,1321.613
7627,1356.779
7628,1372.158
7629,1382.420
7630,1365.569
7631,1388.280
7632,1399.271
7633,1380.955
7634,1431.500
7635,1391.210
7636,1411.719
7637,1432.965
7638,1409.526
7639,1440.290
7640,1412.456
7641,1400.736
7642,1443.220
7643,1407.325
7644,1398.535
7645,1418.316
7646,1420.509
7647,1411.719
7648,1392.675
7649,1408.789
7650,1382.420
7651,1396.333
7652,1416.851
7653,1406.596
7654,1376.560
7655,1419.044
7656,1400.736
7657,1378.754
7658,1421.982
7659,1380.219
7660,1419.044
7661,1380.955
7662,1425.640
7663,1386.815
7664,1392.675
7665,1415.386
7666,1418.316
7667,1430.035
7668,1386.079
7669,1408.789
7670,1384.614
7671,1425.640
7672,1396.333
7673,1400.736
7674,1410.254
7675,1386.079
7676,1386.079
7677,1371.429
7678,1410.254
7679,1405.860
7680,1381.684
7681,1378.754
7682,1354.578
7683,1358.973
7684,1346.517
7685,1367.763
7686,1332.604
7687,1376.560
7688,1368.499
7689,1326.007
7690,1340.657
7691,1367.034
7692,1324.543
7693,1364.104
7694,1345.052
7695,1361.903
7696,1311.358
7697,1334.069
7698,1346.517
7699,1293.771
7700,1326.007
7701,1277.656
7702,1318.683
7703,1297.437
7704,1259.340
7705,1241.024
7706,1243.954
7707,1277.656
7708,1234.436
7709,1270.331
7710,1235.164
7711,1219.050
7712,1256.410
7713,1264.471
7714,1235.164
7715,1226.375
7716,1263.006
7717,1276.191
7718,1268.130
7719,1260.805
7720,1229.304
7721,1274.726
7722,1249.814
7723,1265.936
7724,1234.436
7725,1279.121
7726,1235.164
7727,1239.559
7728,1248.349
7729,1269.595
7730,1283.516
7731,1263.735
7732,1277.656
7733,1299.630
7734,1284.252
7735,1308.428
7736,1321.613
7737,1301.832
7738,1349.447
7739,1304.762
7740,1326.007
7741,1312.823
7742,1361.174
7743,1331.867
7744,1358.973
7745,1376.560
7746,1376.560
7747,1370.693
7748,1370.693
7749,1367.034
7750,1361.903
7751,1357.508
7752,1367.763
7753,1388.280
7754,1407.325
7755,1408.061
7756,1410.254
7757,1401.465
7758,1386.815
7759,1380.219
7760,1375.095
7761,1397.070
7762,1409.526
7763,1413.921
7764,1414.649
7765,1402.930
7766,1389.009
7767,1367.763
7768,1369.964
7769,1375.824
7770,1389.009
7771,1395.605
7772,1391.939
7773,1375.824
7774,1388.280
7775,1380.955
7776,1386.079
7777,1379.490
7778,1388.280
7779,1400.736
7780,1408.789
7781,1402.201
7782,1430.772
7783,1382.420
7784,1391.939
7785,1378.025
7786,1364.104
7787,1367.763
7788,1354.578
7789,1378.754
7790,1378.754
7791,1370.693
7792,1361.174
7793,1312.823
7794,1351.648
7795,1309.893
7796,1346.517
7797,1356.043
7798,1323.078
7799,1312.823
7800,1313.551
7801,1364.104
7802,1326.007
7803,1369.964
7804,1323.806
7805,1366.298
7806,1366.298
7807,1378.025
7808,1368.499
7809,1335.534
7810,1379.490
7811,1357.508
7812,1381.684
7813,1389.745
7814,1375.824
7815,1350.183
7816,1388.280
7817,1399.271
7818,1359.709
7819,1373.623
7820,1402.201
7821,1375.824
7822,1388.280
7823,1397.070
7824,1365.569
7825,1386.079
7826,1405.131
7827,1389.009
7828,1386.815
7829,1363.368
7830,1405.860
7831,1360.438
7832,1400.736
7833,1405.860
7834,1380.219
7835,1373.623
7836,1365.569
7837,1392.675
7838,1410.254
7839,1377.289
7840,1419.044
7841,1401.465
7842,1388.280
7843,1421.982
7844,1424.175
7845,1408.789
7846,1416.851
7847,1424.175
7848,1422.710
7849,1383.149
7850,1398.535
7851,1375.824
7852,1413.921
7853,1404.395
7854,1403.666
7855,1386.079
7856,1405.131
7857,1354.578
7858,1394.869
7859,1387.544
7860,1383.885
7861,1383.149
7862,1336.999
7863,1349.447
7864,1367.034
7865,1337.727
7866,1378.025
7867,1336.999
7868,1380.955
7869,1336.999
7870,1363.368
7871,1383.885
7872,1380.955
7873,1347.982
7874,1326.007
7875,1358.973
7876,1304.033
7877,1339.192
7878,1291.577
7879,1316.481
7880,1309.157
7881,1287.182
7882,1268.130
7883,1239.559
7884,1231.498
7885,1247.620
7886,1274.726
7887,1228.568
7888,1277.656
7889,1246.884
7890,1276.920
7891,1284.981
7892,1247.620
7893,1254.209
7894,1266.665
7895,1264.471
7896,1284.981
7897,1287.911
7898,1276.191
7899,1311.358
7900,1306.963
7901,1329.674
7902,1315.753
7903,1336.262
7904,1303.297
7905,1339.928
7906,1299.630
7907,1298.902
7908,1301.832
7909,1318.683
7910,1350.920
7911,1341.393
7912,1313.551
7913,1337.727
7914,1332.604
7915,1339.928
7916,1362.639
7917,1326.007
7918,1372.894
7919,1331.867
7920,1348.718
7921,1378.025
7922,1346.517
7923,1334.797
7924,1358.244
7925,1335.534
7926,1367.034
7927,1378.025
7928,1356.043
7929,1333.332
7930,1369.228
7931,1378.025
7932,1339.928
7933,1347.253
7934,1378.754
7935,1364.833
7936,1378.025
7937,1346.517
7938,1339.928
7939,1350.920
7940,1351.648
7941,1383.885
7942,1365.569
7943,1347.253
7944,1394.869
7945,1380.955
7946,1400.000
7947,1353.849
7948,1375.824
7949,1397.070
7950,1364.104
7951,1375.095
7952,1399.271
7953,1382.420
7954,1360.438
7955,1405.860
7956,1361.903
7957,1375.095
7958,1409.526
7959,1382.420
7960,1408.789
7961,1428.570
7962,1432.237
7963,1421.246
7964,1396.333
7965,1396.333
7966,1398.535
7967,1435.895
7968,1409.526
7969,1401.465
7970,1417.579
7971,1402.201
7972,1386.079
7973,1399.271
7974,1419.044
7975,1384.614
7976,1400.000
7977,1403.666
7978,1411.719
7979,1391.939
7980,1400.000
7981,1410.254
7982,1361.903
7983,1379.490
7984,1403.666
7985,1354.578
7986,1398.535
7987,1394.869
7988,1395.605
7989,1370.693
7990,1377.289
7991,1389.745
7992,1343.587
7993,1339.192
7994,1351.648
7995,1364.104
7996,1360.438
7997,1362.639
7998,1361.174
7999,1370.693
8000,1367.034
8001,1377.289
8002,1378.025
8003,1350.183
8004,1346.517
8005,1383.149
8006,1355.314
8007,1344.323
8008,1358.973
8009,1369.228
8010,1334.069
8011,1365.569
8012,1373.623
8013,1344.323
8014,1342.858
8015,1353.113
8016,1379.490
8017,1347.982
8018,1373.623
8019,1372.894
8020,1364.833
8021,1388.280
8022,1381.684
8023,1384.614
8024,1389.009
8025,1391.939
8026,1399.271
8027,1408.061
8028,1393.404
8029,1397.806
8030,1383.885
8031,1383.149
8032,1416.114
8033,1411.719
8034,1405.860
8035,1394.869
8036,1399.271
8037,1411.719
8038,1422.710
8039,1395.605
8040,1414.649
8041,1421.982
8042,1380.219
8043,1373.623
8044,1368.499
8045,1403.666
8046,1393.404
8047,1394.869
8048,1364.833
8049,1353.113
8050,1386.079
8051,1326.007
8052,1331.867
8053,1339.192
8054,1295.972
8055,1312.823
8056,1276.191
8057,1279.857
8058,1279.857
8059,1239.559
8060,1246.155
8061,1208.059
8062,1243.225
8063,1229.304
8064,1225.638
8065,1192.673
8066,1218.313
8067,1241.761
8068,1212.454
8069,1230.033
8070,1208.059
8071,1228.568
8072,1255.681
8073,1238.831
8074,1254.945
8075,1268.130
8076,1315.753
8077,1340.657
8078,1310.622
8079,1361.174
8080,1328.209
8081,1364.833
8082,1368.499
8083,1354.578
8084,1389.745
8085,1361.174
8086,1400.736
8087,1378.754
8088,1381.684
8089,1382.420
8090,1402.201
8091,1376.560
8092,1367.763
8093,1379.490
8094,1389.009
8095,1379.490
8096,1386.079
8097,1333.332
8098,1375.095
8099,1342.858
8100,1342.858
8101,1353.849
8102,1342.858
8103,1312.823
8104,1352.384
8105,1338.464
8106,1306.227
8107,1323.078
8108,1344.323
8109,1307.692
8110,1307.692
8111,1336.999
8112,1309.893
8113,1349.447
8114,1347.982
8115,1353.849
8116,1347.253
8117,1323.806
8118,1359.709
8119,1361.903
8120,1367.763
8121,1353.113
8122,1361.174
8123,1359.709
8124,1380.955
8125,1376.560
8126,1386.079
8127,1384.614
8128,1353.113
8129,1379.490
8130,1398.535
8131,1391.939
8132,1405.131
8133,1390.474
8134,1372.158
8135,1374.359
8136,1377.289
8137,1409.526
8138,1431.500
8139,1403.666
8140,1408.061
8141,1438.096
8142,1413.184
8143,1421.982
8144,1453.482
8145,1448.351
8146,1424.912
8147,1401.465
8148,1410.991
8149,1433.702
8150,1381.684
8151,1376.560
8152,1382.420
8153,1409.526
8154,1391.939
8155,1358.244
8156,1371.429
8157,1395.605
8158,1343.587
8159,1388.280
8160,1338.464
8161,1383.149
8162,1378.025
8163,1369.964
8164,1347.253
8165,1341.393
8166,1344.323
8167,1368.499
8168,1376.560
8169,1369.228
8170,1360.438
8171,1350.183
8172,1380.955
8173,1353.849
8174,1390.474
8175,1379.490
8176,1350.183
8177,1378.754
8178,1361.903
8179,1375.824
8180,1384.614
8181,1358.973
8182,1395.605
8183,1349.447
8184,1390.474
8185,1350.183
8186,1378.025
8187,1359.709
8188,1353.113
8189,1388.280
8190,1400.000
8191,1374.359
8192,1362.639
8193,1396.333
8194,1366.298
8195,1371.429
8196,1381.684
8197,1404.395
8198,1402.201
8199,1387.544
8200,1430.035
8201,1402.930
8202,1432.965
8203,1410.991
8204,1394.869
8205,1433.702
8206,1413.921
8207,1416.851
8208,1424.912
8209,1414.649
8210,1415.386
8211,1401.465
8212,1373.623
8213,1414.649
8214,1410.991
8215,1407.325
8216,1383.885
8217,1392.675
8218,1372.894
8219,1347.982
8220,1361.174
8221,1375.095
8222,1365.569
8223,1388.280
8224,1391.939
8225,1381.684
8226,1369.964
8227,1376.560
8228,1389.009
8229,1358.973
8230,1350.183
8231,1334.797
8232,1373.623
8233,1327.472
8234,1320.876
8235,1336.999
8236,1345.788
8237,1298.902
8238,1331.867
8239,1327.472
8240,1292.306
8241,1304.033
8242,1261.541
8243,1301.095
8244,1302.560
8245,1260.076
8246,1293.771
8247,1252.744
8248,1290.112
8249,1298.902
8250,1301.095
8251,1309.157
8252,1295.236
8253,1301.832
8254,1271.796
8255,1298.166
8256,1298.902
8257,1323.078
8258,1323.806
8259,1291.577
8260,1324.543
8261,1284.981
8262,1288.647
8263,1283.516
8264,1333.332
8265,1317.218
8266,1331.139
8267,1301.095
8268,1303.297
8269,1301.832
8270,1352.384
8271,1320.876
8272,1324.543
8273,1362.639
8274,1316.481
8275,1321.613
8276,1337.727
8277,1333.332
8278,1344.323
8279,1331.139
8280,1351.648
8281,1361.903
8282,1331.867
8283,1342.858
8284,1374.359
8285,1369.964
8286,1354.578
8287,1338.464
8288,1381.684
8289,1362.639
8290,1340.657
8291,1356.043
8292,1383.885
8293,1364.104
8294,1368.499
8295,1351.648
8296,1363.368
8297,1358.244
8298,1367.034
8299,1394.140
8300,1377.289
8301,1382.420
8302,1368.499
8303,1363.368
8304,1354.578
8305,1356.779
8306,1387.544
8307,1367.763
8308,1401.465
8309,1364.833
8310,1367.763
8311,1409.526
8312,1373.623
8313,1405.860
8314,1423.447
8315,1388.280
8316,1416.851
8317,1390.474
8318,1391.939
8319,1394.869
8320,1420.509
8321,1405.860
8322,1403.666
8323,1405.131
8324,1357.508
8325,1373.623
8326,1348.718
8327,1356.043
8328,1383.149
8329,1356.043
8330,1375.824
8331,1372.158
8332,1347.982
8333,1380.955
8334,1361.174
8335,1391.210
8336,1352.384
8337,1358.244
8338,1362.639
8339,1378.025
8340,1388.280
8341,1389.009
8342,1372.158
8343,1391.210
8344,1394.869
8345,1365.569
8346,1411.719
8347,1387.544
8348,1386.079
8349,1383.149
8350,1413.184
8351,1371.429
8352,1379.490
8353,1392.675
8354,1400.000
8355,1368.499
8356,1366.298
8357,1383.885
8358,1399.271
8359,1364.833
8360,1407.325
8361,1378.025
8362,1400.736
8363,1382.420
8364,1372.158
8365,1359.709
8366,1359.709
8367,1373.623
8368,1375.095
8369,1363.368
8370,1405.131
8371,1367.763
8372,1402.930
8373,1368.499
8374,1406.596
8375,1371.429
8376,1372.894
8377,1412.456
8378,1413.921
8379,1413.921
8380,1372.158
8381,1390.474
8382,1406.596
8383,1378.754
8384,1380.219
8385,1403.666
8386,1358.244
8387,1391.939
8388,1374.359
8389,1369.228
8390,1389.009
8391,1367.034
8392,1338.464
8393,1358.973
8394,1375.824
8395,1350.183
8396,1334.069
8397,1326.744
8398,1347.253
8399,1370.693
8400,1348.718
8401,1375.095
8402,1370.693
8403,1363.368
8404,1326.007
8405,1352.384
8406,1357.508
8407,1356.779
8408,1303.297
8409,1337.727
8410,1320.876
8411,1301.095
8412,1322.341
8413,1298.166
8414,1317.218
8415,1313.551
8416,1308.428
8417,1309.893
8418,1309.157
8419,1307.692
8420,1310.622
8421,1283.516
8422,1284.981
8423,1278.385
8424,1299.630
8425,1267.401
8426,1299.630
8427,1315.753
8428,1322.341
8429,1315.016
8430,1283.516
8431,1329.674
8432,1298.166
8433,1312.087
8434,1333.332
8435,1338.464
8436,1338.464
8437,1333.332
8438,1303.297
8439,1318.683
8440,1345.788
8441,1305.498
8442,1335.534
8443,1339.192
8444,1321.613
8445,1311.358
8446,1312.087
8447,1358.244
8448,1345.788
8449,1315.753
8450,1335.534
8451,1357.508
8452,1323.806
8453,1366.298
8454,1358.244
8455,1328.209
8456,1352.384
8457,1336.262
8458,1336.999
8459,1356.779
8460,1334.069
8461,1342.858
8462,1353.113
8463,1361.903
8464,1323.806
8465,1365.569
8466,1330.402
8467,1322.341
8468,1361.903
8469,1368.499
8470,1338.464
8471,1323.078
8472,1361.174
8473,1321.613
8474,1360.438
8475,1353.113
8476,1353.849
8477,1352.384
8478,1372.894
8479,1375.095
8480,1365.569
8481,1370.693
8482,1347.253
8483,1332.604
8484,1356.043
8485,1365.569
8486,1343.587
8487,1356.779
8488,1376.560
8489,1387.544
8490,1370.693
8491,1378.025
8492,1379.490
8493,1410.254
8494,1404.395
8495,1389.745
8496,1384.614
8497,1422.710
8498,1416.851
8499,1400.000
8500,1399.271
8501,1400.736
8502,1380.219
8503,1386.079
8504,1398.535
8505,1400.000
8506,1384.614
8507,1365.569
8508,1375.095
8509,1369.964
8510,1369.964
8511,1391.939
8512,1375.824
8513,1359.709
8514,1362.639
8515,1375.824
8516,1380.219
8517,1373.623
8518,1383.885
8519,1390.474
8520,1361.903
8521,1361.174
8522,1359.709
8523,1402.201
8524,1364.104
8525,1375.824
8526,1381.684
8527,1398.535
8528,1377.289
8529,1366.298
8530,1379.490
8531,1386.815
8532,1402.201
8533,1406.596
8534,1412.456
8535,1406.596
8536,1372.158
8537,1375.095
8538,1399.271
8539,1368.499
8540,1405.860
8541,1364.833
8542,1391.210
8543,1396.333
8544,1389.009
8545,1396.333
8546,1397.806
8547,1371.429
8548,1386.815
8549,1397.070
8550,1422.710
8551,1389.009
8552,1394.140
8553,1394.869
8554,1423.447
8555,1410.991
8556,1417.579
8557,1434.430
8558,1429.307
8559,1398.535
8560,1405.860
8561,1407.325
8562,1424.175
8563,1392.675
8564,1384.614
8565,1421.246
8566,1421.246
8567,1387.544
8568,1391.210
8569,1386.079
8570,1386.815
8571,1363.368
8572,1367.034
8573,1369.228
8574,1388.280
8575,1364.104
8576,1334.797
8577,1361.903
8578,1331.139
8579,1332.604
8580,1358.973
8581,1334.069
8582,1334.797
8583,1344.323
8584,1315.753
8585,1339.192
8586,1317.218
8587,1288.647
8588,1260.805
8589,1287.911
8590,1237.366
8591,1256.410
8592,1263.735
8593,1256.410
8594,1215.384
8595,1230.769
8596,1241.761
8597,1209.524
8598,1208.795
8599,1216.120
8600,1213.190
8601,1202.199
8602,1236.629
8603,1253.480
8604,1264.471
8605,1221.980
8606,1227.103
8607,1264.471
8608,1247.620
8609,1277.656
8610,1286.446
8611,1263.735
8612,1298.166
8613,1261.541
8614,1295.972
8615,1252.744
8616,1271.796
8617,1306.227
8618,1304.762
8619,1310.622
8620,1273.261
8621,1290.841
8622,1324.543
8623,1323.078
8624,1320.876
8625,1320.876
8626,1300.367
8627,1335.534
8628,1342.858
8629,1339.192
8630,1337.727
8631,1349.447
8632,1350.920
8633,1309.157
8634,1356.779
8635,1312.087
8636,1353.849
8637,1347.982
8638,1354.578
8639,1320.876
8640,1366.298
8641,1350.183
8642,1344.323
8643,1361.174
8644,1356.779
8645,1347.982
8646,1370.693
