'Elapsed time','wrist_ppg'
'hh:mm:ss.mmm','mV'
'0:00.000',1305.488
'0:00.004',1325.990
'0:00.008',1309.878
'0:00.012',1295.982
'0:00.016',1342.870
'0:00.020',1312.095
'0:00.023',1328.207
'0:00.027',1346.536
'0:00.031',1369.213
'0:00.035',1399.263
'0:00.039',1439.544
'0:00.043',1457.873
'0:00.047',1466.654
'0:00.051',1479.868
'0:00.055',1504.761
'0:00.059',1550.925
'0:00.063',1521.598
'0:00.066',1545.809
'0:00.070',1558.256
'0:00.074',1578.034
'0:00.078',1550.925
'0:00.082',1573.644
'0:00.086',1589.032
'0:00.090',1575.818
'0:00.094',1564.820
'0:00.098',1589.032
'0:00.102',1572.877
'0:00.105',1556.764
'0:00.109',1583.874
'0:00.113',1589.032
'0:00.117',1577.310
'0:00.121',1564.820
'0:00.125',1560.430
'0:00.129',1572.877
'0:00.133',1536.261
'0:00.137',1562.647
'0:00.141',1539.927
'0:00.145',1560.430
'0:00.148',1556.040
'0:00.152',1553.098
'0:00.156',1559.705
'0:00.160',1590.481
'0:00.164',1601.478
'0:00.168',1594.871
'0:00.172',1620.532
'0:00.176',1595.596
'0:00.180',1625.647
'0:00.184',1630.762
'0:00.188',1635.152
'0:00.191',1649.815
'0:00.195',1643.208
'0:00.199',1632.254
'0:00.203',1638.818
'0:00.207',1654.930
'0:00.211',1689.372
'0:00.215',1686.431
'0:00.219',1712.091
'0:00.223',1725.262
'0:00.227',1745.808
'0:00.230',1764.094
'0:00.234',1743.591
'0:00.238',1781.698
'0:00.242',1786.089
'0:00.246',1821.255
'0:00.250',1832.252
'0:00.254',1882.039
'0:00.258',1892.311
'0:00.262',1895.977
'0:00.266',1946.531
'0:00.270',1963.368
'0:00.273',2004.416
'0:00.277',2016.863
'0:00.281',2024.919
'0:00.285',2073.256
'0:00.289',2098.192
'0:00.293',2093.034
'0:00.297',2136.981
'0:00.301',2132.591
'0:00.305',2161.917
'0:00.309',2176.580
'0:00.313',2182.420
'0:00.316',2187.535
'0:00.320',2192.692
'0:00.324',2191.925
'0:00.328',2205.864
'0:00.332',2208.805
'0:00.336',2186.810
'0:00.340',2206.588
'0:00.344',2205.139
'0:00.348',2198.532
'0:00.352',2192.692
'0:00.355',2190.476
'0:00.359',2165.583
'0:00.363',2181.695
'0:00.367',2158.251
'0:00.371',2164.091
'0:00.375',2162.641
'0:00.379',2161.192
'0:00.383',2144.312
'0:00.387',2122.360
'0:00.391',2093.034
'0:00.395',2100.366
'0:00.398',2082.804
'0:00.402',2057.868
'0:00.406',2019.804
'0:00.410',1999.983
'0:00.414',1973.640
'0:00.418',1963.368
'0:00.422',1911.365
'0:00.426',1864.477
'0:00.430',1828.586
'0:00.434',1794.870
'0:00.438',1726.754
'0:00.441',1671.810
'0:00.445',1648.366
'0:00.449',1565.588
'0:00.453',1535.537
'0:00.457',1446.876
'0:00.461',1374.370
'0:00.465',1301.097
'0:00.469',1224.158
'0:00.473',1195.599
'0:00.477',1081.321
'0:00.480',1048.371
'0:00.484',956.769
'0:00.488',887.162
'0:00.492',809.541
'0:00.496',757.496
'0:00.500',668.153
'0:00.504',619.773
'0:00.508',547.267
'0:00.512',453.491
'0:00.516',446.160
'0:00.520',368.496
'0:00.523',309.162
'0:00.527',286.443
'0:00.531',258.608
'0:00.535',230.774
'0:00.539',206.605
'0:00.543',183.161
'0:00.547',153.110
'0:00.551',180.220
'0:00.555',142.838
'0:00.559',190.493
'0:00.563',195.608
'0:00.566',220.501
'0:00.570',227.833
'0:00.574',269.606
'0:00.578',252.001
'0:00.582',285.718
'0:00.586',325.274
'0:00.590',373.611
'0:00.594',422.716
'0:00.598',479.834
'0:00.602',527.489
'0:00.605',562.655
'0:00.609',591.214
'0:00.613',613.209
'0:00.617',665.212
'0:00.621',741.383
'0:00.625',754.597
'0:00.629',821.988
'0:00.633',855.662
'0:00.637',896.710
'0:00.641',927.486
'0:00.645',927.486
'0:00.648',997.818
'0:00.652',992.660
'0:00.656',1038.099
'0:00.660',1070.323
'0:00.664',1107.706
'0:00.668',1129.658
'0:00.672',1147.987
'0:00.676',1156.768
'0:00.680',1166.316
'0:00.684',1188.992
'0:00.688',1203.656
'0:00.691',1197.091
'0:00.695',1186.819
'0:00.699',1194.875
'0:00.703',1224.926
'0:00.707',1249.094
'0:00.711',1250.543
'0:00.715',1234.431
'0:00.719',1232.257
'0:00.723',1246.153
'0:00.727',1301.097
'0:00.730',1273.987
'0:00.734',1328.932
'0:00.738',1318.701
'0:00.742',1353.867
'0:00.746',1389.758
'0:00.750',1424.199
'0:00.754',1442.486
'0:00.758',1462.988
'0:00.762',1506.978
'0:00.766',1497.430
'0:00.770',1551.649
'0:00.773',1563.371
'0:00.777',1612.476
'0:00.781',1641.035
'0:00.785',1650.540
'0:00.789',1687.198
'0:00.793',1743.591
'0:00.797',1773.642
'0:00.801',1779.482
'0:00.805',1808.808
'0:00.809',1835.151
'0:00.813',1861.536
'0:00.816',1856.421
'0:00.820',1869.592
'0:00.824',1881.314
'0:00.828',1917.972
'0:00.832',1893.760
'0:00.836',1928.926
'0:00.840',1912.814
'0:00.844',1906.250
'0:00.848',1911.365
'0:00.852',1913.539
'0:00.855',1927.477
'0:00.859',1936.983
'0:00.863',1936.258
'0:00.867',1907.699
'0:00.871',1934.809
'0:00.875',1894.528
'0:00.879',1909.873
'0:00.883',1895.977
'0:00.887',1904.758
'0:00.891',1868.143
'0:00.895',1869.592
'0:00.898',1860.811
'0:00.902',1863.028
'0:00.906',1829.311
'0:00.910',1851.306
'0:00.914',1828.586
'0:00.918',1802.201
'0:00.922',1788.263
'0:00.926',1775.816
'0:00.930',1761.920
'0:00.934',1787.538
'0:00.938',1741.375
'0:00.941',1721.597
'0:00.945',1710.642
'0:00.949',1699.645
'0:00.953',1706.251
'0:00.957',1676.925
'0:00.961',1649.815
'0:00.965',1613.200
'0:00.969',1592.697
'0:00.973',1567.762
'0:00.977',1538.478
'0:00.980',1509.152
'0:00.984',1450.542
'0:00.988',1430.039
'0:00.992',1375.819
'0:00.996',1363.373
'0:01.000',1321.600
'0:01.004',1271.814
'0:01.008',1213.204
'0:01.012',1136.989
'0:01.016',1138.481
'0:01.020',1067.382
'0:01.023',1014.655
'0:01.027',1002.208
'0:01.031',988.994
'0:01.035',959.710
'0:01.039',934.817
'0:01.043',898.884
'0:01.047',857.154
'0:01.051',884.988
'0:01.055',835.159
'0:01.059',874.715
'0:01.063',830.769
'0:01.066',873.266
'0:01.070',878.381
'0:01.074',861.544
'0:01.078',877.657
'0:01.082',884.988
'0:01.086',904.766
'0:01.090',949.438
'0:01.094',965.550
'0:01.098',980.213
'0:01.102',1013.930
'0:01.105',1053.486
'0:01.109',1101.099
'0:01.113',1095.984
'0:01.117',1152.377
'0:01.121',1168.490
'0:01.125',1175.821
'0:01.129',1245.428
'0:01.133',1242.487
'0:01.137',1271.814
'0:01.141',1317.210
'0:01.145',1312.095
'0:01.148',1326.758
'0:01.152',1340.654
'0:01.156',1364.822
'0:01.160',1380.210
'0:01.164',1405.146
'0:01.168',1413.927
'0:01.172',1461.539
'0:01.176',1483.534
'0:01.180',1463.756
'0:01.184',1518.700
'0:01.188',1493.764
'0:01.191',1534.812
'0:01.195',1530.422
'0:01.199',1534.088
'0:01.203',1580.208
'0:01.207',1588.264
'0:01.211',1578.759
'0:01.215',1578.034
'0:01.219',1605.144
'0:01.223',1610.259
'0:01.227',1644.700
'0:01.230',1611.708
'0:01.234',1632.254
'0:01.238',1642.484
'0:01.242',1646.874
'0:01.246',1678.374
'0:01.250',1657.147
'0:01.254',1667.420
'0:01.258',1679.142
'0:01.262',1687.198
'0:01.266',1690.096
'0:01.270',1682.807
'0:01.273',1713.540
'0:01.277',1680.591
'0:01.281',1693.762
'0:01.285',1680.591
'0:01.289',1720.147
'0:01.293',1686.431
'0:01.297',1723.088
'0:01.301',1696.703
'0:01.305',1724.538
'0:01.309',1729.653
'0:01.313',1724.538
'0:01.316',1763.369
'0:01.320',1750.923
'0:01.324',1775.091
'0:01.328',1818.314
'0:01.332',1812.474
'0:01.336',1827.862
'0:01.340',1846.873
'0:01.344',1883.530
'0:01.348',1909.148
'0:01.352',1895.252
'0:01.355',1945.039
'0:01.359',1930.418
'0:01.363',1968.483
'0:01.367',1976.582
'0:01.371',1990.477
'0:01.375',1991.927
'0:01.379',1999.983
'0:01.383',2014.646
'0:01.387',2028.585
'0:01.391',2026.368
'0:01.395',2013.921
'0:01.398',2016.138
'0:01.402',2007.315
'0:01.406',2008.082
'0:01.410',2012.472
'0:01.414',2013.197
'0:01.418',1988.261
'0:01.422',2012.472
'0:01.426',1979.480
'0:01.430',1999.983
'0:01.434',1969.250
'0:01.438',1955.312
'0:01.441',1983.146
'0:01.445',1943.590
'0:01.449',1939.199
'0:01.453',1939.199
'0:01.457',1923.811
'0:01.461',1899.643
'0:01.465',1910.640
'0:01.469',1893.760
'0:01.473',1890.095
'0:01.477',1857.145
'0:01.480',1846.148
'0:01.484',1847.640
'0:01.488',1829.311
'0:01.492',1815.372
'0:01.496',1793.420
'0:01.500',1802.926
'0:01.504',1797.811
'0:01.508',1786.813
'0:01.512',1777.308
'0:01.516',1770.701
'0:01.520',1762.645
'0:01.523',1761.920
'0:01.527',1775.091
'0:01.531',1764.819
'0:01.535',1766.311
'0:01.539',1780.974
'0:01.543',1810.257
'0:01.547',1793.420
'0:01.551',1783.872
'0:01.555',1802.926
'0:01.559',1808.808
'0:01.563',1816.140
'0:01.566',1813.199
'0:01.570',1814.648
'0:01.574',1824.196
'0:01.578',1827.094
'0:01.582',1853.480
'0:01.586',1847.640
'0:01.590',1870.317
'0:01.594',1876.199
'0:01.598',1860.086
'0:01.602',1899.643
'0:01.605',1879.140
'0:01.609',1887.921
'0:01.613',1884.255
'0:01.617',1889.370
'0:01.621',1871.084
'0:01.625',1890.095
'0:01.629',1868.867
'0:01.633',1847.640
'0:01.637',1820.530
'0:01.641',1800.752
'0:01.645',1780.974
'0:01.648',1749.474
'0:01.652',1717.206
'0:01.656',1711.366
'0:01.660',1640.310
'0:01.664',1607.318
'0:01.668',1550.925
'0:01.672',1512.093
'0:01.676',1476.202
'0:01.680',1384.600
'0:01.684',1317.934
'0:01.688',1255.701
'0:01.691',1213.204
'0:01.695',1168.490
'0:01.699',1074.714
'0:01.703',1011.713
'0:01.707',961.160
'0:01.711',915.039
'0:01.715',819.047
'0:01.719',782.432
'0:01.723',749.439
'0:01.727',696.712
'0:01.730',610.268
'0:01.734',605.110
'0:01.738',576.551
'0:01.742',549.441
'0:01.746',502.553
'0:01.750',489.382
'0:01.754',446.885
'0:01.758',452.000
'0:01.762',435.887
'0:01.766',411.719
'0:01.770',409.545
'0:01.773',356.774
'0:01.777',353.109
'0:01.781',372.162
'0:01.785',355.325
'0:01.789',324.550
'0:01.793',352.384
'0:01.797',308.437
'0:01.801',353.109
'0:01.805',329.665
'0:01.809',323.825
'0:01.813',367.772
'0:01.816',367.772
'0:01.820',393.390
'0:01.824',403.662
'0:01.828',424.890
'0:01.832',410.269
'0:01.836',484.992
'0:01.840',480.601
'0:01.844',506.944
'0:01.848',542.877
'0:01.852',627.829
'0:01.855',644.709
'0:01.859',683.498
'0:01.863',707.709
'0:01.867',790.488
'0:01.871',816.830
'0:01.875',857.878
'0:01.879',868.876
'0:01.883',912.823
'0:01.887',965.550
'0:01.891',994.876
'0:01.895',1004.382
'0:01.898',1077.655
'0:01.902',1065.933
'0:01.906',1130.425
'0:01.910',1132.599
'0:01.914',1128.209
'0:01.918',1147.262
'0:01.922',1168.490
'0:01.926',1177.270
'0:01.930',1216.102
'0:01.934',1244.704
'0:01.938',1241.763
'0:01.941',1229.316
'0:01.945',1275.479
'0:01.949',1273.987
'0:01.953',1287.926
'0:01.957',1312.095
'0:01.961',1365.589
'0:01.965',1373.646
'0:01.969',1397.090
'0:01.973',1424.199
'0:01.977',1484.258
'0:01.980',1482.042
'0:01.984',1498.154
'0:01.988',1563.371
'0:01.992',1561.155
'0:01.996',1589.032
'0:02.000',1582.425
'0:02.004',1605.144
'0:02.008',1649.815
'0:02.012',1620.532
'0:02.016',1636.644
'0:02.020',1650.540
'0:02.023',1657.872
'0:02.027',1653.481
'0:02.031',1638.818
'0:02.035',1651.265
'0:02.039',1643.976
'0:02.043',1654.930
'0:02.047',1679.142
'0:02.051',1687.198
'0:02.055',1699.645
'0:02.059',1717.931
'0:02.063',1758.254
'0:02.066',1740.650
'0:02.070',1797.086
'0:02.074',1781.698
'0:02.078',1804.418
'0:02.082',1805.867
'0:02.086',1845.423
'0:02.090',1815.372
'0:02.094',1846.148
'0:02.098',1803.650
'0:02.102',1799.260
'0:02.105',1799.985
'0:02.109',1763.369
'0:02.113',1742.142
'0:02.117',1695.979
'0:02.121',1654.930
'0:02.125',1616.866
'0:02.129',1594.147
'0:02.133',1531.871
'0:02.137',1498.154
'0:02.141',1482.767
'0:02.145',1417.592
'0:02.148',1390.483
'0:02.152',1393.424
'0:02.156',1345.811
'0:02.160',1342.870
'0:02.164',1288.651
'0:02.168',1310.645
'0:02.172',1257.150
'0:02.176',1233.706
'0:02.180',1254.209
'0:02.184',1216.102
'0:02.188',1174.372
'0:02.191',1167.040
'0:02.195',1169.214
'0:02.199',1108.430
'0:02.203',1098.158
'0:02.207',1052.762
'0:02.211',1057.152
'0:02.215',1002.208
'0:02.219',1027.101
'0:02.223',999.991
'0:02.227',971.432
'0:02.230',947.989
'0:02.234',934.050
'0:02.238',914.272
'0:02.242',913.547
'0:02.246',899.651
'0:02.250',858.603
'0:02.254',882.772
'0:02.258',893.044
'0:02.262',863.718
'0:02.266',846.881
'0:02.270',882.772
'0:02.273',882.772
'0:02.277',893.044
'0:02.281',894.494
'0:02.285',911.373
'0:02.289',923.095
'0:02.293',939.932
'0:02.297',954.595
'0:02.301',975.823
'0:02.305',1000.716
'0:02.309',1023.435
'0:02.313',1028.593
'0:02.316',1036.649
'0:02.320',1049.821
'0:02.324',1093.043
'0:02.328',1118.703
'0:02.332',1114.270
'0:02.336',1159.709
'0:02.340',1176.546
'0:02.344',1197.816
'0:02.348',1213.204
'0:02.352',1235.880
'0:02.355',1235.880
'0:02.359',1268.872
'0:02.363',1274.712
'0:02.367',1278.378
'0:02.371',1278.378
'0:02.375',1278.378
'0:02.379',1278.378
'0:02.383',1317.934
'0:02.387',1318.701
'0:02.391',1296.707
'0:02.395',1330.423
'0:02.398',1336.988
'0:02.402',1318.701
'0:02.406',1329.656
'0:02.410',1335.538
'0:02.414',1345.044
'0:02.418',1378.761
'0:02.422',1353.867
'0:02.426',1352.376
'0:02.430',1356.041
'0:02.434',1396.322
'0:02.438',1404.378
'0:02.441',1386.092
'0:02.445',1402.929
'0:02.449',1414.651
'0:02.453',1432.980
'0:02.457',1461.539
'0:02.461',1502.587
'0:02.465',1485.708
'0:02.469',1528.930
'0:02.473',1545.042
'0:02.477',1587.540
'0:02.480',1582.425
'0:02.484',1595.596
'0:02.488',1646.874
'0:02.492',1632.254
'0:02.496',1675.476
'0:02.500',1696.703
'0:02.504',1690.096
'0:02.508',1690.096
'0:02.512',1701.818
'0:02.516',1709.875
'0:02.520',1742.867
'0:02.523',1704.760
'0:02.527',1720.147
'0:02.531',1726.030
'0:02.535',1693.038
'0:02.539',1693.038
'0:02.543',1672.535
'0:02.547',1657.147
'0:02.551',1643.976
'0:02.555',1639.543
'0:02.559',1583.874
'0:02.563',1573.644
'0:02.566',1561.922
'0:02.570',1532.596
'0:02.574',1515.759
'0:02.578',1492.315
'0:02.582',1487.200
'0:02.586',1468.871
'0:02.590',1441.761
'0:02.594',1415.376
'0:02.598',1403.654
'0:02.602',1359.707
'0:02.605',1331.148
'0:02.609',1335.538
'0:02.613',1283.536
'0:02.617',1284.985
'0:02.621',1227.100
'0:02.625',1223.434
'0:02.629',1215.378
'0:02.633',1199.990
'0:02.637',1147.987
'0:02.641',1128.209
'0:02.645',1139.931
'0:02.648',1151.653
'0:02.652',1122.326
'0:02.656',1123.094
'0:02.660',1130.425
'0:02.664',1106.981
'0:02.668',1146.538
'0:02.672',1117.936
'0:02.676',1153.869
'0:02.680',1112.821
'0:02.684',1152.377
'0:02.688',1153.102
'0:02.691',1130.425
'0:02.695',1172.155
'0:02.699',1192.658
'0:02.703',1188.992
'0:02.707',1218.319
'0:02.711',1217.594
'0:02.715',1241.038
'0:02.719',1243.212
'0:02.723',1230.041
'0:02.727',1266.656
'0:02.730',1277.653
'0:02.734',1291.592
'0:02.738',1301.097
'0:02.742',1300.373
'0:02.746',1341.378
'0:02.750',1317.934
'0:02.754',1340.654
'0:02.758',1372.878
'0:02.762',1369.980
'0:02.766',1347.260
'0:02.770',1364.822
'0:02.773',1404.378
'0:02.777',1375.095
'0:02.781',1383.876
'0:02.785',1392.656
'0:02.789',1391.207
'0:02.793',1404.378
'0:02.797',1417.592
'0:02.801',1419.766
'0:02.805',1438.820
'0:02.809',1475.478
'0:02.813',1457.149
'0:02.816',1471.812
'0:02.820',1475.478
'0:02.824',1487.924
'0:02.828',1498.922
'0:02.832',1507.702
'0:02.836',1511.368
'0:02.840',1542.144
'0:02.844',1551.649
'0:02.848',1571.427
'0:02.852',1563.371
'0:02.855',1574.369
'0:02.859',1548.708
'0:02.863',1539.927
'0:02.867',1542.144
'0:02.871',1553.098
'0:02.875',1577.310
'0:02.879',1548.708
'0:02.883',1543.593
'0:02.887',1562.647
'0:02.891',1520.149
'0:02.895',1547.983
'0:02.898',1503.312
'0:02.902',1483.534
'0:02.906',1479.143
'0:02.910',1456.424
'0:02.914',1448.368
'0:02.918',1462.988
'0:02.922',1441.036
'0:02.926',1385.368
'0:02.930',1369.213
'0:02.934',1376.544
'0:02.938',1325.990
'0:02.941',1324.541
'0:02.945',1312.819
'0:02.949',1292.316
'0:02.953',1248.370
'0:02.957',1232.257
'0:02.961',1217.594
'0:02.965',1210.262
'0:02.969',1159.709
'0:02.973',1144.321
'0:02.977',1133.324
'0:02.980',1115.762
'0:02.984',1135.540
'0:02.988',1094.492
'0:02.992',1087.928
'0:02.996',1090.102
'0:03.000',1093.043
'0:03.004',1090.102
'0:03.008',1087.160
'0:03.012',1104.040
'0:03.016',1068.149
'0:03.020',1113.545
'0:03.023',1082.770
'0:03.027',1124.543
'0:03.031',1087.928
'0:03.035',1109.155
'0:03.039',1145.046
'0:03.043',1137.714
'0:03.047',1128.933
'0:03.051',1121.602
'0:03.055',1160.433
'0:03.059',1128.209
'0:03.063',1173.647
'0:03.066',1142.147
'0:03.070',1191.209
'0:03.074',1164.099
'0:03.078',1205.147
'0:03.082',1214.653
'0:03.086',1220.535
'0:03.090',1235.156
'0:03.094',1244.704
'0:03.098',1257.150
'0:03.102',1238.821
'0:03.105',1260.816
'0:03.109',1288.651
'0:03.113',1274.712
'0:03.117',1281.319
'0:03.121',1318.701
'0:03.125',1343.595
'0:03.129',1320.875
'0:03.133',1351.651
'0:03.137',1391.207
'0:03.141',1416.868
'0:03.145',1414.651
'0:03.148',1482.767
'0:03.152',1480.593
'0:03.156',1506.211
'0:03.160',1540.652
'0:03.164',1575.818
'0:03.168',1610.984
'0:03.172',1659.364
'0:03.176',1709.875
'0:03.180',1742.867
'0:03.184',1753.097
'0:03.188',1818.314
'0:03.191',1816.140
'0:03.195',1873.982
'0:03.199',1890.095
'0:03.203',1889.370
'0:03.207',1909.873
'0:03.211',1945.806
'0:03.215',1953.862
'0:03.219',1953.138
'0:03.223',1962.643
'0:03.227',1978.031
'0:03.230',1983.871
'0:03.234',1979.480
'0:03.238',1969.250
'0:03.242',1961.194
'0:03.246',1957.528
'0:03.250',1950.197
'0:03.254',1959.702
'0:03.258',1940.648
'0:03.262',1945.039
'0:03.266',1969.975
'0:03.270',1956.036
'0:03.273',1942.865
'0:03.277',1954.587
'0:03.281',1941.416
'0:03.285',1939.199
'0:03.289',1956.036
'0:03.293',1961.194
'0:03.297',1943.590
'0:03.301',1931.143
'0:03.305',1928.926
'0:03.309',1906.974
'0:03.313',1901.817
'0:03.316',1895.977
'0:03.320',1868.867
'0:03.324',1850.538
'0:03.328',1821.255
'0:03.332',1827.862
'0:03.336',1812.474
'0:03.340',1799.985
'0:03.344',1791.928
'0:03.348',1788.263
'0:03.352',1786.089
'0:03.355',1778.033
'0:03.359',1758.979
'0:03.363',1772.150
'0:03.367',1764.819
'0:03.371',1739.925
'0:03.375',1731.869
'0:03.379',1716.482
'0:03.383',1698.153
'0:03.387',1684.257
'0:03.391',1669.594
'0:03.395',1649.091
'0:03.398',1644.700
'0:03.402',1652.032
'0:03.406',1621.256
'0:03.410',1647.642
'0:03.414',1619.765
'0:03.418',1643.208
'0:03.422',1679.142
'0:03.426',1681.316
'0:03.430',1689.372
'0:03.434',1722.364
'0:03.438',1748.706
'0:03.441',1783.148
'0:03.445',1811.707
'0:03.449',1851.306
'0:03.453',1908.424
'0:03.457',1934.809
'0:03.461',1949.472
'0:03.465',1975.090
'0:03.469',2025.643
'0:03.473',2046.146
'0:03.477',2059.360
'0:03.480',2097.425
'0:03.484',2115.029
'0:03.488',2120.869
'0:03.492',2117.970
'0:03.496',2139.197
'0:03.500',2139.922
'0:03.504',2134.807
'0:03.508',2126.751
'0:03.512',2117.203
'0:03.516',2086.470
'0:03.520',2064.475
'0:03.523',2020.528
'0:03.527',2002.924
'0:03.531',1983.146
'0:03.535',1956.036
'0:03.539',1913.539
'0:03.543',1901.092
'0:03.547',1866.651
'0:03.551',1819.038
'0:03.555',1805.867
'0:03.559',1766.311
'0:03.563',1736.260
'0:03.566',1695.979
'0:03.570',1658.596
'0:03.574',1629.313
'0:03.578',1641.035
'0:03.582',1591.930
'0:03.586',1612.476
'0:03.590',1561.922
'0:03.594',1598.537
'0:03.598',1554.590
'0:03.602',1587.540
'0:03.605',1558.981
'0:03.609',1588.264
'0:03.613',1592.697
'0:03.617',1642.484
'0:03.621',1641.035
'0:03.625',1643.976
'0:03.629',1670.318
'0:03.633',1693.038
'0:03.637',1713.540
'0:03.641',1719.423
'0:03.645',1731.869
'0:03.648',1752.372
'0:03.652',1759.704
'0:03.656',1772.918
'0:03.660',1779.482
'0:03.664',1808.808
'0:03.668',1818.314
'0:03.672',1796.361
'0:03.676',1805.867
'0:03.680',1817.589
'0:03.684',1834.426
'0:03.688',1838.092
'0:03.691',1817.589
'0:03.695',1852.030
'0:03.699',1812.474
'0:03.703',1838.816
'0:03.707',1819.763
'0:03.711',1815.372
'0:03.715',1796.361
'0:03.719',1784.640
'0:03.723',1743.591
'0:03.727',1711.366
'0:03.730',1704.760
'0:03.734',1678.374
'0:03.738',1665.203
'0:03.742',1657.872
'0:03.746',1665.928
'0:03.750',1680.591
'0:03.754',1652.032
'0:03.758',1642.484
'0:03.762',1648.366
'0:03.766',1655.698
'0:03.770',1668.869
'0:03.773',1681.316
'0:03.777',1698.920
'0:03.781',1705.484
'0:03.785',1723.813
'0:03.789',1745.808
'0:03.793',1764.819
'0:03.797',1755.313
'0:03.801',1767.760
'0:03.805',1788.263
'0:03.809',1783.148
'0:03.813',1797.811
'0:03.816',1791.204
'0:03.820',1769.976
'0:03.824',1750.923
'0:03.828',1706.251
'0:03.832',1676.201
'0:03.836',1687.198
'0:03.840',1618.315
'0:03.844',1598.537
'0:03.848',1589.032
'0:03.852',1522.366
'0:03.855',1493.764
'0:03.859',1470.320
'0:03.863',1454.932
'0:03.867',1446.151
'0:03.871',1444.702
'0:03.875',1411.710
'0:03.879',1395.598
'0:03.883',1410.985
'0:03.887',1424.199
'0:03.891',1402.929
'0:03.895',1402.929
'0:03.898',1408.044
'0:03.902',1433.705
'0:03.906',1443.977
'0:03.910',1416.100
'0:03.914',1449.817
'0:03.918',1430.039
'0:03.922',1444.702
'0:03.926',1478.376
'0:03.930',1442.486
'0:03.934',1462.988
'0:03.938',1485.708
'0:03.941',1461.539
'0:03.945',1471.045
'0:03.949',1495.256
'0:03.953',1452.034
'0:03.957',1457.873
'0:03.961',1487.924
'0:03.965',1445.427
'0:03.969',1442.486
'0:03.973',1469.595
'0:03.977',1426.373
'0:03.980',1413.202
'0:03.984',1424.199
'0:03.988',1378.036
'0:03.992',1384.600
'0:03.996',1349.434
'0:04.000',1336.263
'0:04.004',1342.145
'0:04.008',1293.041
'0:04.012',1273.987
'0:04.016',1231.490
'0:04.020',1231.490
'0:04.023',1182.428
'0:04.027',1193.425
'0:04.031',1143.596
'0:04.035',1125.267
'0:04.039',1125.267
'0:04.043',1063.759
'0:04.047',1062.992
'0:04.051',1020.494
'0:04.055',996.326
'0:04.059',972.882
'0:04.063',889.379
'0:04.066',889.379
'0:04.070',853.488
'0:04.074',813.207
'0:04.078',778.041
'0:04.082',732.602
'0:04.086',650.549
'0:04.090',645.434
'0:04.094',597.821
'0:04.098',566.321
'0:04.102',490.107
'0:04.105',446.885
'0:04.109',401.446
'0:04.113',400.721
'0:04.117',336.996
'0:04.121',333.330
'0:04.125',300.381
'0:04.129',238.105
'0:04.133',196.333
'0:04.137',205.881
'0:04.141',158.225
'0:04.145',175.830
'0:04.148',118.669
'0:04.152',138.447
'0:04.156',98.891
'0:04.160',109.164
'0:04.164',79.837
'0:04.168',99.616
'0:04.172',114.279
'0:04.176',140.664
'0:04.180',108.439
'0:04.184',144.330
'0:04.188',168.498
'0:04.191',185.335
'0:04.195',242.496
'0:04.199',271.055
'0:04.203',255.667
'0:04.207',319.435
'0:04.211',357.499
'0:04.215',345.052
'0:04.219',422.716
'0:04.223',431.497
'0:04.227',478.385
'0:04.230',512.826
'0:04.234',530.388
'0:04.238',553.107
'0:04.242',562.655
'0:04.246',610.992
'0:04.250',639.551
'0:04.254',675.442
'0:04.258',698.161
'0:04.262',721.605
'0:04.266',739.209
'0:04.270',726.720
'0:04.273',786.097
'0:04.277',791.937
'0:04.281',807.325
'0:04.285',840.274
'0:04.289',870.325
'0:04.293',876.207
'0:04.297',900.376
'0:04.301',906.216
'0:04.305',909.157
'0:04.309',945.772
'0:04.313',944.323
'0:04.316',994.152
'0:04.320',981.705
'0:04.324',1032.216
'0:04.328',1012.438
'0:04.332',1038.823
'0:04.336',1067.382
'0:04.340',1086.436
'0:04.344',1098.158
'0:04.348',1114.270
'0:04.352',1136.265
'0:04.355',1120.152
'0:04.359',1135.540
'0:04.363',1183.877
'0:04.367',1175.097
'0:04.371',1167.765
'0:04.375',1214.653
'0:04.379',1193.425
'0:04.383',1234.431
'0:04.387',1232.982
'0:04.391',1261.541
'0:04.395',1241.038
'0:04.398',1282.768
'0:04.402',1309.153
'0:04.406',1318.701
'0:04.410',1312.095
'0:04.414',1308.429
'0:04.418',1322.367
'0:04.422',1364.097
'0:04.426',1357.491
'0:04.430',1375.819
'0:04.434',1393.424
'0:04.438',1435.921
'0:04.441',1463.756
'0:04.445',1503.312
'0:04.449',1502.587
'0:04.453',1558.981
'0:04.457',1547.259
'0:04.461',1603.652
'0:04.465',1604.419
'0:04.469',1633.703
'0:04.473',1662.262
'0:04.477',1679.142
'0:04.480',1701.094
'0:04.484',1691.588
'0:04.488',1684.981
'0:04.492',1672.535
'0:04.496',1674.709
'0:04.500',1671.810
'0:04.504',1664.479
'0:04.508',1661.537
'0:04.512',1649.815
'0:04.516',1618.315
'0:04.520',1597.812
'0:04.523',1621.256
'0:04.527',1580.975
'0:04.531',1557.531
'0:04.535',1550.200
'0:04.539',1523.090
'0:04.543',1539.927
'0:04.547',1518.700
'0:04.551',1514.309
'0:04.555',1485.708
'0:04.559',1488.649
'0:04.563',1513.542
'0:04.566',1538.478
'0:04.570',1522.366
'0:04.574',1528.205
'0:04.578',1578.034
'0:04.582',1553.866
'0:04.586',1575.093
'0:04.590',1577.310
'0:04.594',1596.321
'0:04.598',1605.144
'0:04.602',1620.532
'0:04.605',1622.706
'0:04.609',1619.765
'0:04.613',1608.810
'0:04.617',1593.422
'0:04.621',1613.925
'0:04.625',1589.032
'0:04.629',1599.262
'0:04.633',1575.818
'0:04.637',1553.098
'0:04.641',1576.542
'0:04.645',1550.200
'0:04.648',1509.876
'0:04.652',1490.098
'0:04.656',1461.539
'0:04.660',1444.702
'0:04.664',1417.592
'0:04.668',1387.541
'0:04.672',1341.378
'0:04.676',1328.207
'0:04.680',1270.322
'0:04.684',1271.046
'0:04.688',1214.653
'0:04.691',1160.433
'0:04.695',1139.206
'0:04.699',1108.430
'0:04.703',1076.930
'0:04.707',1070.323
'0:04.711',1013.205
'0:04.715',1020.494
'0:04.719',978.039
'0:04.723',1002.933
'0:04.727',958.986
'0:04.730',972.882
'0:04.734',994.152
'0:04.738',994.152
'0:04.742',988.269
'0:04.746',990.486
'0:04.750',1016.104
'0:04.754',1006.598
'0:04.758',1055.660
'0:04.762',1050.545
'0:04.766',1081.321
'0:04.770',1071.048
'0:04.773',1082.770
'0:04.777',1100.374
'0:04.781',1133.324
'0:04.785',1158.260
'0:04.789',1162.650
'0:04.793',1160.433
'0:04.797',1219.768
'0:04.801',1203.656
'0:04.805',1250.543
'0:04.809',1235.880
'0:04.813',1276.929
'0:04.816',1279.102
'0:04.820',1294.490
'0:04.824',1296.707
'0:04.828',1330.423
'0:04.832',1361.924
'0:04.836',1345.044
'0:04.840',1377.311
'0:04.844',1394.148
'0:04.848',1413.927
'0:04.852',1479.143
'0:04.855',1493.039
'0:04.859',1503.312
'0:04.863',1560.430
'0:04.867',1556.040
'0:04.871',1594.147
'0:04.875',1623.430
'0:04.879',1666.652
'0:04.883',1686.431
'0:04.887',1706.251
'0:04.891',1720.872
'0:04.895',1741.375
'0:04.898',1767.035
'0:04.902',1792.696
'0:04.906',1827.094
'0:04.910',1856.421
'0:04.914',1871.084
'0:04.918',1857.870
'0:04.922',1903.309
'0:04.926',1890.862
'0:04.930',1931.868
'0:04.934',1923.087
'0:04.938',1945.806
'0:04.941',1943.590
'0:04.945',1964.092
'0:04.949',1953.862
'0:04.953',1978.756
'0:04.957',1983.146
'0:04.961',1986.087
'0:04.965',1961.918
'0:04.969',1987.536
'0:04.973',1969.250
'0:04.977',1947.980
'0:04.980',1936.983
'0:04.984',1925.261
'0:04.988',1904.758
'0:04.992',1870.317
'0:04.996',1835.918
'0:05.000',1782.423
'0:05.004',1756.038
'0:05.008',1739.201
'0:05.012',1661.537
'0:05.016',1647.642
'0:05.020',1584.599
'0:05.023',1529.654
'0:05.027',1484.983
'0:05.031',1452.034
'0:05.035',1413.202
'0:05.039',1383.151
'0:05.043',1380.935
'0:05.047',1321.600
'0:05.051',1308.429
'0:05.055',1323.817
'0:05.059',1276.204
'0:05.063',1306.212
'0:05.066',1272.538
'0:05.070',1273.263
'0:05.074',1304.038
'0:05.078',1324.541
'0:05.082',1301.822
'0:05.086',1304.763
'0:05.090',1339.929
'0:05.094',1309.878
'0:05.098',1298.156
'0:05.102',1320.875
'0:05.105',1326.758
'0:05.109',1334.814
'0:05.113',1304.763
'0:05.117',1294.490
'0:05.121',1299.648
'0:05.125',1301.097
'0:05.129',1333.322
'0:05.133',1356.766
'0:05.137',1331.873
'0:05.141',1366.314
'0:05.145',1392.656
'0:05.148',1410.985
'0:05.152',1427.098
'0:05.156',1433.705
'0:05.160',1430.764
'0:05.164',1457.873
'0:05.168',1481.317
'0:05.172',1526.756
'0:05.176',1565.588
'0:05.180',1586.815
'0:05.184',1591.206
'0:05.188',1612.476
'0:05.191',1664.479
'0:05.195',1660.088
'0:05.199',1663.754
'0:05.203',1702.586
'0:05.207',1711.366
'0:05.211',1715.032
'0:05.215',1684.257
'0:05.219',1703.310
'0:05.223',1709.150
'0:05.227',1665.928
'0:05.230',1640.310
'0:05.234',1657.147
'0:05.238',1596.321
'0:05.242',1581.700
'0:05.246',1529.654
'0:05.250',1500.371
'0:05.254',1455.699
'0:05.258',1426.373
'0:05.262',1412.477
'0:05.266',1365.589
'0:05.270',1307.704
'0:05.273',1279.102
'0:05.277',1193.425
'0:05.281',1174.372
'0:05.285',1101.824
'0:05.289',1090.826
'0:05.293',1027.101
'0:05.297',987.545
'0:05.301',945.772
'0:05.305',917.938
'0:05.309',905.491
'0:05.313',864.485
'0:05.316',858.603
'0:05.320',824.929
'0:05.324',791.937
'0:05.328',808.774
'0:05.332',771.434
'0:05.336',787.547
'0:05.340',747.990
'0:05.344',745.049
'0:05.348',787.547
'0:05.352',783.156
'0:05.355',769.218
'0:05.359',799.993
'0:05.363',819.771
'0:05.367',831.493
'0:05.371',819.047
'0:05.375',878.381
'0:05.379',898.159
'0:05.383',907.708
'0:05.387',913.547
'0:05.391',911.373
'0:05.395',974.374
'0:05.398',978.039
'0:05.402',973.649
'0:05.406',1015.379
'0:05.410',1013.930
'0:05.414',1070.323
'0:05.418',1046.155
'0:05.422',1088.652
'0:05.426',1112.096
'0:05.430',1122.326
'0:05.434',1125.267
'0:05.438',1180.212
'0:05.441',1181.703
'0:05.445',1175.821
'0:05.449',1194.150
'0:05.453',1216.869
'0:05.457',1244.704
'0:05.461',1268.872
'0:05.465',1292.316
'0:05.469',1319.426
'0:05.473',1383.151
'0:05.477',1385.368
'0:05.480',1408.044
'0:05.484',1466.654
'0:05.488',1463.756
'0:05.492',1514.309
'0:05.496',1532.596
'0:05.500',1597.088
'0:05.504',1589.756
'0:05.508',1625.647
'0:05.512',1663.754
'0:05.516',1685.706
'0:05.520',1717.206
'0:05.523',1757.530
'0:05.527',1803.650
'0:05.531',1819.038
'0:05.535',1840.308
'0:05.539',1873.982
'0:05.543',1871.084
'0:05.547',1892.311
'0:05.551',1905.482
'0:05.555',1939.924
'0:05.559',1955.312
'0:05.563',1977.306
'0:05.566',1958.977
'0:05.570',1989.028
'0:05.574',1988.261
'0:05.578',2010.256
'0:05.582',2032.975
'0:05.586',2041.756
'0:05.590',2059.360
'0:05.594',2074.748
'0:05.598',2073.256
'0:05.602',2076.922
'0:05.605',2105.481
'0:05.609',2117.970
'0:05.613',2106.973
'0:05.617',2130.417
'0:05.621',2123.085
'0:05.625',2107.697
'0:05.629',2084.978
'0:05.633',2067.416
'0:05.637',2043.248
'0:05.641',2024.194
'0:05.645',2001.475
'0:05.648',1986.087
'0:05.652',1926.753
'0:05.656',1910.640
'0:05.660',1849.089
'0:05.664',1805.867
'0:05.668',1765.586
'0:05.672',1730.420
'0:05.676',1686.431
'0:05.680',1667.420
'0:05.684',1601.478
'0:05.688',1558.981
'0:05.691',1513.542
'0:05.695',1473.261
'0:05.699',1424.199
'0:05.703',1377.311
'0:05.707',1363.373
'0:05.711',1296.707
'0:05.715',1266.656
'0:05.719',1191.209
'0:05.723',1120.152
'0:05.727',1103.315
'0:05.730',1029.318
'0:05.734',1005.149
'0:05.738',939.208
'0:05.742',901.101
'0:05.746',861.544
'0:05.750',793.429
'0:05.754',780.215
'0:05.758',758.988
'0:05.762',728.937
'0:05.766',725.996
'0:05.770',715.765
'0:05.773',711.375
'0:05.777',710.608
'0:05.781',668.878
'0:05.785',724.546
'0:05.789',731.878
'0:05.793',713.549
'0:05.797',764.103
'0:05.801',788.271
'0:05.805',824.162
'0:05.809',845.432
'0:05.813',859.328
'0:05.816',866.659
'0:05.820',882.772
'0:05.824',927.486
'0:05.828',917.938
'0:05.832',939.208
'0:05.836',984.604
'0:05.840',1011.713
'0:05.844',1024.927
'0:05.848',1040.315
'0:05.852',1054.936
'0:05.855',1068.874
'0:05.859',1080.596
'0:05.863',1090.826
'0:05.867',1090.102
'0:05.871',1068.874
'0:05.875',1115.762
'0:05.879',1123.818
'0:05.883',1091.593
'0:05.887',1136.989
'0:05.891',1115.037
'0:05.895',1150.203
'0:05.898',1158.260
'0:05.902',1188.992
'0:05.906',1172.880
'0:05.910',1204.380
'0:05.914',1233.706
'0:05.918',1254.209
'0:05.922',1278.378
'0:05.926',1308.429
'0:05.930',1344.319
'0:05.934',1364.097
'0:05.938',1395.598
'0:05.941',1389.758
'0:05.945',1434.429
'0:05.949',1444.702
'0:05.953',1499.646
'0:05.957',1493.764
'0:05.961',1538.478
'0:05.965',1592.697
'0:05.969',1614.649
'0:05.973',1610.259
'0:05.977',1638.818
'0:05.980',1676.201
'0:05.984',1696.703
'0:05.988',1751.647
'0:05.992',1755.313
'0:05.996',1794.145
'0:06.000',1824.921
'0:06.004',1822.704
'0:06.008',1846.148
'0:06.012',1885.704
'0:06.016',1904.033
'0:06.020',1901.092
'0:06.023',1920.870
'0:06.027',1928.926
'0:06.031',1916.480
'0:06.035',1904.758
'0:06.039',1889.370
'0:06.043',1900.367
'0:06.047',1879.865
'0:06.051',1890.095
'0:06.055',1882.039
'0:06.059',1868.143
'0:06.063',1860.811
'0:06.066',1850.538
'0:06.070',1874.750
'0:06.074',1861.536
'0:06.078',1838.092
'0:06.082',1862.260
'0:06.086',1840.308
'0:06.090',1843.974
'0:06.094',1858.595
'0:06.098',1841.033
'0:06.102',1871.084
'0:06.105',1867.418
'0:06.109',1868.867
'0:06.113',1881.314
'0:06.117',1900.367
'0:06.121',1918.696
'0:06.125',1947.980
'0:06.129',1931.868
'0:06.133',1946.531
'0:06.137',1973.640
'0:06.141',1966.309
'0:06.145',1971.424
'0:06.148',1971.424
'0:06.152',1978.756
'0:06.156',1958.977
'0:06.160',1960.427
'0:06.164',1972.149
'0:06.168',1964.092
'0:06.172',1949.472
'0:06.176',1947.980
'0:06.180',1926.028
'0:06.184',1918.696
'0:06.188',1900.367
'0:06.191',1873.982
'0:06.195',1852.030
'0:06.199',1824.921
'0:06.203',1835.151
'0:06.207',1771.426
'0:06.211',1750.923
'0:06.215',1726.754
'0:06.219',1687.923
'0:06.223',1660.813
'0:06.227',1632.254
'0:06.230',1588.264
'0:06.234',1578.759
'0:06.238',1542.144
'0:06.242',1538.478
'0:06.246',1489.373
'0:06.250',1514.309
'0:06.254',1458.598
'0:06.258',1442.486
'0:06.262',1442.486
'0:06.266',1471.812
'0:06.270',1471.045
'0:06.273',1441.036
'0:06.277',1446.151
'0:06.281',1482.042
'0:06.285',1472.536
'0:06.289',1525.264
'0:06.293',1515.034
'0:06.297',1558.256
'0:06.301',1552.374
'0:06.305',1577.310
'0:06.309',1617.591
'0:06.313',1626.371
'0:06.316',1616.866
'0:06.320',1639.543
'0:06.324',1657.147
'0:06.328',1664.479
'0:06.332',1646.150
'0:06.336',1669.594
'0:06.340',1663.754
'0:06.344',1637.369
'0:06.348',1619.765
'0:06.352',1599.986
'0:06.355',1574.369
'0:06.359',1564.096
'0:06.363',1526.031
'0:06.367',1494.489
'0:06.371',1437.371
'0:06.375',1384.600
'0:06.379',1347.260
'0:06.383',1312.819
'0:06.387',1235.880
'0:06.391',1171.431
'0:06.395',1101.099
'0:06.398',1066.658
'0:06.402',989.761
'0:06.406',925.994
'0:06.410',894.494
'0:06.414',848.373
'0:06.418',799.269
'0:06.422',747.990
'0:06.426',702.552
'0:06.430',667.386
'0:06.434',613.209
'0:06.438',577.276
'0:06.441',558.222
'0:06.445',528.938
'0:06.449',495.989
'0:06.453',465.213
'0:06.457',419.050
'0:06.461',441.045
'0:06.465',402.938
'0:06.469',383.160
'0:06.473',399.997
'0:06.477',378.002
'0:06.480',419.775
'0:06.484',386.825
'0:06.488',435.887
'0:06.492',406.604
'0:06.496',421.267
'0:06.500',455.665
'0:06.504',500.379
'0:06.508',477.660
'0:06.512',543.602
'0:06.516',530.388
'0:06.520',581.666
'0:06.523',624.163
'0:06.527',658.605
'0:06.531',651.273
'0:06.535',724.546
'0:06.539',760.437
'0:06.543',782.432
'0:06.547',789.763
'0:06.551',811.715
'0:06.555',850.547
'0:06.559',909.157
'0:06.563',916.488
'0:06.566',946.539
'0:06.570',995.601
'0:06.574',989.761
'0:06.578',1013.205
'0:06.582',1062.992
'0:06.586',1079.871
'0:06.590',1073.989
'0:06.594',1075.481
'0:06.598',1135.540
'0:06.602',1124.543
'0:06.605',1158.984
'0:06.609',1143.596
'0:06.613',1182.428
'0:06.617',1210.987
'0:06.621',1229.316
'0:06.625',1211.712
'0:06.629',1235.880
'0:06.633',1268.872
'0:06.637',1297.431
'0:06.641',1293.766
'0:06.645',1358.258
'0:06.648',1353.100
'0:06.652',1364.822
'0:06.656',1399.263
'0:06.660',1427.098
'0:06.664',1466.654
'0:06.668',1506.211
'0:06.672',1528.930
'0:06.676',1511.368
'0:06.680',1547.259
'0:06.684',1558.981
'0:06.688',1577.310
'0:06.691',1608.043
'0:06.695',1630.037
'0:06.699',1648.366
'0:06.703',1647.642
'0:06.707',1655.698
'0:06.711',1690.864
'0:06.715',1693.038
'0:06.719',1692.313
'0:06.723',1672.535
'0:06.727',1672.535
'0:06.730',1657.147
'0:06.734',1632.254
'0:06.738',1621.256
'0:06.742',1639.543
'0:06.746',1594.147
'0:06.750',1569.253
'0:06.754',1550.200
'0:06.758',1520.149
'0:06.762',1520.874
'0:06.766',1473.986
'0:06.770',1466.654
'0:06.773',1408.812
'0:06.777',1414.651
'0:06.781',1354.592
'0:06.785',1350.202
'0:06.789',1339.929
'0:06.793',1315.036
'0:06.797',1262.265
'0:06.801',1217.594
'0:06.805',1200.714
'0:06.809',1205.872
'0:06.813',1158.260
'0:06.816',1115.762
'0:06.820',1103.315
'0:06.824',1118.703
'0:06.828',1093.767
'0:06.832',1076.206
'0:06.836',1089.377
'0:06.840',1070.323
'0:06.844',1070.323
'0:06.848',1060.818
'0:06.852',1070.323
'0:06.855',1076.206
'0:06.859',1083.537
'0:06.863',1087.928
'0:06.867',1085.711
'0:06.871',1112.096
'0:06.875',1125.267
'0:06.879',1108.430
'0:06.883',1152.377
'0:06.887',1131.150
'0:06.891',1172.155
'0:06.895',1151.653
'0:06.898',1195.599
'0:06.902',1214.653
'0:06.906',1188.268
'0:06.910',1204.380
'0:06.914',1226.375
'0:06.918',1247.602
'0:06.922',1271.814
'0:06.926',1286.434
'0:06.930',1309.878
'0:06.934',1345.811
'0:06.938',1336.263
'0:06.941',1378.036
'0:06.945',1390.483
'0:06.949',1403.654
'0:06.953',1416.100
'0:06.957',1412.477
'0:06.961',1460.090
'0:06.965',1479.143
'0:06.969',1475.478
'0:06.973',1485.708
'0:06.977',1524.539
'0:06.980',1517.208
'0:06.984',1574.369
'0:06.988',1570.703
'0:06.992',1588.264
'0:06.996',1631.487
'0:07.000',1654.930
'0:07.004',1671.810
'0:07.008',1679.142
'0:07.012',1693.038
'0:07.016',1673.259
'0:07.020',1661.537
'0:07.023',1656.422
'0:07.027',1638.093
'0:07.031',1633.703
'0:07.035',1628.588
'0:07.039',1599.986
'0:07.043',1569.253
'0:07.047',1534.088
'0:07.051',1517.208
'0:07.055',1481.317
'0:07.059',1442.486
'0:07.063',1422.707
'0:07.066',1399.988
'0:07.070',1397.090
'0:07.074',1389.033
'0:07.078',1335.538
'0:07.082',1329.656
'0:07.086',1315.760
'0:07.090',1296.707
'0:07.094',1279.870
'0:07.098',1258.600
'0:07.102',1227.100
'0:07.105',1204.380
'0:07.109',1186.819
'0:07.113',1119.428
'0:07.117',1107.706
'0:07.121',1112.821
'0:07.125',1041.764
'0:07.129',1063.759
'0:07.133',1022.711
'0:07.137',982.430
'0:07.141',955.320
'0:07.145',934.050
'0:07.148',956.769
'0:07.152',918.662
'0:07.156',946.539
'0:07.160',919.430
'0:07.164',953.828
'0:07.168',962.652
'0:07.172',955.320
'0:07.176',1004.382
'0:07.180',1005.149
'0:07.184',1069.599
'0:07.188',1112.821
'0:07.191',1156.768
'0:07.195',1167.765
'0:07.199',1265.207
'0:07.203',1287.926
'0:07.207',1347.985
'0:07.211',1417.592
'0:07.215',1471.812
'0:07.219',1509.876
'0:07.223',1583.874
'0:07.227',1598.537
'0:07.230',1664.479
'0:07.234',1682.040
'0:07.238',1690.864
'0:07.242',1695.254
'0:07.246',1701.818
'0:07.250',1713.540
'0:07.254',1711.366
'0:07.258',1695.254
'0:07.262',1680.591
'0:07.266',1660.813
'0:07.270',1627.821
'0:07.273',1586.090
'0:07.277',1567.762
'0:07.281',1558.981
'0:07.285',1514.309
'0:07.289',1484.258
'0:07.293',1471.045
'0:07.297',1471.045
'0:07.301',1452.758
'0:07.305',1449.093
'0:07.309',1485.708
'0:07.313',1477.652
'0:07.316',1452.758
'0:07.320',1449.817
'0:07.324',1468.871
'0:07.328',1478.376
'0:07.332',1468.871
'0:07.336',1521.598
'0:07.340',1522.366
'0:07.344',1526.756
'0:07.348',1515.034
'0:07.352',1569.253
'0:07.355',1552.374
'0:07.359',1573.644
'0:07.363',1619.765
'0:07.367',1609.534
'0:07.371',1632.978
'0:07.375',1632.978
'0:07.379',1676.925
'0:07.383',1674.709
'0:07.387',1709.150
'0:07.391',1692.313
'0:07.395',1704.035
'0:07.398',1715.032
'0:07.402',1726.754
'0:07.406',1708.425
'0:07.410',1695.254
'0:07.414',1703.310
'0:07.418',1674.709
'0:07.422',1657.147
'0:07.426',1671.810
'0:07.430',1619.040
'0:07.434',1641.759
'0:07.438',1602.928
'0:07.441',1590.481
'0:07.445',1596.321
'0:07.449',1552.374
'0:07.453',1532.596
'0:07.457',1522.366
'0:07.461',1520.149
'0:07.465',1504.037
'0:07.469',1505.486
'0:07.473',1492.315
'0:07.477',1488.649
'0:07.480',1486.432
'0:07.484',1445.427
'0:07.488',1476.927
'0:07.492',1421.983
'0:07.496',1453.483
'0:07.500',1399.263
'0:07.504',1421.258
'0:07.508',1376.544
'0:07.512',1396.322
'0:07.516',1357.491
'0:07.520',1388.266
'0:07.523',1383.151
'0:07.527',1339.929
'0:07.531',1323.817
'0:07.535',1347.985
'0:07.539',1310.645
'0:07.543',1326.758
'0:07.547',1304.763
'0:07.551',1280.594
'0:07.555',1281.319
'0:07.559',1260.816
'0:07.563',1248.370
'0:07.566',1213.204
'0:07.570',1199.265
'0:07.574',1167.765
'0:07.578',1138.481
'0:07.582',1144.321
'0:07.586',1101.824
'0:07.590',1063.759
'0:07.594',1074.714
'0:07.598',1038.823
'0:07.602',1016.104
'0:07.605',994.876
'0:07.609',986.096
'0:07.613',960.435
'0:07.617',937.716
'0:07.621',926.761
'0:07.625',873.266
'0:07.629',863.718
'0:07.633',843.940
'0:07.637',852.763
'0:07.641',867.384
'0:07.645',851.996
'0:07.648',824.162
'0:07.652',849.822
'0:07.656',819.047
'0:07.660',806.600
'0:07.664',846.156
'0:07.668',829.319
'0:07.672',854.937
'0:07.676',823.437
'0:07.680',856.429
'0:07.684',876.207
'0:07.688',884.988
'0:07.691',912.823
'0:07.695',902.550
'0:07.699',895.261
'0:07.703',936.991
'0:07.707',967.767
'0:07.711',964.101
'0:07.715',1002.208
'0:07.719',1024.160
'0:07.723',1039.548
'0:07.727',1044.706
'0:07.730',1044.706
'0:07.734',1093.767
'0:07.738',1123.818
'0:07.742',1098.158
'0:07.746',1145.770
'0:07.750',1181.703
'0:07.754',1175.097
'0:07.758',1177.270
'0:07.762',1206.597
'0:07.766',1215.378
'0:07.770',1231.490
'0:07.773',1260.816
'0:07.777',1293.041
'0:07.781',1323.817
'0:07.785',1320.875
'0:07.789',1329.656
'0:07.793',1324.541
'0:07.797',1341.378
'0:07.801',1393.424
'0:07.805',1367.039
'0:07.809',1383.876
'0:07.813',1402.929
'0:07.816',1437.371
'0:07.820',1416.100
'0:07.824',1419.042
'0:07.828',1435.154
'0:07.832',1437.371
'0:07.836',1465.930
'0:07.840',1481.317
'0:07.844',1503.312
'0:07.848',1483.534
'0:07.852',1482.767
'0:07.855',1495.256
'0:07.859',1498.154
'0:07.863',1524.539
'0:07.867',1501.820
'0:07.871',1545.809
'0:07.875',1516.483
'0:07.879',1542.144
'0:07.883',1534.088
'0:07.887',1574.369
'0:07.891',1581.700
'0:07.895',1570.703
'0:07.898',1599.262
'0:07.902',1573.644
'0:07.906',1600.754
'0:07.910',1621.981
'0:07.914',1616.866
'0:07.918',1617.591
'0:07.922',1646.874
'0:07.926',1651.265
'0:07.930',1645.425
'0:07.934',1654.206
'0:07.938',1672.535
'0:07.941',1681.316
'0:07.945',1643.208
'0:07.949',1654.206
'0:07.953',1625.647
'0:07.957',1636.644
'0:07.961',1616.141
'0:07.965',1596.321
'0:07.969',1549.433
'0:07.973',1536.986
'0:07.977',1512.093
'0:07.980',1449.093
'0:07.984',1433.705
'0:07.988',1432.980
'0:07.992',1366.314
'0:07.996',1372.878
'0:08.000',1350.202
'0:08.004',1339.929
'0:08.008',1297.431
'0:08.012',1282.768
'0:08.016',1306.979
'0:08.020',1290.100
'0:08.023',1264.482
'0:08.027',1270.322
'0:08.031',1276.204
'0:08.035',1303.314
'0:08.039',1260.092
'0:08.043',1273.263
'0:08.047',1290.824
'0:08.051',1279.102
'0:08.055',1238.821
'0:08.059',1265.931
'0:08.063',1227.824
'0:08.066',1212.436
'0:08.070',1232.257
'0:08.074',1230.765
'0:08.078',1196.324
'0:08.082',1191.209
'0:08.086',1204.380
'0:08.090',1196.324
'0:08.094',1192.658
'0:08.098',1191.934
'0:08.102',1177.270
'0:08.105',1175.097
'0:08.109',1147.262
'0:08.113',1179.487
'0:08.117',1161.158
'0:08.121',1172.155
'0:08.125',1218.319
'0:08.129',1191.934
'0:08.133',1241.038
'0:08.137',1251.268
'0:08.141',1290.824
'0:08.145',1281.319
'0:08.148',1313.544
'0:08.152',1369.213
'0:08.156',1373.646
'0:08.160',1395.598
'0:08.164',1432.255
'0:08.168',1490.098
'0:08.172',1493.764
'0:08.176',1528.930
'0:08.180',1545.042
'0:08.184',1563.371
'0:08.188',1594.147
'0:08.191',1628.588
'0:08.195',1628.588
'0:08.199',1606.593
'0:08.203',1620.532
'0:08.207',1648.366
'0:08.211',1608.043
'0:08.215',1599.986
'0:08.219',1605.144
'0:08.223',1615.374
'0:08.227',1594.147
'0:08.230',1562.647
'0:08.234',1558.981
'0:08.238',1569.253
'0:08.242',1526.756
'0:08.246',1528.205
'0:08.250',1510.644
'0:08.254',1528.930
'0:08.258',1507.702
'0:08.262',1478.376
'0:08.266',1457.149
'0:08.270',1485.708
'0:08.273',1473.261
'0:08.277',1437.371
'0:08.281',1425.649
'0:08.285',1428.590
'0:08.289',1462.264
'0:08.293',1452.758
'0:08.297',1462.264
'0:08.301',1490.865
'0:08.305',1479.143
'0:08.309',1523.090
'0:08.313',1504.761
'0:08.316',1529.654
'0:08.320',1558.256
'0:08.324',1522.366
'0:08.328',1536.261
'0:08.332',1558.981
'0:08.336',1534.812
'0:08.340',1525.264
'0:08.344',1539.927
'0:08.348',1510.644
'0:08.352',1487.924
'0:08.355',1501.095
'0:08.359',1488.649
'0:08.363',1475.478
'0:08.367',1428.590
'0:08.371',1419.766
'0:08.375',1401.480
'0:08.379',1365.589
'0:08.383',1371.429
'0:08.387',1364.822
'0:08.391',1325.990
'0:08.395',1335.538
'0:08.398',1308.429
'0:08.402',1284.985
'0:08.406',1303.314
'0:08.410',1294.490
'0:08.414',1265.207
'0:08.418',1279.102
'0:08.422',1280.594
'0:08.426',1276.204
'0:08.430',1312.095
'0:08.434',1290.824
'0:08.438',1323.092
'0:08.441',1286.434
'0:08.445',1324.541
'0:08.449',1351.651
'0:08.453',1323.817
'0:08.457',1367.039
'0:08.461',1366.314
'0:08.465',1361.156
'0:08.469',1384.600
'0:08.473',1408.812
'0:08.477',1434.429
'0:08.480',1441.036
'0:08.484',1441.036
'0:08.488',1467.421
'0:08.492',1482.042
'0:08.496',1489.373
'0:08.500',1492.315
'0:08.504',1495.980
'0:08.508',1496.705
'0:08.512',1498.154
'0:08.516',1507.702
'0:08.520',1512.093
'0:08.523',1512.093
'0:08.527',1550.200
'0:08.531',1524.539
'0:08.535',1554.590
'0:08.539',1551.649
'0:08.543',1541.376
'0:08.547',1556.040
'0:08.551',1552.374
'0:08.555',1558.256
'0:08.559',1566.312
'0:08.563',1579.484
'0:08.566',1574.369
'0:08.570',1581.700
'0:08.574',1553.866
'0:08.578',1564.096
'0:08.582',1555.315
'0:08.586',1540.652
'0:08.590',1561.155
'0:08.594',1555.315
'0:08.598',1567.037
'0:08.602',1539.203
'0:08.605',1554.590
'0:08.609',1569.978
'0:08.613',1528.205
'0:08.617',1549.433
'0:08.621',1563.371
'0:08.625',1520.874
'0:08.629',1552.374
'0:08.633',1506.211
'0:08.637',1506.211
'0:08.641',1513.542
'0:08.645',1479.868
'0:08.648',1506.211
'0:08.652',1480.593
'0:08.656',1459.323
'0:08.660',1437.371
'0:08.664',1427.822
'0:08.668',1419.766
'0:08.672',1428.590
'0:08.676',1405.870
'0:08.680',1399.263
'0:08.684',1358.982
'0:08.688',1372.878
'0:08.691',1359.707
'0:08.695',1306.212
'0:08.699',1331.873
'0:08.703',1270.322
'0:08.707',1290.100
'0:08.711',1230.765
'0:08.715',1209.538
'0:08.719',1216.869
'0:08.723',1202.931
'0:08.727',1162.650
'0:08.730',1152.377
'0:08.734',1170.706
'0:08.738',1160.433
'0:08.742',1106.981
'0:08.746',1121.602
'0:08.750',1126.759
'0:08.754',1091.593
'0:08.758',1121.602
'0:08.762',1109.155
'0:08.766',1075.481
'0:08.770',1095.259
'0:08.773',1106.214
'0:08.777',1115.762
'0:08.781',1116.487
'0:08.785',1118.703
'0:08.789',1128.933
'0:08.793',1135.540
'0:08.797',1125.992
'0:08.801',1153.102
'0:08.805',1153.102
'0:08.809',1161.925
'0:08.813',1194.875
'0:08.816',1217.594
'0:08.820',1236.648
'0:08.824',1223.434
'0:08.828',1229.316
'0:08.832',1288.651
'0:08.836',1282.044
'0:08.840',1331.148
'0:08.844',1310.645
'0:08.848',1346.536
'0:08.852',1388.266
'0:08.855',1402.929
'0:08.859',1404.378
'0:08.863',1405.146
'0:08.867',1460.814
'0:08.871',1433.705
'0:08.875',1487.200
'0:08.879',1478.376
'0:08.883',1460.090
'0:08.887',1506.211
'0:08.891',1471.812
'0:08.895',1474.710
'0:08.898',1510.644
'0:08.902',1470.320
'0:08.906',1487.924
'0:08.910',1469.595
'0:08.914',1504.761
'0:08.918',1469.595
'0:08.922',1498.922
'0:08.926',1450.542
'0:08.930',1489.373
'0:08.934',1446.151
'0:08.938',1461.539
'0:08.941',1461.539
'0:08.945',1438.820
'0:08.949',1473.261
'0:08.953',1435.154
'0:08.957',1457.149
'0:08.961',1425.649
'0:08.965',1465.930
'0:08.969',1421.258
'0:08.973',1425.649
'0:08.977',1455.699
'0:08.980',1426.373
'0:08.984',1430.039
'0:08.988',1433.705
'0:08.992',1441.036
'0:08.996',1424.199
'0:09.000',1444.702
'0:09.004',1439.544
'0:09.008',1438.095
'0:09.012',1457.873
'0:09.016',1421.258
'0:09.020',1441.036
'0:09.023',1430.039
'0:09.027',1431.488
'0:09.031',1460.090
'0:09.035',1424.924
'0:09.039',1443.977
'0:09.043',1423.432
'0:09.047',1448.368
'0:09.051',1406.595
'0:09.055',1437.371
'0:09.059',1404.378
'0:09.063',1392.656
'0:09.066',1402.205
'0:09.070',1391.207
'0:09.074',1405.146
'0:09.078',1377.311
'0:09.082',1375.095
'0:09.086',1402.929
'0:09.090',1393.424
'0:09.094',1369.213
'0:09.098',1347.985
'0:09.102',1356.766
'0:09.105',1373.646
'0:09.109',1367.763
'0:09.113',1356.766
'0:09.117',1308.429
'0:09.121',1293.766
'0:09.125',1280.594
'0:09.129',1280.594
'0:09.133',1290.100
'0:09.137',1268.148
'0:09.141',1262.990
'0:09.145',1209.538
'0:09.148',1233.706
'0:09.152',1191.209
'0:09.156',1215.378
'0:09.160',1174.372
'0:09.164',1213.928
'0:09.168',1167.765
'0:09.172',1204.380
'0:09.176',1159.709
'0:09.180',1203.656
'0:09.184',1175.097
'0:09.188',1205.872
'0:09.191',1187.543
'0:09.195',1219.768
'0:09.199',1205.147
'0:09.203',1186.819
'0:09.207',1213.928
'0:09.211',1231.490
'0:09.215',1213.928
'0:09.219',1229.316
'0:09.223',1262.990
'0:09.227',1231.490
'0:09.230',1280.594
'0:09.234',1259.324
'0:09.238',1299.648
'0:09.242',1285.709
'0:09.246',1300.373
'0:09.250',1311.370
'0:09.254',1330.423
'0:09.258',1335.538
'0:09.262',1330.423
'0:09.266',1388.266
'0:09.270',1375.819
'0:09.273',1371.429
'0:09.277',1403.654
'0:09.281',1418.317
'0:09.285',1407.320
'0:09.289',1427.098
'0:09.293',1442.486
'0:09.297',1477.652
'0:09.301',1451.266
'0:09.305',1498.154
'0:09.309',1468.871
'0:09.313',1506.978
'0:09.316',1477.652
'0:09.320',1514.309
'0:09.324',1492.315
'0:09.328',1476.927
'0:09.332',1496.705
'0:09.336',1473.986
'0:09.340',1462.264
'0:09.344',1487.200
'0:09.348',1441.761
'0:09.352',1442.486
'0:09.355',1451.266
'0:09.359',1416.100
'0:09.363',1404.378
'0:09.367',1391.932
'0:09.371',1376.544
'0:09.375',1371.429
'0:09.379',1379.485
'0:09.383',1369.213
'0:09.387',1371.429
'0:09.391',1371.429
'0:09.395',1323.092
'0:09.398',1329.656
'0:09.402',1348.710
'0:09.406',1318.701
'0:09.410',1317.934
'0:09.414',1350.202
'0:09.418',1362.648
'0:09.422',1333.322
'0:09.426',1339.204
'0:09.430',1368.488
'0:09.434',1387.541
'0:09.438',1406.595
'0:09.441',1421.983
'0:09.445',1441.761
'0:09.449',1473.261
'0:09.453',1483.534
'0:09.457',1483.534
'0:09.461',1525.264
'0:09.465',1519.424
'0:09.469',1556.764
'0:09.473',1578.759
'0:09.477',1553.866
'0:09.480',1580.975
'0:09.484',1567.037
'0:09.488',1571.427
'0:09.492',1580.208
'0:09.496',1558.256
'0:09.500',1583.874
'0:09.504',1573.644
'0:09.508',1547.983
'0:09.512',1523.090
'0:09.516',1531.871
'0:09.520',1517.932
'0:09.523',1504.761
'0:09.527',1477.652
'0:09.531',1487.200
'0:09.535',1464.480
'0:09.539',1435.921
'0:09.543',1432.980
'0:09.547',1440.312
'0:09.551',1435.921
'0:09.555',1408.044
'0:09.559',1423.432
'0:09.563',1408.812
'0:09.566',1384.600
'0:09.570',1392.656
'0:09.574',1397.090
'0:09.578',1404.378
'0:09.582',1428.590
'0:09.586',1424.199
'0:09.590',1431.488
'0:09.594',1445.427
'0:09.598',1430.039
'0:09.602',1435.921
'0:09.605',1454.932
'0:09.609',1442.486
'0:09.613',1443.977
'0:09.617',1488.649
'0:09.621',1493.039
'0:09.625',1485.708
'0:09.629',1503.312
'0:09.633',1514.309
'0:09.637',1534.088
'0:09.641',1518.700
'0:09.645',1559.705
'0:09.648',1550.200
'0:09.652',1577.310
'0:09.656',1576.542
'0:09.660',1566.312
'0:09.664',1588.264
'0:09.668',1597.088
'0:09.672',1582.425
'0:09.676',1594.147
'0:09.680',1619.040
'0:09.684',1615.374
'0:09.688',1610.259
'0:09.691',1643.976
'0:09.695',1631.487
'0:09.699',1625.647
'0:09.703',1632.254
'0:09.707',1646.150
'0:09.711',1676.201
'0:09.715',1679.866
'0:09.719',1667.420
'0:09.723',1657.147
'0:09.727',1669.594
'0:09.730',1693.762
'0:09.734',1687.198
'0:09.738',1697.428
'0:09.742',1682.040
'0:09.746',1685.706
'0:09.750',1704.035
'0:09.754',1676.925
'0:09.758',1658.596
'0:09.762',1678.374
'0:09.766',1664.479
'0:09.770',1620.532
'0:09.773',1607.318
'0:09.777',1613.925
'0:09.781',1597.088
'0:09.785',1563.371
'0:09.789',1556.764
'0:09.793',1504.761
'0:09.797',1487.200
'0:09.801',1445.427
'0:09.805',1416.100
'0:09.809',1402.205
'0:09.813',1378.036
'0:09.816',1329.656
'0:09.820',1301.097
'0:09.824',1274.712
'0:09.828',1223.434
'0:09.832',1228.591
'0:09.836',1185.369
'0:09.840',1150.203
'0:09.844',1100.374
'0:09.848',1112.096
'0:09.852',1096.708
'0:09.855',1069.599
'0:09.859',1054.211
'0:09.863',1038.099
'0:09.867',1015.379
'0:09.871',963.376
'0:09.875',961.927
'0:09.879',982.430
'0:09.883',945.047
'0:09.887',977.272
'0:09.891',938.483
'0:09.895',936.991
'0:09.898',980.213
'0:09.902',998.542
'0:09.906',967.767
'0:09.910',1008.772
'0:09.914',1043.214
'0:09.918',1046.155
'0:09.922',1038.823
'0:09.926',1062.267
'0:09.930',1115.037
'0:09.934',1143.596
'0:09.938',1139.931
'0:09.941',1146.538
'0:09.945',1161.158
'0:09.949',1174.372
'0:09.953',1226.375
'0:09.957',1193.425
'0:09.961',1244.704
'0:09.965',1226.375
'0:09.969',1238.821
'0:09.973',1270.322
'0:09.977',1245.428
'0:09.980',1262.265
'0:09.984',1246.878
'0:09.988',1264.482
'0:09.992',1280.594
'0:09.996',1241.763
'0:10.000',1282.044
'0:10.004',1267.380
'0:10.008',1242.487
'0:10.012',1240.313
'0:10.016',1261.541
'0:10.020',1273.987
'0:10.023',1254.934
'0:10.027',1237.372
'0:10.031',1248.370
'0:10.035',1284.260
'0:10.039',1284.985
'0:10.043',1243.979
'0:10.047',1261.541
'0:10.051',1285.709
'0:10.055',1285.709
'0:10.059',1263.757
'0:10.063',1279.870
'0:10.066',1278.378
'0:10.070',1290.100
'0:10.074',1303.314
'0:10.078',1314.268
'0:10.082',1335.538
'0:10.086',1344.319
'0:10.090',1397.814
'0:10.094',1399.988
'0:10.098',1443.210
'0:10.102',1419.766
'0:10.105',1471.812
'0:10.109',1488.649
'0:10.113',1469.595
'0:10.117',1482.767
'0:10.121',1532.596
'0:10.125',1501.095
'0:10.129',1512.093
'0:10.133',1548.708
'0:10.137',1547.259
'0:10.141',1529.654
'0:10.145',1509.876
'0:10.148',1506.978
'0:10.152',1504.037
'0:10.156',1524.539
'0:10.160',1471.812
'0:10.164',1502.587
'0:10.168',1451.266
'0:10.172',1450.542
'0:10.176',1447.601
'0:10.180',1419.766
'0:10.184',1438.820
'0:10.188',1394.148
'0:10.191',1399.988
'0:10.195',1414.651
'0:10.199',1374.370
'0:10.203',1359.707
'0:10.207',1336.988
'0:10.211',1350.202
'0:10.215',1350.202
'0:10.219',1345.811
'0:10.223',1316.485
'0:10.227',1307.704
'0:10.230',1297.431
'0:10.234',1291.592
'0:10.238',1286.434
'0:10.242',1289.375
'0:10.246',1309.153
'0:10.250',1309.878
'0:10.254',1314.268
'0:10.258',1315.760
'0:10.262',1339.929
'0:10.266',1373.646
'0:10.270',1342.870
'0:10.273',1347.260
'0:10.277',1375.819
'0:10.281',1394.148
'0:10.285',1374.370
'0:10.289',1365.589
'0:10.293',1379.485
'0:10.297',1387.541
'0:10.301',1384.600
'0:10.305',1373.646
'0:10.309',1400.755
'0:10.313',1420.533
'0:10.316',1402.205
'0:10.320',1430.039
'0:10.324',1410.261
'0:10.328',1448.368
'0:10.332',1410.985
'0:10.336',1432.255
'0:10.340',1460.814
'0:10.344',1450.542
'0:10.348',1463.756
'0:10.352',1485.708
'0:10.355',1459.323
'0:10.359',1453.483
'0:10.363',1471.812
'0:10.367',1484.258
'0:10.371',1444.702
'0:10.375',1458.598
'0:10.379',1454.932
'0:10.383',1429.314
'0:10.387',1424.924
'0:10.391',1440.312
'0:10.395',1408.044
'0:10.398',1442.486
'0:10.402',1397.814
'0:10.406',1427.098
'0:10.410',1384.600
'0:10.414',1421.983
'0:10.418',1398.539
'0:10.422',1373.646
'0:10.426',1415.376
'0:10.430',1399.263
'0:10.434',1391.207
'0:10.438',1384.600
'0:10.441',1435.921
'0:10.445',1430.039
'0:10.449',1416.868
'0:10.453',1469.595
'0:10.457',1470.320
'0:10.461',1471.045
'0:10.465',1487.924
'0:10.469',1504.037
'0:10.473',1493.764
'0:10.477',1545.809
'0:10.480',1509.152
'0:10.484',1513.542
'0:10.488',1539.927
'0:10.492',1540.652
'0:10.496',1509.876
'0:10.500',1517.932
'0:10.504',1496.705
'0:10.508',1499.646
'0:10.512',1467.421
'0:10.516',1441.761
'0:10.520',1447.601
'0:10.523',1397.814
'0:10.527',1366.314
'0:10.531',1381.702
'0:10.535',1364.097
'0:10.539',1323.817
'0:10.543',1317.934
'0:10.547',1300.373
'0:10.551',1283.536
'0:10.555',1286.434
'0:10.559',1273.987
'0:10.563',1241.038
'0:10.566',1247.602
'0:10.570',1251.268
'0:10.574',1243.979
'0:10.578',1249.094
'0:10.582',1247.602
'0:10.586',1198.541
'0:10.590',1225.650
'0:10.594',1243.979
'0:10.598',1210.262
'0:10.602',1227.100
'0:10.605',1252.035
'0:10.609',1252.760
'0:10.613',1250.543
'0:10.617',1220.535
'0:10.621',1222.709
'0:10.625',1240.313
'0:10.629',1241.038
'0:10.633',1245.428
'0:10.637',1260.092
'0:10.641',1291.592
'0:10.645',1274.712
'0:10.648',1259.324
'0:10.652',1266.656
'0:10.656',1268.148
'0:10.660',1292.316
'0:10.664',1308.429
'0:10.668',1318.701
'0:10.672',1316.485
'0:10.676',1318.701
'0:10.680',1349.434
'0:10.684',1325.990
'0:10.688',1356.766
'0:10.691',1341.378
'0:10.695',1333.322
'0:10.699',1334.089
'0:10.703',1325.990
'0:10.707',1326.758
'0:10.711',1341.378
'0:10.715',1335.538
'0:10.719',1365.589
'0:10.723',1325.990
'0:10.727',1331.148
'0:10.730',1336.988
'0:10.734',1355.317
'0:10.738',1350.926
'0:10.742',1320.151
'0:10.746',1328.932
'0:10.750',1332.597
'0:10.754',1315.760
'0:10.758',1314.268
'0:10.762',1330.423
'0:10.766',1357.491
'0:10.770',1315.036
'0:10.773',1334.089
'0:10.777',1341.378
'0:10.781',1342.870
'0:10.785',1350.202
'0:10.789',1384.600
'0:10.793',1378.036
'0:10.797',1402.205
'0:10.801',1416.100
'0:10.805',1394.148
'0:10.809',1436.646
'0:10.813',1453.483
'0:10.816',1465.930
'0:10.820',1441.761
'0:10.824',1453.483
'0:10.828',1480.593
'0:10.832',1473.986
'0:10.836',1530.422
'0:10.840',1504.761
'0:10.844',1506.978
'0:10.848',1540.652
'0:10.852',1531.871
'0:10.855',1523.090
'0:10.859',1547.983
'0:10.863',1543.593
'0:10.867',1534.088
'0:10.871',1528.205
'0:10.875',1516.483
'0:10.879',1530.422
'0:10.883',1540.652
'0:10.887',1509.876
'0:10.891',1495.980
'0:10.895',1498.922
'0:10.898',1465.930
'0:10.902',1473.986
'0:10.906',1462.264
'0:10.910',1483.534
'0:10.914',1482.042
'0:10.918',1433.705
'0:10.922',1469.595
'0:10.926',1439.544
'0:10.930',1427.822
'0:10.934',1416.868
'0:10.938',1448.368
'0:10.941',1416.868
'0:10.945',1435.154
'0:10.949',1411.710
'0:10.953',1419.766
'0:10.957',1390.483
'0:10.961',1407.320
'0:10.965',1376.544
'0:10.969',1400.755
'0:10.973',1365.589
'0:10.977',1391.932
'0:10.980',1377.311
'0:10.984',1343.595
'0:10.988',1370.704
'0:10.992',1364.822
'0:10.996',1346.536
'0:11.000',1323.817
'0:11.004',1345.811
'0:11.008',1319.426
'0:11.012',1317.934
'0:11.016',1315.036
'0:11.020',1342.870
'0:11.023',1329.656
'0:11.027',1323.817
'0:11.031',1316.485
'0:11.035',1306.212
'0:11.039',1294.490
'0:11.043',1292.316
'0:11.047',1278.378
'0:11.051',1277.653
'0:11.055',1273.263
'0:11.059',1258.600
'0:11.063',1246.878
'0:11.066',1236.648
'0:11.070',1216.102
'0:11.074',1221.984
'0:11.078',1252.760
'0:11.082',1230.041
'0:11.086',1211.712
'0:11.090',1219.043
'0:11.094',1239.546
'0:11.098',1240.313
'0:11.102',1227.100
'0:11.105',1235.880
'0:11.109',1222.709
'0:11.113',1268.872
'0:11.117',1267.380
'0:11.121',1252.035
'0:11.125',1237.372
'0:11.129',1243.212
'0:11.133',1282.044
'0:11.137',1264.482
'0:11.141',1262.990
'0:11.145',1257.150
'0:11.148',1267.380
'0:11.152',1261.541
'0:11.156',1252.760
'0:11.160',1243.212
'0:11.164',1249.819
'0:11.168',1246.878
'0:11.172',1280.594
'0:11.176',1262.265
'0:11.180',1247.602
'0:11.184',1254.209
'0:11.188',1241.038
'0:11.191',1221.260
'0:11.195',1266.656
'0:11.199',1232.257
'0:11.203',1238.097
'0:11.207',1234.431
'0:11.211',1216.102
'0:11.215',1217.594
'0:11.219',1234.431
'0:11.223',1261.541
'0:11.227',1260.092
'0:11.230',1249.819
'0:11.234',1257.150
'0:11.238',1262.265
'0:11.242',1270.322
'0:11.246',1246.153
'0:11.250',1247.602
'0:11.254',1274.712
'0:11.258',1282.044
'0:11.262',1286.434
'0:11.266',1304.038
'0:11.270',1326.758
'0:11.273',1334.814
'0:11.277',1338.480
'0:11.281',1338.480
'0:11.285',1341.378
'0:11.289',1378.036
'0:11.293',1360.432
'0:11.297',1362.648
'0:11.301',1384.600
'0:11.305',1413.927
'0:11.309',1381.702
'0:11.313',1414.651
'0:11.316',1388.266
'0:11.320',1432.980
'0:11.324',1404.378
'0:11.328',1401.480
'0:11.332',1424.924
'0:11.336',1388.266
'0:11.340',1423.432
'0:11.344',1399.263
'0:11.348',1381.702
'0:11.352',1392.656
'0:11.355',1383.876
'0:11.359',1367.763
'0:11.363',1372.878
'0:11.367',1378.761
'0:11.371',1367.039
'0:11.375',1340.654
'0:11.379',1383.151
'0:11.383',1353.867
'0:11.387',1345.811
'0:11.391',1383.151
'0:11.395',1344.319
'0:11.398',1389.033
'0:11.402',1377.311
'0:11.406',1410.985
'0:11.410',1405.870
'0:11.414',1421.983
'0:11.418',1441.036
'0:11.422',1473.261
'0:11.426',1472.536
'0:11.430',1494.489
'0:11.434',1498.154
'0:11.438',1497.430
'0:11.441',1512.093
'0:11.445',1505.486
'0:11.449',1503.312
'0:11.453',1507.702
'0:11.457',1523.815
'0:11.461',1504.037
'0:11.465',1470.320
'0:11.469',1457.149
'0:11.473',1450.542
'0:11.477',1432.255
'0:11.480',1419.042
'0:11.484',1418.317
'0:11.488',1422.707
'0:11.492',1417.592
'0:11.496',1383.876
'0:11.500',1418.317
'0:11.504',1378.036
'0:11.508',1365.589
'0:11.512',1372.154
'0:11.516',1380.210
'0:11.520',1377.311
'0:11.523',1379.485
'0:11.527',1365.589
'0:11.531',1358.982
'0:11.535',1337.712
'0:11.539',1331.873
'0:11.543',1319.426
'0:11.547',1322.367
'0:11.551',1320.875
'0:11.555',1322.367
'0:11.559',1324.541
'0:11.563',1329.656
'0:11.566',1367.763
'0:11.570',1386.817
'0:11.574',1390.483
'0:11.578',1389.033
'0:11.582',1385.368
'0:11.586',1367.763
'0:11.590',1373.646
'0:11.594',1385.368
'0:11.598',1392.656
'0:11.602',1406.595
'0:11.605',1402.205
'0:11.609',1424.924
'0:11.613',1425.649
'0:11.617',1419.766
'0:11.621',1397.814
'0:11.625',1389.758
'0:11.629',1404.378
'0:11.633',1437.371
'0:11.637',1399.263
'0:11.641',1424.924
'0:11.645',1449.093
'0:11.648',1413.202
'0:11.652',1413.202
'0:11.656',1449.817
'0:11.660',1413.202
'0:11.664',1450.542
'0:11.668',1457.149
'0:11.672',1427.822
'0:11.676',1424.924
'0:11.680',1443.210
'0:11.684',1435.154
'0:11.688',1407.320
'0:11.691',1432.980
'0:11.695',1424.199
'0:11.699',1407.320
'0:11.703',1430.039
'0:11.707',1430.039
'0:11.711',1399.988
'0:11.715',1432.255
'0:11.719',1412.477
'0:11.723',1421.258
'0:11.727',1410.985
'0:11.730',1397.814
'0:11.734',1408.812
'0:11.738',1398.539
'0:11.742',1386.817
'0:11.746',1369.980
'0:11.750',1362.648
'0:11.754',1358.982
'0:11.758',1355.317
'0:11.762',1349.434
'0:11.766',1341.378
'0:11.770',1317.934
'0:11.773',1301.822
'0:11.777',1296.707
'0:11.781',1287.201
'0:11.785',1272.538
'0:11.789',1270.322
'0:11.793',1305.488
'0:11.797',1325.990
'0:11.801',1309.878
'0:11.805',1298.923
'0:11.809',1348.710
'0:11.813',1331.873
'0:11.816',1363.373
'0:11.820',1345.811
'0:11.824',1386.817
'0:11.828',1363.373
'0:11.832',1392.656
'0:11.836',1385.368
'0:11.840',1403.654
'0:11.844',1424.199
'0:11.848',1401.480
'0:11.852',1390.483
'0:11.855',1408.044
'0:11.859',1433.705
'0:11.863',1399.988
'0:11.867',1393.424
'0:11.871',1401.480
'0:11.875',1417.592
'0:11.879',1435.921
'0:11.883',1422.707
'0:11.887',1434.429
'0:11.891',1423.432
'0:11.895',1456.424
'0:11.898',1418.317
'0:11.902',1427.098
'0:11.906',1454.932
'0:11.910',1430.039
'0:11.914',1455.699
'0:11.918',1443.210
'0:11.922',1462.264
'0:11.926',1421.983
'0:11.930',1427.098
'0:11.934',1453.483
'0:11.938',1449.093
'0:11.941',1434.429
'0:11.945',1442.486
'0:11.949',1448.368
'0:11.953',1484.258
'0:11.957',1470.320
'0:11.961',1460.090
'0:11.965',1479.868
'0:11.969',1495.980
'0:11.973',1504.037
'0:11.977',1515.034
'0:11.980',1523.090
'0:11.984',1537.711
'0:11.988',1585.366
'0:11.992',1595.596
'0:11.996',1581.700
'0:12.000',1568.486
'0:12.004',1575.093
'0:12.008',1601.478
'0:12.012',1604.419
'0:12.016',1605.869
'0:12.020',1604.419
'0:12.023',1584.599
'0:12.027',1583.874
'0:12.031',1558.256
'0:12.035',1552.374
'0:12.039',1553.098
'0:12.043',1560.430
'0:12.047',1515.759
'0:12.051',1511.368
'0:12.055',1533.320
'0:12.059',1496.705
'0:12.063',1479.143
'0:12.066',1476.202
'0:12.070',1481.317
'0:12.074',1464.480
'0:12.078',1490.098
'0:12.082',1457.873
'0:12.086',1456.424
'0:12.090',1449.093
'0:12.094',1469.595
'0:12.098',1438.095
'0:12.102',1413.202
'0:12.105',1443.977
'0:12.109',1419.042
'0:12.113',1386.092
'0:12.117',1382.426
'0:12.121',1361.924
'0:12.125',1352.376
'0:12.129',1346.536
'0:12.133',1339.929
'0:12.137',1352.376
'0:12.141',1355.317
'0:12.145',1331.148
'0:12.148',1317.210
'0:12.152',1301.822
'0:12.156',1282.768
'0:12.160',1259.324
'0:12.164',1250.543
'0:12.168',1249.819
'0:12.172',1215.378
'0:12.176',1195.599
'0:12.180',1196.324
'0:12.184',1163.375
'0:12.188',1176.546
'0:12.191',1153.869
'0:12.195',1159.709
'0:12.199',1120.877
'0:12.203',1104.765
'0:12.207',1115.762
'0:12.211',1089.377
'0:12.215',1060.818
'0:12.219',1099.650
'0:12.223',1087.160
'0:12.227',1072.540
'0:12.230',1062.267
'0:12.234',1089.377
'0:12.238',1098.158
'0:12.242',1101.099
'0:12.246',1105.489
'0:12.250',1087.160
'0:12.254',1079.104
'0:12.258',1092.318
'0:12.262',1129.658
'0:12.266',1125.992
'0:12.270',1111.372
'0:12.273',1115.037
'0:12.277',1170.706
'0:12.281',1139.206
'0:12.285',1173.647
'0:12.289',1194.150
'0:12.293',1166.316
'0:12.297',1183.877
'0:12.301',1206.597
'0:12.305',1223.434
'0:12.309',1237.372
'0:12.313',1257.875
'0:12.316',1275.479
'0:12.320',1306.212
'0:12.324',1315.036
'0:12.328',1312.095
'0:12.332',1324.541
'0:12.336',1315.036
'0:12.340',1327.482
'0:12.344',1361.156
'0:12.348',1372.878
'0:12.352',1376.544
'0:12.355',1354.592
'0:12.359',1391.932
'0:12.363',1391.932
'0:12.367',1412.477
'0:12.371',1412.477
'0:12.375',1434.429
'0:12.379',1454.932
'0:12.383',1482.767
'0:12.387',1501.095
'0:12.391',1504.761
'0:12.395',1483.534
'0:12.398',1512.093
'0:12.402',1526.756
'0:12.406',1531.871
'0:12.410',1534.088
'0:12.414',1559.705
'0:12.418',1598.537
'0:12.422',1607.318
'0:12.426',1613.200
'0:12.430',1591.930
'0:12.434',1620.532
'0:12.438',1624.198
'0:12.441',1647.642
'0:12.445',1632.254
'0:12.449',1643.976
'0:12.453',1652.032
'0:12.457',1686.431
'0:12.461',1662.262
'0:12.465',1652.757
'0:12.469',1685.706
'0:12.473',1669.594
'0:12.477',1657.147
'0:12.480',1688.647
'0:12.484',1648.366
'0:12.488',1675.476
'0:12.492',1652.757
'0:12.496',1658.596
'0:12.500',1643.208
'0:12.504',1627.821
'0:12.508',1643.976
'0:12.512',1613.200
'0:12.516',1619.765
'0:12.520',1630.037
'0:12.523',1585.366
'0:12.527',1601.478
'0:12.531',1601.478
'0:12.535',1566.312
'0:12.539',1536.986
'0:12.543',1537.711
'0:12.547',1545.809
'0:12.551',1526.031
'0:12.555',1497.430
'0:12.559',1474.710
'0:12.563',1490.098
'0:12.566',1438.095
'0:12.570',1451.266
'0:12.574',1411.710
'0:12.578',1402.929
'0:12.582',1376.544
'0:12.586',1349.434
'0:12.590',1332.597
'0:12.594',1325.266
'0:12.598',1308.429
'0:12.602',1282.044
'0:12.605',1273.987
'0:12.609',1293.766
'0:12.613',1279.102
'0:12.617',1224.926
'0:12.621',1225.650
'0:12.625',1241.038
'0:12.629',1222.709
'0:12.633',1203.656
'0:12.637',1232.257
'0:12.641',1221.984
'0:12.645',1195.599
'0:12.648',1227.100
'0:12.652',1244.704
'0:12.656',1240.313
'0:12.660',1235.156
'0:12.664',1239.546
'0:12.668',1243.212
'0:12.672',1228.591
'0:12.676',1240.313
'0:12.680',1263.757
'0:12.684',1263.757
'0:12.688',1265.931
'0:12.691',1253.485
'0:12.695',1305.488
'0:12.699',1273.263
'0:12.703',1284.260
'0:12.707',1326.758
'0:12.711',1317.210
'0:12.715',1311.370
'0:12.719',1348.710
'0:12.723',1326.758
'0:12.727',1364.097
'0:12.730',1347.260
'0:12.734',1371.429
'0:12.738',1395.598
'0:12.742',1376.544
'0:12.746',1383.876
'0:12.750',1399.263
'0:12.754',1421.258
'0:12.758',1386.092
'0:12.762',1402.205
'0:12.766',1417.592
'0:12.770',1381.702
'0:12.773',1408.812
'0:12.777',1375.095
'0:12.781',1407.320
'0:12.785',1373.646
'0:12.789',1384.600
'0:12.793',1386.817
'0:12.797',1348.710
'0:12.801',1378.761
'0:12.805',1331.148
'0:12.809',1316.485
'0:12.813',1343.595
'0:12.816',1331.148
'0:12.820',1304.763
'0:12.824',1262.990
'0:12.828',1258.600
'0:12.832',1266.656
'0:12.836',1277.653
'0:12.840',1260.816
'0:12.844',1227.824
'0:12.848',1209.538
'0:12.852',1199.265
'0:12.855',1197.091
'0:12.859',1193.425
'0:12.863',1217.594
'0:12.867',1201.482
'0:12.871',1227.824
'0:12.875',1238.097
'0:12.879',1229.316
'0:12.883',1213.928
'0:12.887',1229.316
'0:12.891',1259.324
'0:12.895',1287.201
'0:12.898',1306.212
'0:12.902',1326.758
'0:12.906',1329.656
'0:12.910',1345.044
'0:12.914',1338.480
'0:12.918',1361.156
'0:12.922',1384.600
'0:12.926',1403.654
'0:12.930',1391.207
'0:12.934',1444.702
'0:12.938',1446.151
'0:12.941',1426.373
'0:12.945',1437.371
'0:12.949',1471.812
'0:12.953',1441.036
'0:12.957',1464.480
'0:12.961',1481.317
'0:12.965',1460.090
'0:12.969',1481.317
'0:12.973',1447.601
'0:12.977',1483.534
'0:12.980',1460.090
'0:12.984',1452.034
'0:12.988',1452.034
'0:12.992',1479.868
'0:12.996',1446.151
'0:13.000',1492.315
'0:13.004',1463.756
'0:13.008',1485.708
'0:13.012',1470.320
'0:13.016',1492.315
'0:13.020',1519.424
'0:13.023',1528.930
'0:13.027',1529.654
'0:13.031',1515.034
'0:13.035',1519.424
'0:13.039',1543.593
'0:13.043',1567.762
'0:13.047',1537.711
'0:13.051',1543.593
'0:13.055',1548.708
'0:13.059',1556.764
'0:13.063',1575.093
'0:13.066',1572.152
'0:13.070',1582.425
'0:13.074',1608.043
'0:13.078',1589.032
'0:13.082',1597.812
'0:13.086',1625.647
'0:13.090',1635.920
'0:13.094',1644.700
'0:13.098',1641.035
'0:13.102',1674.709
'0:13.105',1687.923
'0:13.109',1676.925
'0:13.113',1701.818
'0:13.117',1715.757
'0:13.121',1705.484
'0:13.125',1723.088
'0:13.129',1723.813
'0:13.133',1736.260
'0:13.137',1722.364
'0:13.141',1709.875
'0:13.145',1728.204
'0:13.148',1719.423
'0:13.152',1699.645
'0:13.156',1695.979
'0:13.160',1698.920
'0:13.164',1704.760
'0:13.168',1721.597
'0:13.172',1685.706
'0:13.176',1685.706
'0:13.180',1679.866
'0:13.184',1709.150
'0:13.188',1699.645
'0:13.191',1690.864
'0:13.195',1710.642
'0:13.199',1678.374
'0:13.203',1684.981
'0:13.207',1708.425
'0:13.211',1678.374
'0:13.215',1687.923
'0:13.219',1690.864
'0:13.223',1706.251
'0:13.227',1673.259
'0:13.230',1660.088
'0:13.234',1657.147
'0:13.238',1660.813
'0:13.242',1645.425
'0:13.246',1622.706
'0:13.250',1620.532
'0:13.254',1641.759
'0:13.258',1629.313
'0:13.262',1610.984
'0:13.266',1566.312
'0:13.270',1573.644
'0:13.273',1538.478
'0:13.277',1511.368
'0:13.281',1521.598
'0:13.285',1454.208
'0:13.289',1433.705
'0:13.293',1405.146
'0:13.297',1377.311
'0:13.301',1352.376
'0:13.305',1326.758
'0:13.309',1306.979
'0:13.313',1309.153
'0:13.316',1247.602
'0:13.320',1249.819
'0:13.324',1235.156
'0:13.328',1179.487
'0:13.332',1197.816
'0:13.336',1145.770
'0:13.340',1138.481
'0:13.344',1153.102
'0:13.348',1129.658
'0:13.352',1103.315
'0:13.355',1065.208
'0:13.359',1051.270
'0:13.363',1046.879
'0:13.367',1026.377
'0:13.371',1021.986
'0:13.375',1044.706
'0:13.379',1016.871
'0:13.383',994.152
'0:13.387',1030.767
'0:13.391',1012.438
'0:13.395',991.211
'0:13.398',989.761
'0:13.402',1010.989
'0:13.406',983.879
'0:13.410',959.710
'0:13.414',976.548
'0:13.418',996.326
'0:13.422',988.994
'0:13.426',950.930
'0:13.430',972.157
'0:13.434',991.211
'0:13.438',989.761
'0:13.441',969.983
'0:13.445',999.991
'0:13.449',1016.871
'0:13.453',1032.984
'0:13.457',1045.430
'0:13.461',1046.155
'0:13.465',1021.262
'0:13.469',1065.208
'0:13.473',1088.652
'0:13.477',1076.930
'0:13.480',1082.045
'0:13.484',1116.487
'0:13.488',1143.596
'0:13.492',1151.653
'0:13.496',1123.818
'0:13.500',1141.380
'0:13.504',1176.546
'0:13.508',1199.990
'0:13.512',1214.653
'0:13.516',1221.260
'0:13.520',1206.597
'0:13.523',1208.046
'0:13.527',1226.375
'0:13.531',1239.546
'0:13.535',1299.648
'0:13.539',1310.645
'0:13.543',1299.648
'0:13.547',1306.212
'0:13.551',1353.100
'0:13.555',1389.033
'0:13.559',1368.488
'0:13.563',1402.205
'0:13.566',1458.598
'0:13.570',1482.767
'0:13.574',1490.865
'0:13.578',1511.368
'0:13.582',1561.155
'0:13.586',1594.147
'0:13.590',1613.925
'0:13.594',1664.479
'0:13.598',1684.257
'0:13.602',1717.931
'0:13.605',1763.369
'0:13.609',1807.316
'0:13.613',1823.429
'0:13.617',1863.752
'0:13.621',1882.039
'0:13.625',1893.760
'0:13.629',1909.873
'0:13.633',1945.039
'0:13.637',1939.924
'0:13.641',1957.528
'0:13.645',1989.753
'0:13.648',2012.472
'0:13.652',2013.921
'0:13.656',2008.082
'0:13.660',2014.646
'0:13.664',2022.702
'0:13.668',2041.031
'0:13.672',2056.419
'0:13.676',2054.970
'0:13.680',2032.975
'0:13.684',2032.250
'0:13.688',2038.815
'0:13.691',2016.138
'0:13.695',1992.694
'0:13.699',1972.149
'0:13.703',1966.309
'0:13.707',1923.087
'0:13.711',1898.151
'0:13.715',1877.648
'0:13.719',1834.426
'0:13.723',1791.928
'0:13.727',1789.755
'0:13.730',1716.482
'0:13.734',1714.308
'0:13.738',1662.262
'0:13.742',1614.649
'0:13.746',1561.155
'0:13.750',1500.371
'0:13.754',1479.143
'0:13.758',1410.985
'0:13.762',1387.541
'0:13.766',1349.434
'0:13.770',1296.707
'0:13.773',1232.982
'0:13.777',1185.369
'0:13.781',1177.270
'0:13.785',1109.155
'0:13.789',1067.382
'0:13.793',1079.871
'0:13.797',1046.879
'0:13.801',995.601
'0:13.805',972.882
'0:13.809',965.550
'0:13.813',964.826
'0:13.816',959.710
'0:13.820',917.938
'0:13.824',929.660
'0:13.828',958.261
'0:13.832',934.817
'0:13.836',929.660
'0:13.840',939.208
'0:13.844',979.489
'0:13.848',992.660
'0:13.852',999.991
'0:13.855',1017.596
'0:13.859',1035.157
'0:13.863',1045.430
'0:13.867',1059.326
'0:13.871',1070.323
'0:13.875',1076.206
'0:13.879',1073.265
'0:13.883',1119.428
'0:13.887',1106.981
'0:13.891',1156.043
'0:13.895',1130.425
'0:13.898',1169.982
'0:13.902',1165.591
'0:13.906',1149.436
'0:13.910',1167.040
'0:13.914',1192.658
'0:13.918',1167.765
'0:13.922',1175.097
'0:13.926',1186.094
'0:13.930',1153.102
'0:13.934',1186.094
'0:13.938',1198.541
'0:13.941',1194.150
'0:13.945',1194.150
'0:13.949',1205.147
'0:13.953',1208.813
'0:13.957',1224.158
'0:13.961',1230.765
'0:13.965',1224.158
'0:13.969',1224.158
'0:13.973',1246.878
'0:13.977',1280.594
'0:13.980',1325.266
'0:13.984',1304.763
'0:13.988',1332.597
'0:13.992',1359.707
'0:13.996',1394.148
'0:14.000',1438.820
'0:14.004',1484.983
'0:14.008',1540.652
'0:14.012',1540.652
'0:14.016',1598.537
'0:14.020',1643.976
'0:14.023',1666.652
'0:14.027',1712.816
'0:14.031',1774.367
'0:14.035',1801.477
'0:14.039',1833.701
'0:14.043',1851.306
'0:14.047',1847.640
'0:14.051',1849.089
'0:14.055',1860.086
'0:14.059',1884.255
'0:14.063',1884.980
'0:14.066',1890.862
'0:14.070',1878.373
'0:14.074',1879.140
'0:14.078',1883.530
'0:14.082',1890.862
'0:14.086',1890.862
'0:14.090',1890.095
'0:14.094',1878.373
'0:14.098',1870.317
'0:14.102',1879.140
'0:14.105',1872.533
'0:14.109',1843.974
'0:14.113',1839.584
'0:14.117',1841.033
'0:14.121',1821.255
'0:14.125',1819.038
'0:14.129',1804.418
'0:14.133',1794.870
'0:14.137',1780.206
'0:14.141',1778.033
'0:14.145',1744.316
'0:14.148',1734.810
'0:14.152',1714.308
'0:14.156',1717.206
'0:14.160',1691.588
'0:14.164',1717.931
'0:14.168',1671.810
'0:14.172',1682.040
'0:14.176',1684.257
'0:14.180',1666.652
'0:14.184',1702.586
'0:14.188',1669.594
'0:14.191',1708.425
'0:14.195',1675.476
'0:14.199',1703.310
'0:14.203',1687.923
'0:14.207',1717.931
'0:14.211',1681.316
'0:14.215',1712.816
'0:14.219',1687.923
'0:14.223',1684.257
'0:14.227',1687.198
'0:14.230',1699.645
'0:14.234',1682.040
'0:14.238',1689.372
'0:14.242',1674.709
'0:14.246',1667.420
'0:14.250',1659.364
'0:14.254',1652.757
'0:14.258',1661.537
'0:14.262',1682.807
'0:14.266',1642.484
'0:14.270',1671.810
'0:14.273',1649.815
'0:14.277',1668.144
'0:14.281',1636.644
'0:14.285',1639.543
'0:14.289',1648.366
'0:14.293',1607.318
'0:14.297',1629.313
'0:14.301',1591.206
'0:14.305',1602.928
'0:14.309',1610.259
'0:14.313',1580.975
'0:14.316',1561.922
'0:14.320',1537.711
'0:14.324',1564.820
'0:14.328',1545.042
'0:14.332',1501.820
'0:14.336',1482.767
'0:14.340',1471.045
'0:14.344',1452.034
'0:14.348',1457.149
'0:14.352',1389.758
'0:14.355',1402.205
'0:14.359',1328.207
'0:14.363',1318.701
'0:14.367',1296.707
'0:14.371',1240.313
'0:14.375',1198.541
'0:14.379',1200.714
'0:14.383',1149.436
'0:14.387',1101.099
'0:14.391',1079.104
'0:14.395',1046.155
'0:14.398',1015.379
'0:14.402',945.772
'0:14.406',941.382
'0:14.410',887.929
'0:14.414',893.044
'0:14.418',843.215
'0:14.422',836.651
'0:14.426',846.881
'0:14.430',826.378
'0:14.434',806.600
'0:14.438',783.881
'0:14.441',795.603
'0:14.445',767.768
'0:14.449',796.327
'0:14.453',793.429
'0:14.457',807.325
'0:14.461',793.429
'0:14.465',799.993
'0:14.469',807.325
'0:14.473',792.662
'0:14.477',835.884
'0:14.480',856.429
'0:14.484',861.544
'0:14.488',844.707
'0:14.492',893.769
'0:14.496',876.207
'0:14.500',919.430
'0:14.504',928.210
'0:14.508',912.823
'0:14.512',938.483
'0:14.516',972.157
'0:14.520',969.983
'0:14.523',1013.205
'0:14.527',1018.320
'0:14.531',1021.262
'0:14.535',1014.655
'0:14.539',1038.099
'0:14.543',1061.543
'0:14.547',1108.430
'0:14.551',1109.880
'0:14.555',1132.599
'0:14.559',1161.925
'0:14.563',1175.821
'0:14.566',1230.765
'0:14.570',1232.257
'0:14.574',1298.156
'0:14.578',1333.322
'0:14.582',1369.980
'0:14.586',1381.702
'0:14.590',1425.649
'0:14.594',1481.317
'0:14.598',1496.705
'0:14.602',1545.042
'0:14.605',1611.708
'0:14.609',1683.532
'0:14.613',1697.428
'0:14.617',1750.198
'0:14.621',1811.707
'0:14.625',1876.199
'0:14.629',1918.696
'0:14.633',1964.092
'0:14.637',2026.368
'0:14.641',2052.753
'0:14.645',2076.197
'0:14.648',2117.970
'0:14.652',2156.034
'0:14.656',2169.248
'0:14.660',2204.414
'0:14.664',2208.080
'0:14.668',2231.524
'0:14.672',2239.580
'0:14.676',2224.917
'0:14.680',2241.754
'0:14.684',2238.088
'0:14.688',2229.308
'0:14.691',2210.979
'0:14.695',2176.580
'0:14.699',2156.034
'0:14.703',2151.644
'0:14.707',2116.478
'0:14.711',2092.310
'0:14.715',2071.807
'0:14.719',2043.248
'0:14.723',2013.197
'0:14.727',1978.031
'0:14.730',1946.531
'0:14.734',1906.250
'0:14.738',1863.752
'0:14.742',1813.923
'0:14.746',1774.367
'0:14.750',1745.041
'0:14.754',1725.262
'0:14.758',1657.872
'0:14.762',1603.652
'0:14.766',1581.700
'0:14.770',1523.090
'0:14.773',1521.598
'0:14.777',1443.977
'0:14.781',1432.980
'0:14.785',1394.148
'0:14.789',1348.710
'0:14.793',1320.151
'0:14.797',1280.594
'0:14.801',1245.428
'0:14.805',1205.147
'0:14.809',1181.703
'0:14.813',1154.594
'0:14.816',1115.037
'0:14.820',1083.537
'0:14.824',1067.382
'0:14.828',1069.599
'0:14.832',1028.593
'0:14.836',977.272
'0:14.840',945.047
'0:14.844',948.713
'0:14.848',937.716
'0:14.852',921.603
'0:14.855',900.376
'0:14.859',874.715
'0:14.863',852.763
'0:14.867',846.156
'0:14.871',810.991
'0:14.875',815.381
'0:14.879',819.771
'0:14.883',846.881
'0:14.887',851.996
'0:14.891',857.154
'0:14.895',874.715
'0:14.898',883.539
'0:14.902',889.379
'0:14.906',900.376
'0:14.910',872.542
'0:14.914',928.935
'0:14.918',923.095
'0:14.922',910.606
'0:14.926',963.376
'0:14.930',942.873
'0:14.934',956.045
'0:14.938',968.491
'0:14.941',999.267
'0:14.945',1031.492
'0:14.949',1029.318
'0:14.953',1027.826
'0:14.957',1025.652
'0:14.961',1049.096
'0:14.965',1072.540
'0:14.969',1104.040
'0:14.973',1116.487
'0:14.977',1134.048
'0:14.980',1134.816
'0:14.984',1154.594
'0:14.988',1178.762
'0:14.992',1180.936
'0:14.996',1245.428
'0:15.000',1234.431
'0:15.004',1282.044
'0:15.008',1317.210
'0:15.012',1360.432
'0:15.016',1396.322
'0:15.020',1403.654
'0:15.023',1424.199
'0:15.027',1495.256
'0:15.031',1495.256
'0:15.035',1516.483
'0:15.039',1553.098
'0:15.043',1598.537
'0:15.047',1619.040
'0:15.051',1676.201
'0:15.055',1689.372
'0:15.059',1717.931
'0:15.063',1742.142
'0:15.066',1747.257
'0:15.070',1769.976
'0:15.074',1829.311
'0:15.078',1843.207
'0:15.082',1855.696
'0:15.086',1893.036
'0:15.090',1926.028
'0:15.094',1963.368
'0:15.098',2007.315
'0:15.102',2029.309
'0:15.105',2038.815
'0:15.109',2091.585
'0:15.113',2090.860
'0:15.117',2127.475
'0:15.121',2119.419
'0:15.125',2147.254
'0:15.129',2160.425
'0:15.133',2137.748
'0:15.137',2142.139
'0:15.141',2151.644
'0:15.145',2131.141
'0:15.148',2124.534
'0:15.152',2128.925
'0:15.156',2104.756
'0:15.160',2094.526
'0:15.164',2060.085
'0:15.168',2027.093
'0:15.172',2008.806
'0:15.176',1990.477
'0:15.180',1975.090
'0:15.184',1946.531
'0:15.188',1916.480
'0:15.191',1899.643
'0:15.195',1898.151
'0:15.199',1867.418
'0:15.203',1832.252
'0:15.207',1825.645
'0:15.211',1785.364
'0:15.215',1769.976
'0:15.219',1773.642
'0:15.223',1767.035
'0:15.227',1750.923
'0:15.230',1720.872
'0:15.234',1707.701
'0:15.238',1701.094
'0:15.242',1695.254
'0:15.246',1687.923
'0:15.250',1674.709
'0:15.254',1676.925
'0:15.258',1676.925
'0:15.262',1652.032
'0:15.266',1648.366
'0:15.270',1646.150
'0:15.273',1633.703
'0:15.277',1619.765
'0:15.281',1628.588
'0:15.285',1578.759
'0:15.289',1580.208
'0:15.293',1585.366
'0:15.297',1588.264
'0:15.301',1550.925
'0:15.305',1546.534
'0:15.309',1568.486
'0:15.313',1536.986
'0:15.316',1537.711
'0:15.320',1553.098
'0:15.324',1572.152
'0:15.328',1550.200
'0:15.332',1586.090
'0:15.336',1598.537
'0:15.340',1577.310
'0:15.344',1591.930
'0:15.348',1602.203
'0:15.352',1613.925
'0:15.355',1652.757
'0:15.359',1648.366
'0:15.363',1665.928
'0:15.367',1666.652
'0:15.371',1676.201
'0:15.375',1693.762
'0:15.379',1702.586
'0:15.383',1694.529
'0:15.387',1698.153
'0:15.391',1689.372
'0:15.395',1688.647
'0:15.398',1668.869
'0:15.402',1649.815
'0:15.406',1652.757
'0:15.410',1613.200
'0:15.414',1586.090
'0:15.418',1572.877
'0:15.422',1567.037
'0:15.426',1534.088
'0:15.430',1500.371
'0:15.434',1460.090
'0:15.438',1414.651
'0:15.441',1374.370
'0:15.445',1298.156
'0:15.449',1252.760
'0:15.453',1223.434
'0:15.457',1144.321
'0:15.461',1118.703
'0:15.465',1037.374
'0:15.469',973.649
'0:15.473',938.483
'0:15.477',845.432
'0:15.480',810.991
'0:15.484',764.103
'0:15.488',715.041
'0:15.492',628.554
'0:15.496',619.048
'0:15.500',542.877
'0:15.504',539.936
'0:15.508',520.158
'0:15.512',475.444
'0:15.516',474.719
'0:15.520',449.826
'0:15.523',423.441
'0:15.527',449.826
'0:15.531',409.545
'0:15.535',450.550
'0:15.539',457.882
'0:15.543',426.382
'0:15.547',438.104
'0:15.551',455.665
'0:15.555',477.660
'0:15.559',498.887
'0:15.563',544.326
'0:15.566',562.655
'0:15.570',553.107
'0:15.574',604.385
'0:15.578',598.546
'0:15.582',651.998
'0:15.586',676.934
'0:15.590',664.487
'0:15.594',720.156
'0:15.598',748.715
'0:15.602',769.218
'0:15.605',795.603
'0:15.609',823.437
'0:15.613',840.274
'0:15.617',894.494
'0:15.621',919.430
'0:15.625',941.382
'0:15.629',939.932
'0:15.633',1010.989
'0:15.637',1035.157
'0:15.641',1065.208
'0:15.645',1106.214
'0:15.648',1153.869
'0:15.652',1195.599
'0:15.656',1197.816
'0:15.660',1281.319
'0:15.664',1326.758
'0:15.668',1350.926
'0:15.672',1439.544
'0:15.676',1465.205
'0:15.680',1536.986
'0:15.684',1606.593
'0:15.688',1661.537
'0:15.691',1691.588
'0:15.695',1763.369
'0:15.699',1815.372
'0:15.703',1859.362
'0:15.707',1906.974
'0:15.711',1968.483
'0:15.715',2010.256
'0:15.719',2027.093
'0:15.723',2046.146
'0:15.727',2073.981
'0:15.730',2102.582
'0:15.734',2112.812
'0:15.738',2127.475
'0:15.742',2134.807
'0:15.746',2127.475
'0:15.750',2126.026
'0:15.754',2120.144
'0:15.758',2105.481
'0:15.762',2117.970
'0:15.766',2118.695
'0:15.770',2123.085
'0:15.773',2106.973
'0:15.777',2090.860
'0:15.781',2073.981
'0:15.785',2073.981
'0:15.789',2060.809
'0:15.793',2056.419
'0:15.797',2042.480
'0:15.801',2020.528
'0:15.805',1985.362
'0:15.809',1947.980
'0:15.813',1933.317
'0:15.816',1893.036
'0:15.820',1875.474
'0:15.824',1835.151
'0:15.828',1773.642
'0:15.832',1741.375
'0:15.836',1704.035
'0:15.840',1652.032
'0:15.844',1619.040
'0:15.848',1600.754
'0:15.852',1539.927
'0:15.855',1521.598
'0:15.859',1472.536
'0:15.863',1417.592
'0:15.867',1353.867
'0:15.871',1313.544
'0:15.875',1307.704
'0:15.879',1243.212
'0:15.883',1238.097
'0:15.887',1194.150
'0:15.891',1154.594
'0:15.895',1114.270
'0:15.898',1097.433
'0:15.902',1027.826
'0:15.906',1030.767
'0:15.910',987.545
'0:15.914',954.595
'0:15.918',910.606
'0:15.922',917.213
'0:15.926',913.547
'0:15.930',896.710
'0:15.934',875.440
'0:15.938',879.106
'0:15.941',859.328
'0:15.945',851.996
'0:15.949',865.935
'0:15.953',874.715
'0:15.957',864.485
'0:15.961',881.322
'0:15.965',909.157
'0:15.969',924.545
'0:15.973',936.267
'0:15.977',948.713
'0:15.980',945.047
'0:15.984',949.438
'0:15.988',1008.772
'0:15.992',1008.772
'0:15.996',1041.040
'0:16.000',1036.649
'0:16.004',1066.658
'0:16.008',1106.981
'0:16.012',1133.324
'0:16.016',1154.594
'0:16.020',1129.658
'0:16.023',1186.094
'0:16.027',1170.706
'0:16.031',1210.987
'0:16.035',1186.094
'0:16.039',1229.316
'0:16.043',1246.153
'0:16.047',1225.650
'0:16.051',1267.380
'0:16.055',1284.985
'0:16.059',1304.038
'0:16.063',1317.210
'0:16.066',1324.541
'0:16.070',1310.645
'0:16.074',1345.811
'0:16.078',1380.210
'0:16.082',1373.646
'0:16.086',1402.929
'0:16.090',1435.921
'0:16.094',1477.652
'0:16.098',1501.095
'0:16.102',1520.874
'0:16.105',1510.644
'0:16.109',1526.756
'0:16.113',1590.481
'0:16.117',1574.369
'0:16.121',1608.043
'0:16.125',1646.150
'0:16.129',1679.866
'0:16.133',1690.096
'0:16.137',1690.864
'0:16.141',1713.540
'0:16.145',1742.867
'0:16.148',1758.254
'0:16.152',1790.479
'0:16.156',1817.589
'0:16.160',1842.482
'0:16.164',1867.418
'0:16.168',1893.036
'0:16.172',1926.028
'0:16.176',1954.587
'0:16.180',1997.809
'0:16.184',2049.087
'0:16.188',2092.310
'0:16.191',2101.815
'0:16.195',2148.703
'0:16.199',2167.756
'0:16.203',2199.257
'0:16.207',2234.423
'0:16.211',2240.305
'0:16.215',2249.810
'0:16.219',2250.535
'0:16.223',2240.305
'0:16.227',2232.249
'0:16.230',2211.746
'0:16.234',2208.080
'0:16.238',2177.305
'0:16.242',2128.200
'0:16.246',2110.638
'0:16.250',2072.531
'0:16.254',2021.253
'0:16.258',1969.975
'0:16.262',1928.202
'0:16.266',1895.977
'0:16.270',1856.421
'0:16.273',1811.707
'0:16.277',1777.308
'0:16.281',1720.147
'0:16.285',1647.642
'0:16.289',1600.754
'0:16.293',1595.596
'0:16.297',1545.809
'0:16.301',1501.820
'0:16.305',1444.702
'0:16.309',1427.098
'0:16.313',1422.707
'0:16.316',1359.707
'0:16.320',1359.707
'0:16.324',1369.213
'0:16.328',1314.268
'0:16.332',1325.990
'0:16.336',1341.378
'0:16.340',1301.822
'0:16.344',1327.482
'0:16.348',1306.979
'0:16.352',1298.156
'0:16.355',1320.151
'0:16.359',1284.260
'0:16.363',1299.648
'0:16.367',1315.760
'0:16.371',1294.490
'0:16.375',1279.870
'0:16.379',1293.041
'0:16.383',1313.544
'0:16.387',1276.204
'0:16.391',1298.923
'0:16.395',1295.257
'0:16.398',1293.766
'0:16.402',1275.479
'0:16.406',1315.760
'0:16.410',1282.044
'0:16.414',1325.266
'0:16.418',1296.707
'0:16.422',1304.038
'0:16.426',1338.480
'0:16.430',1311.370
'0:16.434',1335.538
'0:16.438',1308.429
'0:16.441',1333.322
'0:16.445',1362.648
'0:16.449',1353.100
'0:16.453',1369.213
'0:16.457',1381.702
'0:16.461',1361.924
'0:16.465',1399.263
'0:16.469',1394.148
'0:16.473',1369.980
'0:16.477',1359.707
'0:16.480',1360.432
'0:16.484',1360.432
'0:16.488',1360.432
'0:16.492',1298.923
'0:16.496',1295.982
'0:16.500',1265.931
'0:16.504',1224.158
'0:16.508',1215.378
'0:16.512',1200.714
'0:16.516',1164.824
'0:16.520',1088.652
'0:16.523',1073.989
'0:16.527',1010.264
'0:16.531',1010.264
'0:16.535',953.828
'0:16.539',890.103
'0:16.543',879.873
'0:16.547',809.541
'0:16.551',767.044
'0:16.555',745.774
'0:16.559',725.271
'0:16.563',679.875
'0:16.566',647.607
'0:16.570',602.211
'0:16.574',619.773
'0:16.578',588.273
'0:16.582',558.989
'0:16.586',555.323
'0:16.590',588.273
'0:16.594',588.998
'0:16.598',589.765
'0:16.602',588.273
'0:16.605',606.602
'0:16.609',613.933
'0:16.613',620.498
'0:16.617',636.610
'0:16.621',640.276
'0:16.625',649.099
'0:16.629',673.993
'0:16.633',706.942
'0:16.637',710.608
'0:16.641',751.656
'0:16.645',769.218
'0:16.648',794.154
'0:16.652',808.774
'0:16.656',823.437
'0:16.660',845.432
'0:16.664',837.376
'0:16.668',885.713
'0:16.672',881.322
'0:16.676',916.488
'0:16.680',921.603
'0:16.684',952.379
'0:16.688',982.430
'0:16.691',956.769
'0:16.695',978.039
'0:16.699',1016.871
'0:16.703',1031.492
'0:16.707',1051.270
'0:16.711',1065.208
'0:16.715',1073.989
'0:16.719',1071.815
'0:16.723',1087.160
'0:16.727',1119.428
'0:16.730',1118.703
'0:16.734',1126.759
'0:16.738',1147.987
'0:16.742',1169.982
'0:16.746',1194.150
'0:16.750',1215.378
'0:16.754',1247.602
'0:16.758',1276.929
'0:16.762',1290.100
'0:16.766',1344.319
'0:16.770',1345.044
'0:16.773',1391.207
'0:16.777',1374.370
'0:16.781',1410.985
'0:16.785',1423.432
'0:16.789',1462.988
'0:16.793',1479.143
'0:16.797',1460.814
'0:16.801',1471.812
'0:16.805',1484.258
'0:16.809',1504.761
'0:16.813',1539.927
'0:16.816',1551.649
'0:16.820',1565.588
'0:16.824',1539.203
'0:16.828',1586.090
'0:16.832',1578.034
'0:16.836',1568.486
'0:16.840',1605.869
'0:16.844',1598.537
'0:16.848',1637.369
'0:16.852',1647.642
'0:16.855',1655.698
'0:16.859',1635.152
'0:16.863',1658.596
'0:16.867',1665.203
'0:16.871',1710.642
'0:16.875',1693.762
'0:16.879',1739.201
'0:16.883',1728.204
'0:16.887',1750.923
'0:16.891',1754.589
'0:16.895',1756.763
'0:16.898',1751.647
'0:16.902',1762.645
'0:16.906',1772.918
'0:16.910',1728.928
'0:16.914',1720.147
'0:16.918',1698.920
'0:16.922',1668.869
'0:16.926',1635.920
'0:16.930',1593.422
'0:16.934',1575.818
'0:16.938',1533.320
'0:16.941',1500.371
'0:16.945',1448.368
'0:16.949',1411.710
'0:16.953',1367.039
'0:16.957',1333.322
'0:16.961',1327.482
'0:16.965',1296.707
'0:16.969',1260.816
'0:16.973',1204.380
'0:16.977',1178.762
'0:16.980',1180.936
'0:16.984',1179.487
'0:16.988',1141.380
'0:16.992',1153.102
'0:16.996',1180.936
'0:17.000',1153.869
'0:17.004',1140.655
'0:17.008',1188.268
'0:17.012',1159.709
'0:17.016',1187.543
'0:17.020',1193.425
'0:17.023',1172.155
'0:17.027',1190.484
'0:17.031',1194.150
'0:17.035',1216.102
'0:17.039',1232.982
'0:17.043',1236.648
'0:17.047',1213.204
'0:17.051',1223.434
'0:17.055',1243.979
'0:17.059',1277.653
'0:17.063',1265.931
'0:17.066',1286.434
'0:17.070',1306.212
'0:17.074',1312.095
'0:17.078',1325.266
'0:17.082',1317.210
'0:17.086',1339.204
'0:17.090',1363.373
'0:17.094',1351.651
'0:17.098',1350.202
'0:17.102',1362.648
'0:17.105',1391.932
'0:17.109',1373.646
'0:17.113',1370.704
'0:17.117',1401.480
'0:17.121',1380.210
'0:17.125',1407.320
'0:17.129',1383.151
'0:17.133',1413.927
'0:17.137',1387.541
'0:17.141',1418.317
'0:17.145',1391.207
'0:17.148',1432.255
'0:17.152',1391.932
'0:17.156',1408.044
'0:17.160',1428.590
'0:17.164',1424.199
'0:17.168',1396.322
'0:17.172',1375.095
'0:17.176',1400.755
'0:17.180',1405.870
'0:17.184',1375.819
'0:17.188',1350.926
'0:17.191',1341.378
'0:17.195',1343.595
'0:17.199',1361.156
'0:17.203',1334.814
'0:17.207',1369.213
'0:17.211',1348.710
'0:17.215',1320.151
'0:17.219',1317.210
'0:17.223',1342.870
'0:17.227',1350.202
'0:17.230',1326.758
'0:17.234',1310.645
'0:17.238',1294.490
'0:17.242',1292.316
'0:17.246',1322.367
'0:17.250',1300.373
'0:17.254',1290.824
'0:17.258',1303.314
'0:17.262',1251.268
'0:17.266',1256.426
'0:17.270',1278.378
'0:17.273',1270.322
'0:17.277',1258.600
'0:17.281',1278.378
'0:17.285',1293.766
'0:17.289',1300.373
'0:17.293',1287.926
'0:17.297',1283.536
'0:17.301',1308.429
'0:17.305',1321.600
'0:17.309',1375.095
'0:17.313',1397.090
'0:17.316',1406.595
'0:17.320',1419.766
'0:17.324',1473.261
'0:17.328',1504.761
'0:17.332',1528.205
'0:17.336',1582.425
'0:17.340',1640.310
'0:17.344',1677.650
'0:17.348',1677.650
'0:17.352',1723.088
'0:17.355',1772.150
'0:17.359',1771.426
'0:17.363',1805.867
'0:17.367',1826.370
'0:17.371',1840.308
'0:17.375',1850.538
'0:17.379',1865.201
'0:17.383',1865.201
'0:17.387',1877.648
'0:17.391',1884.255
'0:17.395',1893.036
'0:17.398',1896.702
'0:17.402',1904.758
'0:17.406',1898.151
'0:17.410',1875.474
'0:17.414',1886.472
'0:17.418',1872.533
'0:17.422',1867.418
'0:17.426',1838.092
'0:17.430',1823.429
'0:17.434',1790.479
'0:17.438',1794.870
'0:17.441',1756.763
'0:17.445',1715.032
'0:17.449',1693.762
'0:17.453',1675.476
'0:17.457',1651.265
'0:17.461',1632.978
'0:17.465',1619.040
'0:17.469',1602.928
'0:17.473',1618.315
'0:17.477',1616.141
'0:17.480',1570.703
'0:17.484',1598.537
'0:17.488',1575.818
'0:17.492',1582.425
'0:17.496',1544.318
'0:17.500',1576.542
'0:17.504',1531.871
'0:17.508',1546.534
'0:17.512',1526.756
'0:17.516',1542.144
'0:17.520',1506.978
'0:17.523',1512.093
'0:17.527',1501.820
'0:17.531',1509.876
'0:17.535',1522.366
'0:17.539',1484.258
'0:17.543',1460.090
'0:17.547',1449.817
'0:17.551',1443.210
'0:17.555',1423.432
'0:17.559',1413.202
'0:17.563',1396.322
'0:17.566',1391.932
'0:17.570',1401.480
'0:17.574',1358.982
'0:17.578',1356.766
'0:17.582',1360.432
'0:17.586',1305.488
'0:17.590',1276.204
'0:17.594',1280.594
'0:17.598',1245.428
'0:17.602',1205.147
'0:17.605',1180.212
'0:17.609',1163.375
'0:17.613',1166.316
'0:17.617',1139.931
'0:17.621',1086.436
'0:17.625',1087.160
'0:17.629',1021.986
'0:17.633',1036.649
'0:17.637',989.761
'0:17.641',947.989
'0:17.645',969.983
'0:17.648',946.539
'0:17.652',932.601
'0:17.656',917.938
'0:17.660',898.884
'0:17.664',887.929
'0:17.668',882.772
'0:17.672',871.817
'0:17.676',868.151
'0:17.680',859.328
'0:17.684',846.156
'0:17.688',825.654
'0:17.691',844.707
'0:17.695',827.103
'0:17.699',854.937
'0:17.703',858.603
'0:17.707',861.544
'0:17.711',839.550
'0:17.715',843.940
'0:17.719',839.550
'0:17.723',885.713
'0:17.727',885.713
'0:17.730',866.659
'0:17.734',902.550
'0:17.738',914.272
'0:17.742',912.823
'0:17.746',898.159
'0:17.750',951.654
'0:17.754',948.713
'0:17.758',954.595
'0:17.762',996.326
'0:17.766',1012.438
'0:17.770',1013.205
'0:17.773',1047.604
'0:17.777',1065.933
'0:17.781',1095.984
'0:17.785',1101.824
'0:17.789',1140.655
'0:17.793',1162.650
'0:17.797',1186.094
'0:17.801',1209.538
'0:17.805',1290.824
'0:17.809',1341.378
'0:17.813',1391.932
'0:17.816',1413.927
'0:17.820',1487.200
'0:17.824',1526.756
'0:17.828',1590.481
'0:17.832',1660.088
'0:17.836',1733.319
'0:17.840',1801.477
'0:17.844',1862.260
'0:17.848',1934.084
'0:17.852',2013.197
'0:17.855',2059.360
'0:17.859',2128.200
'0:17.863',2180.203
'0:17.867',2216.861
'0:17.871',2284.252
'0:17.875',2322.359
'0:17.879',2356.033
'0:17.883',2389.749
'0:17.887',2422.699
'0:17.891',2452.750
'0:17.895',2471.803
'0:17.898',2496.697
'0:17.902',2506.245
'0:17.906',2509.143
'0:17.910',2516.475
'0:17.914',2493.031
'0:17.918',2484.975
'0:17.922',2484.250
'0:17.926',2467.413
'0:17.930',2430.030
'0:17.934',2427.132
'0:17.938',2397.806
'0:17.941',2349.468
'0:17.945',2317.968
'0:17.949',2292.308
'0:17.953',2256.417
'0:17.957',2212.470
'0:17.961',2170.698
'0:17.965',2117.203
'0:17.969',2076.197
'0:17.973',2034.424
'0:17.977',1975.090
'0:17.980',1912.814
'0:17.984',1853.480
'0:17.988',1833.701
'0:17.992',1761.920
'0:17.996',1698.920
'0:18.000',1650.540
'0:18.004',1621.256
'0:18.008',1550.925
'0:18.012',1517.208
'0:18.016',1495.256
'0:18.020',1451.266
'0:18.023',1388.266
'0:18.027',1340.654
'0:18.031',1337.712
'0:18.035',1269.597
'0:18.039',1257.150
'0:18.043',1222.709
'0:18.047',1182.428
'0:18.051',1154.594
'0:18.055',1115.037
'0:18.059',1096.708
'0:18.063',1090.102
'0:18.066',1019.045
'0:18.070',1022.711
'0:18.074',972.882
'0:18.078',973.649
'0:18.082',944.323
'0:18.086',946.539
'0:18.090',931.876
'0:18.094',917.938
'0:18.098',909.881
'0:18.102',891.595
'0:18.105',860.095
'0:18.109',858.603
'0:18.113',874.715
'0:18.117',891.595
'0:18.121',899.651
'0:18.125',905.491
'0:18.129',906.940
'0:18.133',918.662
'0:18.137',904.766
'0:18.141',939.932
'0:18.145',932.601
'0:18.148',969.216
'0:18.152',974.374
'0:18.156',1008.772
'0:18.160',975.823
'0:18.164',1011.713
'0:18.168',1034.433
'0:18.172',1006.598
'0:18.176',1046.879
'0:18.180',1009.540
'0:18.184',1011.713
'0:18.188',1047.604
'0:18.191',1013.930
'0:18.195',1000.716
'0:18.199',1023.435
'0:18.203',989.761
'0:18.207',977.272
'0:18.211',978.039
'0:18.215',938.483
'0:18.219',965.550
'0:18.223',958.261
'0:18.227',943.598
'0:18.230',947.989
'0:18.234',937.716
'0:18.238',936.991
'0:18.242',918.662
'0:18.246',956.769
'0:18.250',956.769
'0:18.254',983.154
'0:18.258',1016.104
'0:18.262',1009.540
'0:18.266',1052.762
'0:18.270',1099.650
'0:18.273',1134.048
'0:18.277',1150.928
'0:18.281',1181.703
'0:18.285',1212.436
'0:18.289',1235.880
'0:18.293',1317.210
'0:18.297',1353.100
'0:18.301',1389.758
'0:18.305',1422.707
'0:18.309',1457.149
'0:18.313',1465.930
'0:18.316',1484.983
'0:18.320',1542.144
'0:18.324',1532.596
'0:18.328',1587.540
'0:18.332',1574.369
'0:18.336',1611.708
'0:18.340',1636.644
'0:18.344',1630.037
'0:18.348',1645.425
'0:18.352',1660.088
'0:18.355',1676.925
'0:18.359',1688.647
'0:18.363',1701.818
'0:18.367',1721.597
'0:18.371',1731.869
'0:18.375',1733.319
'0:18.379',1740.650
'0:18.383',1769.252
'0:18.387',1762.645
'0:18.391',1759.704
'0:18.395',1747.982
'0:18.398',1747.257
'0:18.402',1739.925
'0:18.406',1736.984
'0:18.410',1739.925
'0:18.414',1753.864
'0:18.418',1740.650
'0:18.422',1734.810
'0:18.426',1744.316
'0:18.430',1747.982
'0:18.434',1726.030
'0:18.438',1731.145
'0:18.441',1725.262
'0:18.445',1731.869
'0:18.449',1742.867
'0:18.453',1755.313
'0:18.457',1731.869
'0:18.461',1729.653
'0:18.465',1739.201
'0:18.469',1734.086
'0:18.473',1730.420
'0:18.477',1742.867
'0:18.480',1736.984
'0:18.484',1741.375
'0:18.488',1737.752
'0:18.492',1734.086
'0:18.496',1716.482
'0:18.500',1726.754
'0:18.504',1712.091
'0:18.508',1705.484
'0:18.512',1701.094
'0:18.516',1716.482
'0:18.520',1707.701
'0:18.523',1691.588
'0:18.527',1696.703
'0:18.531',1713.540
'0:18.535',1682.807
'0:18.539',1704.760
'0:18.543',1718.698
'0:18.547',1690.864
'0:18.551',1701.818
'0:18.555',1727.479
'0:18.559',1705.484
'0:18.563',1713.540
'0:18.566',1735.535
'0:18.570',1731.145
'0:18.574',1744.316
'0:18.578',1747.982
'0:18.582',1747.982
'0:18.586',1745.041
'0:18.590',1739.925
'0:18.594',1725.262
'0:18.598',1723.088
'0:18.602',1698.920
'0:18.605',1662.987
'0:18.609',1662.262
'0:18.613',1652.032
'0:18.617',1630.037
'0:18.621',1578.759
'0:18.625',1580.975
'0:18.629',1514.309
'0:18.633',1468.146
'0:18.637',1425.649
'0:18.641',1386.817
'0:18.645',1360.432
'0:18.648',1294.490
'0:18.652',1219.043
'0:18.656',1180.212
'0:18.660',1130.425
'0:18.664',1060.093
'0:18.668',1026.377
'0:18.672',963.376
'0:18.676',904.766
'0:18.680',805.875
'0:18.684',791.937
'0:18.688',740.659
'0:18.691',704.768
'0:18.695',621.265
'0:18.699',622.714
'0:18.703',574.377
'0:18.707',582.433
'0:18.711',561.163
'0:18.715',550.166
'0:18.719',545.775
'0:18.723',535.545
'0:18.727',501.829
'0:18.730',512.101
'0:18.734',542.110
'0:18.738',558.222
'0:18.742',567.045
'0:18.746',559.714
'0:18.750',583.882
'0:18.754',601.487
'0:18.758',625.655
'0:18.762',665.212
'0:18.766',690.105
'0:18.770',695.987
'0:18.773',739.934
'0:18.777',731.878
'0:18.781',762.653
'0:18.785',817.597
'0:18.789',801.485
'0:18.793',822.713
'0:18.797',857.878
'0:18.801',895.261
'0:18.805',927.486
'0:18.809',944.323
'0:18.813',931.876
'0:18.816',987.545
'0:18.820',983.154
'0:18.824',997.818
'0:18.828',1054.936
'0:18.832',1080.596
'0:18.836',1061.543
'0:18.840',1106.981
'0:18.844',1147.987
'0:18.848',1147.987
'0:18.852',1158.260
'0:18.855',1233.706
'0:18.859',1224.158
'0:18.863',1300.373
'0:18.867',1296.707
'0:18.871',1358.982
'0:18.875',1406.595
'0:18.879',1450.542
'0:18.883',1465.205
'0:18.887',1552.374
'0:18.891',1561.922
'0:18.895',1599.986
'0:18.898',1646.150
'0:18.902',1682.040
'0:18.906',1748.706
'0:18.910',1765.586
'0:18.914',1808.808
'0:18.918',1854.204
'0:18.922',1884.255
'0:18.926',1908.424
'0:18.930',1956.036
'0:18.934',1989.753
'0:18.938',2015.371
'0:18.941',2058.593
'0:18.945',2077.646
'0:18.949',2101.090
'0:18.953',2121.636
'0:18.957',2138.473
'0:18.961',2154.585
'0:18.965',2169.973
'0:18.969',2169.248
'0:18.973',2184.636
'0:18.977',2199.257
'0:18.980',2182.420
'0:18.984',2171.422
'0:18.988',2156.802
'0:18.992',2142.863
'0:18.996',2121.636
'0:19.000',2108.422
'0:19.004',2098.192
'0:19.008',2041.756
'0:19.012',2014.646
'0:19.016',1976.582
'0:19.020',1949.472
'0:19.023',1884.255
'0:19.027',1846.148
'0:19.031',1783.148
'0:19.035',1727.479
'0:19.039',1627.096
'0:19.043',1590.481
'0:19.047',1509.876
'0:19.051',1430.039
'0:19.055',1384.600
'0:19.059',1286.434
'0:19.063',1258.600
'0:19.066',1178.038
'0:19.070',1120.152
'0:19.074',1095.259
'0:19.078',1015.379
'0:19.082',980.938
'0:19.086',956.045
'0:19.090',912.823
'0:19.094',871.817
'0:19.098',847.606
'0:19.102',819.771
'0:19.105',778.766
'0:19.109',794.154
'0:19.113',768.493
'0:19.117',747.266
'0:19.121',739.934
'0:19.125',739.934
'0:19.129',743.600
'0:19.133',736.993
'0:19.137',738.442
'0:19.141',744.324
'0:19.145',734.819
'0:19.148',761.886
'0:19.152',764.827
'0:19.156',755.322
'0:19.160',773.608
'0:19.164',760.437
'0:19.168',799.993
'0:19.172',839.550
'0:19.176',861.544
'0:19.180',887.162
'0:19.184',905.491
'0:19.188',909.157
'0:19.191',973.649
'0:19.195',1008.772
'0:19.199',1054.211
'0:19.203',1066.658
'0:19.207',1092.318
'0:19.211',1127.484
'0:19.215',1166.316
'0:19.219',1223.434
'0:19.223',1268.148
'0:19.227',1261.541
'0:19.230',1311.370
'0:19.234',1344.319
'0:19.238',1321.600
'0:19.242',1360.432
'0:19.246',1391.207
'0:19.250',1397.814
'0:19.254',1396.322
'0:19.258',1401.480
'0:19.262',1355.317
'0:19.266',1353.867
'0:19.270',1345.811
'0:19.273',1369.980
'0:19.277',1367.039
'0:19.281',1312.819
'0:19.285',1312.819
'0:19.289',1328.207
'0:19.293',1283.536
'0:19.297',1269.597
'0:19.301',1249.819
'0:19.305',1232.257
'0:19.309',1221.260
'0:19.313',1201.482
'0:19.316',1198.541
'0:19.320',1201.482
'0:19.324',1202.931
'0:19.328',1193.425
'0:19.332',1191.934
'0:19.336',1200.714
'0:19.340',1204.380
'0:19.344',1208.813
'0:19.348',1249.094
'0:19.352',1277.653
'0:19.355',1289.375
'0:19.359',1304.763
'0:19.363',1337.712
'0:19.367',1365.589
'0:19.371',1408.812
'0:19.375',1436.646
'0:19.379',1464.480
'0:19.383',1491.590
'0:19.387',1561.922
'0:19.391',1558.981
'0:19.395',1574.369
'0:19.398',1607.318
'0:19.402',1644.700
'0:19.406',1630.037
'0:19.410',1678.374
'0:19.414',1673.259
'0:19.418',1660.813
'0:19.422',1663.754
'0:19.426',1698.153
'0:19.430',1665.203
'0:19.434',1656.422
'0:19.438',1650.540
'0:19.441',1638.818
'0:19.445',1649.815
'0:19.449',1603.652
'0:19.453',1591.206
'0:19.457',1592.697
'0:19.461',1540.652
'0:19.465',1533.320
'0:19.469',1526.031
'0:19.473',1506.978
'0:19.477',1502.587
'0:19.480',1476.927
'0:19.484',1443.977
'0:19.488',1446.151
'0:19.492',1424.199
'0:19.496',1372.878
'0:19.500',1365.589
'0:19.504',1380.210
'0:19.508',1360.432
'0:19.512',1336.988
'0:19.516',1356.766
'0:19.520',1343.595
'0:19.523',1342.145
'0:19.527',1368.488
'0:19.531',1355.317
'0:19.535',1391.932
'0:19.539',1362.648
'0:19.543',1399.988
'0:19.547',1374.370
'0:19.551',1415.376
'0:19.555',1422.707
'0:19.559',1393.424
'0:19.563',1430.764
'0:19.566',1425.649
'0:19.570',1440.312
'0:19.574',1470.320
'0:19.578',1483.534
'0:19.582',1484.983
'0:19.586',1509.152
'0:19.590',1532.596
'0:19.594',1550.200
'0:19.598',1561.922
'0:19.602',1557.531
'0:19.605',1547.259
'0:19.609',1576.542
'0:19.613',1587.540
'0:19.617',1566.312
'0:19.621',1561.155
'0:19.625',1581.700
'0:19.629',1559.705
'0:19.633',1547.259
'0:19.637',1546.534
'0:19.641',1540.652
'0:19.645',1539.927
'0:19.648',1536.986
'0:19.652',1534.088
'0:19.656',1534.088
'0:19.660',1536.986
'0:19.664',1520.149
'0:19.668',1521.598
'0:19.672',1521.598
'0:19.676',1527.481
'0:19.680',1506.978
'0:19.684',1467.421
'0:19.688',1487.200
'0:19.691',1441.036
'0:19.695',1452.758
'0:19.699',1391.207
'0:19.703',1378.761
'0:19.707',1382.426
'0:19.711',1352.376
'0:19.715',1324.541
'0:19.719',1284.260
'0:19.723',1262.265
'0:19.727',1233.706
'0:19.730',1218.319
'0:19.734',1205.147
'0:19.738',1202.206
'0:19.742',1180.936
'0:19.746',1142.147
'0:19.750',1157.492
'0:19.754',1112.821
'0:19.758',1100.374
'0:19.762',1084.262
'0:19.766',1082.045
'0:19.770',1080.596
'0:19.773',1048.371
'0:19.777',1057.152
'0:19.781',1019.045
'0:19.785',986.820
'0:19.789',976.548
'0:19.793',1008.772
'0:19.797',999.991
'0:19.801',986.820
'0:19.805',974.374
'0:19.809',975.098
'0:19.813',965.550
'0:19.816',958.986
'0:19.820',953.828
'0:19.824',925.994
'0:19.828',926.761
'0:19.832',928.210
'0:19.836',936.267
'0:19.840',981.705
'0:19.844',980.938
'0:19.848',953.104
'0:19.852',975.823
'0:19.855',998.542
'0:19.859',979.489
'0:19.863',1027.826
'0:19.867',1000.716
'0:19.871',1054.211
'0:19.875',1031.492
'0:19.879',1065.208
'0:19.883',1046.155
'0:19.887',1058.601
'0:19.891',1089.377
'0:19.895',1110.604
'0:19.898',1116.487
'0:19.902',1123.818
'0:19.906',1139.931
'0:19.910',1147.262
'0:19.914',1165.591
'0:19.918',1185.369
'0:19.922',1176.546
'0:19.926',1186.819
'0:19.930',1233.706
'0:19.934',1213.928
'0:19.938',1259.324
'0:19.941',1247.602
'0:19.945',1279.102
'0:19.949',1262.265
'0:19.953',1302.546
'0:19.957',1309.153
'0:19.961',1293.766
'0:19.965',1287.926
'0:19.969',1295.257
'0:19.973',1315.760
'0:19.977',1338.480
'0:19.980',1345.811
'0:19.984',1356.041
'0:19.988',1361.156
'0:19.992',1368.488
'0:19.996',1419.766
'0:20.000',1441.761
'0:20.004',1434.429
'0:20.008',1438.095
'0:20.012',1497.430
'0:20.016',1495.256
'0:20.020',1513.542
'0:20.023',1542.868
'0:20.027',1599.986
'0:20.031',1604.419
'0:20.035',1621.981
'0:20.039',1669.594
'0:20.043',1697.428
'0:20.047',1726.754
'0:20.051',1774.367
'0:20.055',1821.979
'0:20.059',1852.030
'0:20.063',1883.530
'0:20.066',1910.640
'0:20.070',1958.253
'0:20.074',1950.921
'0:20.078',1975.090
'0:20.082',1986.812
'0:20.086',1990.477
'0:20.090',1999.258
'0:20.094',1988.261
'0:20.098',1990.477
'0:20.102',1958.253
'0:20.105',1936.983
'0:20.109',1946.531
'0:20.113',1909.148
'0:20.117',1902.584
'0:20.121',1852.030
'0:20.125',1818.314
'0:20.129',1794.870
'0:20.133',1753.097
'0:20.137',1726.030
'0:20.141',1672.535
'0:20.145',1663.754
'0:20.148',1584.599
'0:20.152',1580.975
'0:20.156',1536.261
'0:20.160',1460.090
'0:20.164',1419.766
'0:20.168',1383.876
'0:20.172',1356.041
'0:20.176',1293.766
'0:20.180',1259.324
'0:20.184',1234.431
'0:20.188',1230.041
'0:20.191',1209.538
'0:20.195',1158.260
'0:20.199',1123.818
'0:20.203',1148.711
'0:20.207',1090.102
'0:20.211',1100.374
'0:20.215',1101.824
'0:20.219',1055.660
'0:20.223',1049.096
'0:20.227',1065.208
'0:20.230',1008.772
'0:20.234',1042.489
'0:20.238',1000.716
'0:20.242',986.096
'0:20.246',1019.770
'0:20.250',1002.208
'0:20.254',988.269
'0:20.258',978.764
'0:20.262',1025.652
'0:20.266',1030.042
'0:20.270',1029.318
'0:20.273',1032.984
'0:20.277',1078.380
'0:20.281',1054.936
'0:20.285',1097.433
'0:20.289',1139.931
'0:20.293',1182.428
'0:20.297',1180.936
'0:20.301',1211.712
'0:20.305',1254.934
'0:20.309',1304.038
'0:20.313',1297.431
'0:20.316',1336.263
'0:20.320',1388.266
'0:20.324',1416.868
'0:20.328',1434.429
'0:20.332',1443.210
'0:20.336',1468.146
'0:20.340',1466.654
'0:20.344',1468.871
'0:20.348',1466.654
'0:20.352',1452.034
'0:20.355',1423.432
'0:20.359',1407.320
'0:20.363',1402.205
'0:20.367',1415.376
'0:20.371',1353.100
'0:20.375',1356.766
'0:20.379',1317.934
'0:20.383',1305.488
'0:20.387',1275.479
'0:20.391',1294.490
'0:20.395',1254.934
'0:20.398',1217.594
'0:20.402',1203.656
'0:20.406',1180.212
'0:20.410',1170.706
'0:20.414',1157.492
'0:20.418',1156.768
'0:20.422',1165.591
'0:20.426',1179.487
'0:20.430',1191.934
'0:20.434',1193.425
'0:20.438',1207.321
'0:20.441',1200.714
'0:20.445',1192.658
'0:20.449',1237.372
'0:20.453',1265.207
'0:20.457',1249.819
'0:20.461',1284.260
'0:20.465',1315.760
'0:20.469',1327.482
'0:20.473',1370.704
'0:20.477',1376.544
'0:20.480',1391.207
'0:20.484',1405.146
'0:20.488',1423.432
'0:20.492',1455.699
'0:20.496',1469.595
'0:20.500',1460.090
'0:20.504',1467.421
'0:20.508',1476.202
'0:20.512',1515.034
'0:20.516',1503.312
'0:20.520',1479.143
'0:20.523',1510.644
'0:20.527',1491.590
'0:20.531',1496.705
'0:20.535',1501.820
'0:20.539',1482.767
'0:20.543',1488.649
'0:20.547',1485.708
'0:20.551',1512.817
'0:20.555',1482.767
'0:20.559',1460.090
'0:20.563',1459.323
'0:20.566',1475.478
'0:20.570',1487.200
'0:20.574',1459.323
'0:20.578',1445.427
'0:20.582',1452.034
'0:20.586',1479.868
'0:20.590',1449.817
'0:20.594',1446.876
'0:20.598',1458.598
'0:20.602',1491.590
'0:20.605',1465.205
'0:20.609',1465.205
'0:20.613',1479.143
'0:20.617',1515.034
'0:20.621',1504.761
'0:20.625',1498.922
'0:20.629',1499.646
'0:20.633',1491.590
'0:20.637',1493.039
'0:20.641',1528.205
'0:20.645',1537.711
'0:20.648',1539.927
'0:20.652',1512.093
'0:20.656',1519.424
'0:20.660',1527.481
'0:20.664',1522.366
'0:20.668',1537.711
'0:20.672',1545.042
'0:20.676',1530.422
'0:20.680',1522.366
'0:20.684',1539.927
'0:20.688',1534.088
'0:20.691',1533.320
'0:20.695',1555.315
'0:20.699',1526.031
'0:20.703',1551.649
'0:20.707',1528.930
'0:20.711',1526.031
'0:20.715',1562.647
'0:20.719',1536.261
'0:20.723',1535.537
'0:20.727',1540.652
'0:20.730',1541.376
'0:20.734',1537.711
'0:20.738',1538.478
'0:20.742',1540.652
'0:20.746',1547.983
'0:20.750',1556.764
'0:20.754',1571.427
'0:20.758',1562.647
'0:20.762',1539.203
'0:20.766',1536.986
'0:20.770',1555.315
'0:20.773',1508.427
'0:20.777',1539.927
'0:20.781',1503.312
'0:20.785',1486.432
'0:20.789',1473.986
'0:20.793',1462.264
'0:20.797',1455.699
'0:20.801',1439.544
'0:20.805',1425.649
'0:20.809',1432.255
'0:20.813',1428.590
'0:20.816',1388.266
'0:20.820',1368.488
'0:20.824',1353.100
'0:20.828',1307.704
'0:20.832',1293.041
'0:20.836',1297.431
'0:20.840',1238.821
'0:20.844',1222.709
'0:20.848',1216.869
'0:20.852',1170.706
'0:20.855',1153.869
'0:20.859',1150.928
'0:20.863',1112.096
'0:20.867',1101.099
'0:20.871',1093.767
'0:20.875',1077.655
'0:20.879',1078.380
'0:20.883',1067.382
'0:20.887',1053.486
'0:20.891',1053.486
'0:20.895',1040.315
'0:20.898',1031.492
'0:20.902',1027.826
'0:20.906',1013.205
'0:20.910',1016.104
'0:20.914',1007.323
'0:20.918',1005.874
'0:20.922',977.272
'0:20.926',966.317
'0:20.930',955.320
'0:20.934',984.604
'0:20.938',991.211
'0:20.941',968.491
'0:20.945',1016.104
'0:20.949',1024.160
'0:20.953',1016.104
'0:20.957',1042.489
'0:20.961',1044.706
'0:20.965',1070.323
'0:20.969',1073.989
'0:20.973',1081.321
'0:20.977',1102.548
'0:20.980',1126.759
'0:20.984',1131.874
'0:20.988',1131.874
'0:20.992',1171.431
'0:20.996',1164.824
'0:21.000',1211.712
'0:21.004',1184.602
'0:21.008',1208.813
'0:21.012',1230.041
'0:21.016',1252.760
'0:21.020',1251.268
'0:21.023',1285.709
'0:21.027',1299.648
'0:21.031',1321.600
'0:21.035',1312.819
'0:21.039',1323.092
'0:21.043',1341.378
'0:21.047',1358.982
'0:21.051',1380.935
'0:21.055',1387.541
'0:21.059',1401.480
'0:21.063',1429.314
'0:21.066',1431.488
'0:21.070',1423.432
'0:21.074',1457.149
'0:21.078',1475.478
'0:21.082',1490.098
'0:21.086',1507.702
'0:21.090',1503.312
'0:21.094',1539.203
'0:21.098',1535.537
'0:21.102',1580.975
'0:21.105',1590.481
'0:21.109',1583.149
'0:21.113',1626.371
'0:21.117',1611.708
'0:21.121',1663.754
'0:21.125',1649.091
'0:21.129',1664.479
'0:21.133',1704.035
'0:21.137',1717.206
'0:21.141',1745.041
'0:21.145',1733.319
'0:21.148',1778.033
'0:21.152',1759.704
'0:21.156',1800.752
'0:21.160',1791.928
'0:21.164',1783.872
'0:21.168',1812.474
'0:21.172',1790.479
'0:21.176',1815.372
'0:21.180',1777.308
'0:21.184',1803.650
'0:21.188',1767.760
'0:21.191',1758.979
'0:21.195',1752.372
'0:21.199',1742.142
'0:21.203',1699.645
'0:21.207',1705.484
'0:21.211',1688.647
'0:21.215',1635.152
'0:21.219',1613.925
'0:21.223',1591.930
'0:21.227',1555.315
'0:21.230',1528.930
'0:21.234',1529.654
'0:21.238',1469.595
'0:21.242',1441.036
'0:21.246',1448.368
'0:21.250',1402.929
'0:21.254',1357.491
'0:21.258',1328.932
'0:21.262',1314.268
'0:21.266',1323.092
'0:21.270',1293.766
'0:21.273',1242.487
'0:21.277',1257.875
'0:21.281',1233.706
'0:21.285',1203.656
'0:21.289',1234.431
'0:21.293',1191.209
'0:21.297',1214.653
'0:21.301',1169.982
'0:21.305',1191.209
'0:21.309',1162.650
'0:21.313',1184.602
'0:21.316',1154.594
'0:21.320',1190.484
'0:21.324',1150.928
'0:21.328',1186.094
'0:21.332',1145.770
'0:21.336',1176.546
'0:21.340',1167.765
'0:21.344',1177.270
'0:21.348',1162.650
'0:21.352',1137.714
'0:21.355',1181.703
'0:21.359',1148.711
'0:21.363',1179.487
'0:21.367',1210.262
'0:21.371',1186.819
'0:21.375',1197.816
'0:21.379',1242.487
'0:21.383',1271.046
'0:21.387',1284.985
'0:21.391',1266.656
'0:21.395',1281.319
'0:21.398',1301.097
'0:21.402',1345.811
'0:21.406',1333.322
'0:21.410',1362.648
'0:21.414',1396.322
'0:21.418',1401.480
'0:21.422',1399.988
'0:21.426',1408.812
'0:21.430',1443.210
'0:21.434',1434.429
'0:21.438',1438.820
'0:21.441',1419.042
'0:21.445',1432.255
'0:21.449',1430.764
'0:21.453',1421.983
'0:21.457',1406.595
'0:21.461',1399.988
'0:21.465',1386.092
'0:21.469',1338.480
'0:21.473',1325.266
'0:21.477',1321.600
'0:21.480',1315.036
'0:21.484',1323.092
'0:21.488',1295.982
'0:21.492',1267.380
'0:21.496',1293.041
'0:21.500',1251.268
'0:21.504',1276.204
'0:21.508',1292.316
'0:21.512',1253.485
'0:21.516',1304.763
'0:21.520',1298.923
'0:21.523',1291.592
'0:21.527',1325.266
'0:21.531',1336.988
'0:21.535',1366.314
'0:21.539',1364.822
'0:21.543',1384.600
'0:21.547',1391.207
'0:21.551',1459.323
'0:21.555',1457.149
'0:21.559',1515.034
'0:21.563',1524.539
'0:21.566',1554.590
'0:21.570',1565.588
'0:21.574',1605.869
'0:21.578',1641.035
'0:21.582',1649.815
'0:21.586',1676.925
'0:21.590',1737.752
'0:21.594',1755.313
'0:21.598',1751.647
'0:21.602',1761.920
'0:21.605',1783.148
'0:21.609',1779.482
'0:21.613',1801.477
'0:21.617',1808.041
'0:21.621',1819.763
'0:21.625',1818.314
'0:21.629',1791.204
'0:21.633',1789.030
'0:21.637',1786.089
'0:21.641',1761.920
'0:21.645',1761.920
'0:21.648',1741.375
'0:21.652',1720.147
'0:21.656',1701.094
'0:21.660',1721.597
'0:21.664',1674.709
'0:21.668',1657.872
'0:21.672',1668.869
'0:21.676',1622.706
'0:21.680',1636.644
'0:21.684',1589.032
'0:21.688',1612.476
'0:21.691',1580.208
'0:21.695',1560.430
'0:21.699',1554.590
'0:21.703',1540.652
'0:21.707',1573.644
'0:21.711',1550.925
'0:21.715',1578.034
'0:21.719',1547.259
'0:21.723',1588.264
'0:21.727',1580.208
'0:21.730',1617.591
'0:21.734',1610.259
'0:21.738',1614.649
'0:21.742',1632.978
'0:21.746',1662.987
'0:21.750',1690.864
'0:21.754',1689.372
'0:21.758',1714.308
'0:21.762',1733.319
'0:21.766',1733.319
'0:21.770',1730.420
'0:21.773',1752.372
'0:21.777',1739.201
'0:21.781',1761.196
'0:21.785',1726.754
'0:21.789',1746.532
'0:21.793',1739.925
'0:21.797',1742.142
'0:21.801',1772.150
'0:21.805',1742.867
'0:21.809',1786.089
'0:21.813',1769.252
'0:21.816',1756.763
'0:21.820',1797.086
'0:21.824',1767.760
'0:21.828',1786.813
'0:21.832',1797.811
'0:21.836',1789.030
'0:21.840',1792.696
'0:21.844',1833.701
'0:21.848',1803.650
'0:21.852',1838.816
'0:21.855',1805.867
'0:21.859',1834.426
'0:21.863',1796.361
'0:21.867',1811.707
'0:21.871',1781.698
'0:21.875',1795.594
'0:21.879',1761.196
'0:21.883',1725.262
'0:21.887',1728.204
'0:21.891',1684.981
'0:21.895',1643.208
'0:21.898',1610.984
'0:21.902',1583.874
'0:21.906',1557.531
'0:21.910',1495.256
'0:21.914',1432.980
'0:21.918',1410.261
'0:21.922',1372.154
'0:21.926',1277.653
'0:21.930',1249.819
'0:21.934',1181.703
'0:21.938',1097.433
'0:21.941',1065.208
'0:21.945',997.050
'0:21.949',978.764
'0:21.953',931.151
'0:21.957',891.595
'0:21.961',854.213
'0:21.965',819.771
'0:21.969',753.105
'0:21.973',765.552
'0:21.977',710.608
'0:21.980',728.212
'0:21.984',687.931
'0:21.988',692.321
'0:21.992',681.324
'0:21.996',677.658
'0:22.000',690.105
'0:22.004',685.715
'0:22.008',685.715
'0:22.012',682.773
'0:22.016',695.987
'0:22.020',668.153
'0:22.023',720.880
'0:22.027',717.215
'0:22.031',696.712
'0:22.035',753.830
'0:22.039',721.605
'0:22.043',768.493
'0:22.047',781.707
'0:22.051',764.827
'0:22.055',795.603
'0:22.059',830.044
'0:22.063',802.210
'0:22.066',835.159
'0:22.070',864.485
'0:22.074',865.935
'0:22.078',874.715
'0:22.082',880.598
'0:22.086',945.047
'0:22.090',922.328
'0:22.094',978.764
'0:22.098',958.261
'0:22.102',1003.657
'0:22.105',999.267
'0:22.109',1052.037
'0:22.113',1073.265
'0:22.117',1068.874
'0:22.121',1095.984
'0:22.125',1123.818
'0:22.129',1178.038
'0:22.133',1229.316
'0:22.137',1246.153
'0:22.141',1265.931
'0:22.145',1317.210
'0:22.148',1374.370
'0:22.152',1446.876
'0:22.156',1473.261
'0:22.160',1564.096
'0:22.164',1625.647
'0:22.168',1692.313
'0:22.172',1776.541
'0:22.176',1882.039
'0:22.180',1942.140
'0:22.184',2023.427
'0:22.188',2114.304
'0:22.191',2177.305
'0:22.195',2241.754
'0:22.199',2288.642
'0:22.203',2350.918
'0:22.207',2393.415
'0:22.211',2457.865
'0:22.215',2495.247
'0:22.219',2504.028
'0:22.223',2526.023
'0:22.227',2557.523
'0:22.230',2553.857
'0:22.234',2575.085
'0:22.238',2571.419
'0:22.242',2557.523
'0:22.246',2574.360
'0:22.250',2572.186
'0:22.254',2569.245
'0:22.258',2550.916
'0:22.262',2558.248
'0:22.266',2535.528
'0:22.270',2517.242
'0:22.273',2525.298
'0:22.277',2508.419
'0:22.281',2480.584
'0:22.285',2483.525
'0:22.289',2474.744
'0:22.293',2449.809
'0:22.297',2426.365
'0:22.301',2401.471
'0:22.305',2407.311
'0:22.309',2378.027
'0:22.313',2346.527
'0:22.316',2315.752
'0:22.320',2293.032
'0:22.324',2287.917
'0:22.328',2273.254
'0:22.332',2232.973
'0:22.336',2217.586
'0:22.340',2188.302
'0:22.344',2181.695
'0:22.348',2126.026
'0:22.352',2117.970
'0:22.355',2075.473
'0:22.359',2057.868
'0:22.363',2002.199
'0:22.367',1980.205
'0:22.371',1923.087
'0:22.375',1902.584
'0:22.379',1838.092
'0:22.383',1796.361
'0:22.387',1742.142
'0:22.391',1684.257
'0:22.395',1643.208
'0:22.398',1574.369
'0:22.402',1499.646
'0:22.406',1431.488
'0:22.410',1332.597
'0:22.414',1292.316
'0:22.418',1210.262
'0:22.422',1088.652
'0:22.426',1050.545
'0:22.430',962.652
'0:22.434',896.710
'0:22.438',816.106
'0:22.441',750.931
'0:22.445',677.658
'0:22.449',606.602
'0:22.453',583.158
'0:22.457',537.719
'0:22.461',484.267
'0:22.465',436.612
'0:22.469',437.379
'0:22.473',414.660
'0:22.477',358.991
'0:22.480',394.157
'0:22.484',386.101
'0:22.488',376.553
'0:22.492',385.333
'0:22.496',391.216
'0:22.500',402.213
'0:22.504',377.277
'0:22.508',394.157
'0:22.512',437.379
'0:22.516',464.489
'0:22.520',484.267
'0:22.523',505.494
'0:22.527',501.829
'0:22.531',537.719
'0:22.535',564.829
'0:22.539',586.099
'0:22.543',600.720
'0:22.547',620.498
'0:22.551',646.883
'0:22.555',662.271
'0:22.559',677.658
'0:22.563',685.715
'0:22.566',676.934
'0:22.570',727.487
'0:22.574',722.330
'0:22.578',747.990
'0:22.582',739.209
'0:22.586',778.041
'0:22.590',812.440
'0:22.594',795.603
'0:22.598',844.707
'0:22.602',882.047
'0:22.605',904.766
'0:22.609',915.039
'0:22.613',933.325
'0:22.617',937.716
'0:22.621',984.604
'0:22.625',1035.157
'0:22.629',1070.323
'0:22.633',1109.880
'0:22.637',1147.987
'0:22.641',1187.543
'0:22.645',1230.041
'0:22.648',1269.597
'0:22.652',1328.932
'0:22.656',1347.985
'0:22.660',1431.488
'0:22.664',1441.036
'0:22.668',1487.200
'0:22.672',1536.261
'0:22.676',1585.366
'0:22.680',1617.591
'0:22.684',1662.262
'0:22.688',1712.091
'0:22.691',1731.869
'0:22.695',1762.645
'0:22.699',1758.254
'0:22.703',1786.089
'0:22.707',1787.538
'0:22.711',1789.030
'0:22.715',1782.423
'0:22.719',1797.086
'0:22.723',1758.254
'0:22.727',1786.089
'0:22.730',1757.530
'0:22.734',1728.204
'0:22.738',1726.030
'0:22.742',1733.319
'0:22.746',1706.976
'0:22.750',1679.142
'0:22.754',1682.040
'0:22.758',1651.265
'0:22.762',1641.035
'0:22.766',1628.588
'0:22.770',1637.369
'0:22.773',1593.422
'0:22.777',1596.321
'0:22.781',1561.922
'0:22.785',1567.762
'0:22.789',1523.090
'0:22.793',1502.587
'0:22.797',1504.037
'0:22.801',1509.152
'0:22.805',1531.871
'0:22.809',1539.927
'0:22.813',1532.596
'0:22.816',1530.422
'0:22.820',1569.978
'0:22.824',1586.815
'0:22.828',1642.484
'0:22.832',1673.984
'0:22.836',1673.259
'0:22.840',1705.484
'0:22.844',1758.254
'0:22.848',1783.872
'0:22.852',1812.474
'0:22.855',1806.592
'0:22.859',1849.089
'0:22.863',1853.480
'0:22.867',1854.204
'0:22.871',1888.645
'0:22.875',1875.474
'0:22.879',1900.367
'0:22.883',1890.095
'0:22.887',1915.031
'0:22.891',1924.536
'0:22.895',1913.539
'0:22.898',1931.143
'0:22.902',1929.694
'0:22.906',1958.253
'0:22.910',1936.258
'0:22.914',1956.036
'0:22.918',1969.975
'0:22.922',1957.528
'0:22.926',1979.480
'0:22.930',1946.531
'0:22.934',1955.312
'0:22.938',1954.587
'0:22.941',1923.811
'0:22.945',1929.694
'0:22.949',1915.031
'0:22.953',1907.699
'0:22.957',1876.923
'0:22.961',1838.092
'0:22.965',1827.094
'0:22.969',1800.752
'0:22.973',1788.263
'0:22.977',1717.206
'0:22.980',1682.807
'0:22.984',1621.256
'0:22.988',1571.427
'0:22.992',1541.376
'0:22.996',1485.708
'0:23.000',1374.370
'0:23.004',1333.322
'0:23.008',1249.819
'0:23.012',1183.877
'0:23.016',1136.265
'0:23.020',1017.596
'0:23.023',990.486
'0:23.027',913.547
'0:23.031',822.713
'0:23.035',780.215
'0:23.039',703.319
'0:23.043',657.880
'0:23.047',588.273
'0:23.051',589.765
'0:23.055',553.107
'0:23.059',523.823
'0:23.063',502.553
'0:23.066',483.500
'0:23.070',476.211
'0:23.074',441.045
'0:23.078',440.278
'0:23.082',436.612
'0:23.086',443.219
'0:23.090',454.216
'0:23.094',471.778
'0:23.098',509.160
'0:23.102',506.944
'0:23.105',551.658
'0:23.109',572.161
'0:23.113',594.880
'0:23.117',619.773
'0:23.121',617.599
'0:23.125',657.880
'0:23.129',702.552
'0:23.133',719.431
'0:23.137',703.319
'0:23.141',769.985
'0:23.145',764.103
'0:23.148',764.103
'0:23.152',808.049
'0:23.156',847.606
'0:23.160',863.718
'0:23.164',869.600
'0:23.168',879.873
'0:23.172',887.162
'0:23.176',941.382
'0:23.180',928.210
'0:23.184',972.882
'0:23.188',1009.540
'0:23.191',1028.593
'0:23.195',1019.045
'0:23.199',1057.152
'0:23.203',1099.650
'0:23.207',1123.818
'0:23.211',1136.989
'0:23.215',1138.481
'0:23.219',1183.153
'0:23.223',1230.041
'0:23.227',1260.092
'0:23.230',1302.546
'0:23.234',1381.702
'0:23.238',1456.424
'0:23.242',1477.652
'0:23.246',1552.374
'0:23.250',1624.198
'0:23.254',1701.094
'0:23.258',1762.645
'0:23.262',1814.648
'0:23.266',1887.196
'0:23.270',1963.368
'0:23.273',2020.528
'0:23.277',2080.588
'0:23.281',2130.417
'0:23.285',2158.976
'0:23.289',2194.142
'0:23.293',2212.470
'0:23.297',2238.088
'0:23.301',2263.749
'0:23.305',2286.468
'0:23.309',2293.032
'0:23.313',2295.249
'0:23.316',2319.418
'0:23.320',2302.581
'0:23.324',2295.249
'0:23.328',2323.083
'0:23.332',2317.968
'0:23.336',2292.308
'0:23.340',2310.637
'0:23.344',2298.190
'0:23.348',2301.856
'0:23.352',2289.367
'0:23.355',2255.693
'0:23.359',2254.968
'0:23.363',2217.586
'0:23.367',2217.586
'0:23.371',2190.476
'0:23.375',2155.310
'0:23.379',2126.751
'0:23.383',2081.312
'0:23.387',2019.804
'0:23.391',1993.419
'0:23.395',1958.253
'0:23.398',1895.252
'0:23.402',1847.640
'0:23.406',1783.148
'0:23.410',1743.591
'0:23.414',1724.538
'0:23.418',1643.976
'0:23.422',1603.652
'0:23.426',1585.366
'0:23.430',1524.539
'0:23.434',1454.208
'0:23.438',1408.044
'0:23.441',1398.539
'0:23.445',1333.322
'0:23.449',1267.380
'0:23.453',1225.650
'0:23.457',1175.097
'0:23.461',1094.492
'0:23.465',1057.152
'0:23.469',1005.874
'0:23.473',942.873
'0:23.477',866.659
'0:23.480',830.044
'0:23.484',788.996
'0:23.488',745.774
'0:23.492',671.051
'0:23.496',641.043
'0:23.500',590.489
'0:23.504',601.487
'0:23.508',577.276
'0:23.512',559.714
'0:23.516',562.655
'0:23.520',561.163
'0:23.523',561.163
'0:23.527',569.944
'0:23.531',561.888
'0:23.535',626.380
'0:23.539',621.990
'0:23.543',674.717
'0:23.547',725.271
'0:23.551',728.937
'0:23.555',802.934
'0:23.559',832.218
'0:23.563',887.162
'0:23.566',904.766
'0:23.570',923.820
'0:23.574',973.649
'0:23.578',1021.986
'0:23.582',1047.604
'0:23.586',1060.818
'0:23.590',1109.880
'0:23.594',1082.045
