'Elapsed time','wrist_ppg'
'hh:mm:ss.mmm','mV'
'0:00.000',1458.598
'0:00.004',1443.977
'0:00.008',1431.488
'0:00.012',1429.314
'0:00.016',1446.876
'0:00.020',1433.705
'0:00.023',1409.536
'0:00.027',1434.429
'0:00.031',1436.646
'0:00.035',1423.432
'0:00.039',1373.646
'0:00.043',1397.090
'0:00.047',1389.758
'0:00.051',1358.982
'0:00.055',1324.541
'0:00.059',1356.766
'0:00.063',1311.370
'0:00.066',1325.266
'0:00.070',1325.266
'0:00.074',1284.260
'0:00.078',1312.095
'0:00.082',1262.265
'0:00.086',1288.651
'0:00.090',1276.204
'0:00.094',1255.701
'0:00.098',1247.602
'0:00.102',1238.821
'0:00.105',1277.653
'0:00.109',1255.701
'0:00.113',1243.979
'0:00.117',1267.380
'0:00.121',1264.482
'0:00.125',1251.268
'0:00.129',1288.651
'0:00.133',1250.543
'0:00.137',1294.490
'0:00.141',1268.872
'0:00.145',1305.488
'0:00.148',1289.375
'0:00.152',1319.426
'0:00.156',1329.656
'0:00.160',1300.373
'0:00.164',1342.870
'0:00.168',1308.429
'0:00.172',1325.266
'0:00.176',1344.319
'0:00.180',1356.041
'0:00.184',1376.544
'0:00.188',1338.480
'0:00.191',1386.817
'0:00.195',1353.867
'0:00.199',1380.935
'0:00.203',1401.480
'0:00.207',1403.654
'0:00.211',1408.812
'0:00.215',1397.814
'0:00.219',1387.541
'0:00.223',1381.702
'0:00.227',1389.758
'0:00.230',1412.477
'0:00.234',1427.098
'0:00.238',1421.258
'0:00.242',1445.427
'0:00.246',1438.095
'0:00.250',1450.542
'0:00.254',1452.034
'0:00.258',1433.705
'0:00.262',1417.592
'0:00.266',1455.699
'0:00.270',1428.590
'0:00.273',1432.980
'0:00.277',1451.266
'0:00.281',1425.649
'0:00.285',1398.539
'0:00.289',1434.429
'0:00.293',1409.536
'0:00.297',1386.092
'0:00.301',1356.041
'0:00.305',1338.480
'0:00.309',1350.926
'0:00.313',1311.370
'0:00.316',1295.257
'0:00.320',1304.763
'0:00.324',1304.038
'0:00.328',1289.375
'0:00.332',1251.268
'0:00.336',1240.313
'0:00.340',1231.490
'0:00.344',1261.541
'0:00.348',1252.760
'0:00.352',1245.428
'0:00.355',1235.156
'0:00.359',1227.824
'0:00.363',1230.041
'0:00.367',1205.872
'0:00.371',1183.153
'0:00.375',1191.209
'0:00.379',1192.658
'0:00.383',1186.819
'0:00.387',1191.209
'0:00.391',1179.487
'0:00.395',1163.375
'0:00.398',1174.372
'0:00.402',1142.147
'0:00.406',1145.770
'0:00.410',1167.040
'0:00.414',1136.989
'0:00.418',1147.262
'0:00.422',1131.150
'0:00.426',1155.318
'0:00.430',1171.431
'0:00.434',1175.097
'0:00.438',1174.372
'0:00.441',1186.094
'0:00.445',1190.484
'0:00.449',1209.538
'0:00.453',1210.987
'0:00.457',1246.153
'0:00.461',1255.701
'0:00.465',1278.378
'0:00.469',1300.373
'0:00.473',1362.648
'0:00.477',1405.146
'0:00.480',1462.988
'0:00.484',1485.708
'0:00.488',1512.093
'0:00.492',1564.820
'0:00.496',1626.371
'0:00.500',1682.807
'0:00.504',1698.920
'0:00.508',1723.088
'0:00.512',1764.819
'0:00.516',1797.811
'0:00.520',1790.479
'0:00.523',1832.252
'0:00.527',1823.429
'0:00.531',1813.923
'0:00.535',1795.594
'0:00.539',1799.260
'0:00.543',1765.586
'0:00.547',1767.760
'0:00.551',1718.698
'0:00.555',1690.864
'0:00.559',1671.810
'0:00.563',1636.644
'0:00.566',1630.037
'0:00.570',1556.040
'0:00.574',1534.812
'0:00.578',1520.874
'0:00.582',1451.266
'0:00.586',1462.264
'0:00.590',1421.983
'0:00.594',1406.595
'0:00.598',1345.044
'0:00.602',1350.926
'0:00.605',1301.097
'0:00.609',1318.701
'0:00.613',1272.538
'0:00.617',1288.651
'0:00.621',1301.822
'0:00.625',1263.757
'0:00.629',1306.979
'0:00.633',1307.704
'0:00.637',1295.257
'0:00.641',1349.434
'0:00.645',1341.378
'0:00.648',1352.376
'0:00.652',1387.541
'0:00.656',1441.761
'0:00.660',1421.983
'0:00.664',1479.143
'0:00.668',1494.489
'0:00.672',1485.708
'0:00.676',1512.093
'0:00.680',1542.868
'0:00.684',1536.986
'0:00.688',1534.812
'0:00.691',1551.649
'0:00.695',1585.366
'0:00.699',1556.040
'0:00.703',1539.927
'0:00.707',1553.866
'0:00.711',1573.644
'0:00.715',1529.654
'0:00.719',1553.866
'0:00.723',1519.424
'0:00.727',1536.261
'0:00.730',1495.256
'0:00.734',1473.986
'0:00.738',1457.873
'0:00.742',1443.210
'0:00.746',1435.921
'0:00.750',1429.314
'0:00.754',1410.261
'0:00.758',1403.654
'0:00.762',1408.044
'0:00.766',1419.766
'0:00.770',1389.033
'0:00.773',1383.876
'0:00.777',1383.151
'0:00.781',1383.876
'0:00.785',1367.039
'0:00.789',1349.434
'0:00.793',1369.213
'0:00.797',1333.322
'0:00.801',1365.589
'0:00.805',1353.867
'0:00.809',1315.760
'0:00.813',1334.089
'0:00.816',1347.260
'0:00.820',1320.875
'0:00.824',1323.092
'0:00.828',1341.378
'0:00.832',1298.923
'0:00.836',1315.036
'0:00.840',1308.429
'0:00.844',1290.100
'0:00.848',1317.210
'0:00.852',1279.870
'0:00.855',1309.153
'0:00.859',1277.653
'0:00.863',1295.257
'0:00.867',1304.763
'0:00.871',1293.041
'0:00.875',1263.757
'0:00.879',1299.648
'0:00.883',1268.872
'0:00.887',1250.543
'0:00.891',1259.324
'0:00.895',1285.709
'0:00.898',1273.987
'0:00.902',1241.763
'0:00.906',1273.987
'0:00.910',1252.035
'0:00.914',1224.158
'0:00.918',1263.757
'0:00.922',1235.880
'0:00.926',1214.653
'0:00.930',1235.880
'0:00.934',1243.212
'0:00.938',1230.041
'0:00.941',1225.650
'0:00.945',1209.538
'0:00.949',1210.262
'0:00.953',1205.147
'0:00.957',1194.875
'0:00.961',1198.541
'0:00.965',1194.875
'0:00.969',1186.819
'0:00.973',1191.934
'0:00.977',1169.214
'0:00.980',1175.821
'0:00.984',1184.602
'0:00.988',1180.936
'0:00.992',1185.369
'0:00.996',1185.369
'0:01.000',1191.934
'0:01.004',1173.647
'0:01.008',1155.318
'0:01.012',1162.650
'0:01.016',1203.656
'0:01.020',1175.821
'0:01.023',1185.369
'0:01.027',1196.324
'0:01.031',1208.813
'0:01.035',1205.147
'0:01.039',1204.380
'0:01.043',1211.712
'0:01.047',1208.046
'0:01.051',1245.428
'0:01.055',1244.704
'0:01.059',1249.094
'0:01.063',1270.322
'0:01.066',1315.760
'0:01.070',1335.538
'0:01.074',1356.041
'0:01.078',1379.485
'0:01.082',1392.656
'0:01.086',1409.536
'0:01.090',1430.764
'0:01.094',1465.930
'0:01.098',1534.088
'0:01.102',1545.809
'0:01.105',1606.593
'0:01.109',1654.206
'0:01.113',1692.313
'0:01.117',1754.589
'0:01.121',1810.257
'0:01.125',1854.204
'0:01.129',1914.306
'0:01.133',1986.812
'0:01.137',2027.093
'0:01.141',2060.809
'0:01.145',2113.537
'0:01.148',2169.248
'0:01.152',2202.198
'0:01.156',2221.976
'0:01.160',2238.813
'0:01.164',2231.524
'0:01.168',2253.476
'0:01.172',2231.524
'0:01.176',2205.864
'0:01.180',2200.024
'0:01.184',2160.425
'0:01.188',2106.248
'0:01.191',2050.537
'0:01.195',2018.312
'0:01.199',1931.143
'0:01.203',1855.696
'0:01.207',1801.477
'0:01.211',1712.091
'0:01.215',1633.703
'0:01.219',1575.818
'0:01.223',1489.373
'0:01.227',1421.258
'0:01.230',1386.817
'0:01.234',1293.766
'0:01.238',1250.543
'0:01.242',1188.268
'0:01.246',1161.925
'0:01.250',1114.270
'0:01.254',1123.094
'0:01.258',1077.655
'0:01.262',1071.815
'0:01.266',1085.711
'0:01.270',1071.815
'0:01.273',1067.382
'0:01.277',1109.880
'0:01.281',1109.880
'0:01.285',1110.604
'0:01.289',1136.265
'0:01.293',1170.706
'0:01.297',1157.492
'0:01.301',1190.484
'0:01.305',1214.653
'0:01.309',1238.821
'0:01.313',1239.546
'0:01.316',1247.602
'0:01.320',1260.092
'0:01.324',1252.760
'0:01.328',1298.156
'0:01.332',1264.482
'0:01.336',1312.819
'0:01.340',1273.263
'0:01.344',1303.314
'0:01.348',1304.038
'0:01.352',1290.824
'0:01.355',1317.934
'0:01.359',1311.370
'0:01.363',1293.766
'0:01.367',1293.041
'0:01.371',1282.768
'0:01.375',1308.429
'0:01.379',1269.597
'0:01.383',1301.822
'0:01.387',1275.479
'0:01.391',1270.322
'0:01.395',1265.931
'0:01.398',1279.102
'0:01.402',1269.597
'0:01.406',1254.209
'0:01.410',1253.485
'0:01.414',1268.872
'0:01.418',1295.982
'0:01.422',1286.434
'0:01.426',1276.204
'0:01.430',1315.036
'0:01.434',1323.092
'0:01.438',1328.932
'0:01.441',1306.212
'0:01.445',1307.704
'0:01.449',1316.485
'0:01.453',1368.488
'0:01.457',1369.980
'0:01.461',1359.707
'0:01.465',1356.766
'0:01.469',1391.932
'0:01.473',1397.090
'0:01.477',1421.258
'0:01.480',1399.988
'0:01.484',1438.095
'0:01.488',1414.651
'0:01.492',1438.820
'0:01.496',1455.699
'0:01.500',1425.649
'0:01.504',1430.039
'0:01.508',1462.988
'0:01.512',1427.098
'0:01.516',1452.034
'0:01.520',1458.598
'0:01.523',1427.098
'0:01.527',1459.323
'0:01.531',1430.764
'0:01.535',1474.710
'0:01.539',1452.034
'0:01.543',1424.199
'0:01.547',1462.264
'0:01.551',1436.646
'0:01.555',1421.983
'0:01.559',1396.322
'0:01.563',1384.600
'0:01.566',1383.876
'0:01.570',1393.424
'0:01.574',1376.544
'0:01.578',1362.648
'0:01.582',1307.704
'0:01.586',1326.758
'0:01.590',1273.263
'0:01.594',1296.707
'0:01.598',1257.875
'0:01.602',1247.602
'0:01.605',1241.763
'0:01.609',1208.813
'0:01.613',1175.097
'0:01.617',1158.260
'0:01.621',1143.596
'0:01.625',1153.869
'0:01.629',1153.869
'0:01.633',1115.762
'0:01.637',1084.986
'0:01.641',1102.548
'0:01.645',1083.537
'0:01.648',1071.048
'0:01.652',1100.374
'0:01.656',1110.604
'0:01.660',1102.548
'0:01.664',1125.992
'0:01.668',1097.433
'0:01.672',1106.981
'0:01.676',1125.992
'0:01.680',1168.490
'0:01.684',1141.380
'0:01.688',1155.318
'0:01.691',1171.431
'0:01.695',1197.816
'0:01.699',1244.704
'0:01.703',1241.763
'0:01.707',1251.268
'0:01.711',1304.038
'0:01.715',1300.373
'0:01.719',1357.491
'0:01.723',1361.156
'0:01.727',1391.932
'0:01.730',1428.590
'0:01.734',1501.820
'0:01.738',1497.430
'0:01.742',1532.596
'0:01.746',1574.369
'0:01.750',1619.765
'0:01.754',1668.869
'0:01.758',1677.650
'0:01.762',1752.372
'0:01.766',1742.142
'0:01.770',1793.420
'0:01.773',1825.645
'0:01.777',1838.816
'0:01.781',1849.089
'0:01.785',1873.982
'0:01.789',1864.477
'0:01.793',1849.089
'0:01.797',1858.595
'0:01.801',1862.260
'0:01.805',1816.864
'0:01.809',1810.982
'0:01.813',1804.418
'0:01.816',1764.819
'0:01.820',1725.262
'0:01.824',1738.476
'0:01.828',1698.920
'0:01.832',1660.088
'0:01.836',1632.978
'0:01.840',1607.318
'0:01.844',1580.975
'0:01.848',1531.146
'0:01.852',1516.483
'0:01.855',1479.868
'0:01.859',1494.489
'0:01.863',1435.921
'0:01.867',1460.814
'0:01.871',1426.373
'0:01.875',1400.755
'0:01.879',1386.092
'0:01.883',1399.263
'0:01.887',1397.814
'0:01.891',1385.368
'0:01.895',1383.151
'0:01.898',1371.429
'0:01.902',1361.156
'0:01.906',1352.376
'0:01.910',1342.870
'0:01.914',1348.710
'0:01.918',1358.982
'0:01.922',1309.878
'0:01.926',1308.429
'0:01.930',1334.089
'0:01.934',1342.870
'0:01.938',1345.811
'0:01.941',1327.482
'0:01.945',1301.097
'0:01.949',1317.934
'0:01.953',1336.263
'0:01.957',1298.923
'0:01.961',1321.600
'0:01.965',1283.536
'0:01.969',1302.546
'0:01.973',1298.923
'0:01.977',1267.380
'0:01.980',1287.926
'0:01.984',1282.044
'0:01.988',1273.987
'0:01.992',1267.380
'0:01.996',1220.535
'0:02.000',1252.035
'0:02.004',1201.482
'0:02.008',1228.591
'0:02.012',1209.538
'0:02.016',1181.703
'0:02.020',1215.378
'0:02.023',1194.150
'0:02.027',1189.760
'0:02.031',1189.760
'0:02.035',1188.992
'0:02.039',1197.816
'0:02.043',1199.265
'0:02.047',1189.760
'0:02.051',1234.431
'0:02.055',1237.372
'0:02.059',1240.313
'0:02.063',1233.706
'0:02.066',1278.378
'0:02.070',1275.479
'0:02.074',1291.592
'0:02.078',1278.378
'0:02.082',1328.932
'0:02.086',1304.763
'0:02.090',1339.929
'0:02.094',1358.982
'0:02.098',1337.712
'0:02.102',1342.145
'0:02.105',1361.924
'0:02.109',1382.426
'0:02.113',1402.205
'0:02.117',1389.033
'0:02.121',1410.261
'0:02.125',1393.424
'0:02.129',1370.704
'0:02.133',1389.758
'0:02.137',1404.378
'0:02.141',1389.033
'0:02.145',1359.707
'0:02.148',1358.258
'0:02.152',1388.266
'0:02.156',1386.817
'0:02.160',1376.544
'0:02.164',1361.924
'0:02.168',1376.544
'0:02.172',1366.314
'0:02.176',1366.314
'0:02.180',1357.491
'0:02.184',1330.423
'0:02.188',1357.491
'0:02.191',1317.210
'0:02.195',1354.592
'0:02.199',1335.538
'0:02.203',1300.373
'0:02.207',1334.089
'0:02.211',1298.923
'0:02.215',1309.878
'0:02.219',1304.038
'0:02.223',1282.768
'0:02.227',1256.426
'0:02.230',1280.594
'0:02.234',1252.035
'0:02.238',1272.538
'0:02.242',1220.535
'0:02.246',1252.760
'0:02.250',1201.482
'0:02.254',1223.434
'0:02.258',1216.102
'0:02.262',1195.599
'0:02.266',1169.982
'0:02.270',1174.372
'0:02.273',1191.934
'0:02.277',1176.546
'0:02.281',1188.268
'0:02.285',1224.158
'0:02.289',1210.262
'0:02.293',1265.207
'0:02.297',1281.319
'0:02.301',1320.875
'0:02.305',1347.985
'0:02.309',1412.477
'0:02.313',1419.042
'0:02.316',1508.427
'0:02.320',1528.205
'0:02.324',1584.599
'0:02.328',1667.420
'0:02.332',1701.094
'0:02.336',1741.375
'0:02.340',1796.361
'0:02.344',1840.308
'0:02.348',1906.250
'0:02.352',1923.087
'0:02.355',1964.092
'0:02.359',2015.371
'0:02.363',2025.643
'0:02.367',2035.916
'0:02.371',2054.202
'0:02.375',2038.090
'0:02.379',2021.978
'0:02.383',2003.649
'0:02.387',1975.090
'0:02.391',1968.483
'0:02.395',1918.696
'0:02.398',1877.648
'0:02.402',1856.421
'0:02.406',1779.482
'0:02.410',1750.923
'0:02.414',1710.642
'0:02.418',1669.594
'0:02.422',1587.540
'0:02.426',1573.644
'0:02.430',1504.037
'0:02.434',1458.598
'0:02.438',1422.707
'0:02.441',1383.151
'0:02.445',1350.926
'0:02.449',1335.538
'0:02.453',1320.875
'0:02.457',1297.431
'0:02.461',1252.760
'0:02.465',1277.653
'0:02.469',1261.541
'0:02.473',1226.375
'0:02.477',1252.760
'0:02.480',1223.434
'0:02.484',1238.097
'0:02.488',1216.869
'0:02.492',1231.490
'0:02.496',1282.768
'0:02.500',1265.931
'0:02.504',1280.594
'0:02.508',1321.600
'0:02.512',1351.651
'0:02.516',1366.314
'0:02.520',1395.598
'0:02.523',1410.985
'0:02.527',1443.210
'0:02.531',1474.710
'0:02.535',1508.427
'0:02.539',1528.930
'0:02.543',1585.366
'0:02.547',1571.427
'0:02.551',1608.810
'0:02.555',1629.313
'0:02.559',1674.709
'0:02.563',1674.709
'0:02.566',1723.088
'0:02.570',1706.251
'0:02.574',1742.142
'0:02.578',1755.313
'0:02.582',1753.097
'0:02.586',1787.538
'0:02.590',1810.982
'0:02.594',1786.813
'0:02.598',1789.755
'0:02.602',1797.811
'0:02.605',1799.985
'0:02.609',1810.257
'0:02.613',1825.645
'0:02.617',1821.255
'0:02.621',1796.361
'0:02.625',1795.594
'0:02.629',1806.592
'0:02.633',1804.418
'0:02.637',1772.918
'0:02.641',1771.426
'0:02.645',1764.819
'0:02.648',1775.816
'0:02.652',1726.030
'0:02.656',1739.925
'0:02.660',1688.647
'0:02.664',1663.754
'0:02.668',1638.093
'0:02.672',1609.534
'0:02.676',1589.032
'0:02.680',1566.312
'0:02.684',1548.708
'0:02.688',1489.373
'0:02.691',1443.977
'0:02.695',1416.100
'0:02.699',1388.266
'0:02.703',1325.990
'0:02.707',1305.488
'0:02.711',1244.704
'0:02.715',1210.262
'0:02.719',1164.824
'0:02.723',1125.992
'0:02.727',1101.099
'0:02.730',1062.992
'0:02.734',1015.379
'0:02.738',990.486
'0:02.742',928.210
'0:02.746',915.764
'0:02.750',869.600
'0:02.754',876.207
'0:02.758',858.603
'0:02.762',841.766
'0:02.766',832.218
'0:02.770',824.929
'0:02.773',817.597
'0:02.777',802.210
'0:02.781',816.106
'0:02.785',783.881
'0:02.789',823.437
'0:02.793',828.552
'0:02.797',814.656
'0:02.801',831.493
'0:02.805',835.884
'0:02.809',838.825
'0:02.813',838.100
'0:02.816',872.542
'0:02.820',901.825
'0:02.824',921.603
'0:02.828',938.483
'0:02.832',958.261
'0:02.836',964.826
'0:02.840',987.545
'0:02.844',999.267
'0:02.848',1001.483
'0:02.852',998.542
'0:02.855',1051.270
'0:02.859',1062.992
'0:02.863',1051.270
'0:02.867',1103.315
'0:02.871',1101.824
'0:02.875',1141.380
'0:02.879',1117.211
'0:02.883',1150.928
'0:02.887',1177.270
'0:02.891',1216.869
'0:02.895',1213.204
'0:02.898',1232.982
'0:02.902',1288.651
'0:02.906',1283.536
'0:02.910',1286.434
'0:02.914',1325.990
'0:02.918',1347.260
'0:02.922',1332.597
'0:02.926',1365.589
'0:02.930',1377.311
'0:02.934',1350.926
'0:02.938',1364.822
'0:02.941',1371.429
'0:02.945',1375.819
'0:02.949',1340.654
'0:02.953',1359.707
'0:02.957',1364.822
'0:02.961',1351.651
'0:02.965',1300.373
'0:02.969',1315.760
'0:02.973',1318.701
'0:02.977',1299.648
'0:02.980',1272.538
'0:02.984',1290.100
'0:02.988',1270.322
'0:02.992',1251.268
'0:02.996',1264.482
'0:03.000',1240.313
'0:03.004',1241.763
'0:03.008',1288.651
'0:03.012',1279.870
'0:03.016',1274.712
'0:03.020',1279.102
'0:03.023',1289.375
'0:03.027',1315.036
'0:03.031',1290.824
'0:03.035',1324.541
'0:03.039',1329.656
'0:03.043',1370.704
'0:03.047',1375.095
'0:03.051',1394.148
'0:03.055',1399.263
'0:03.059',1398.539
'0:03.063',1425.649
'0:03.066',1446.876
'0:03.070',1483.534
'0:03.074',1501.820
'0:03.078',1514.309
'0:03.082',1512.817
'0:03.086',1502.587
'0:03.090',1534.812
'0:03.094',1519.424
'0:03.098',1570.703
'0:03.102',1530.422
'0:03.105',1556.040
'0:03.109',1564.096
'0:03.113',1554.590
'0:03.117',1561.922
'0:03.121',1542.144
'0:03.125',1521.598
'0:03.129',1560.430
'0:03.133',1525.264
'0:03.137',1503.312
'0:03.141',1520.149
'0:03.145',1523.090
'0:03.148',1516.483
'0:03.152',1495.256
'0:03.156',1503.312
'0:03.160',1488.649
'0:03.164',1460.814
'0:03.168',1493.039
'0:03.172',1462.988
'0:03.176',1441.036
'0:03.180',1464.480
'0:03.184',1443.210
'0:03.188',1454.932
'0:03.191',1431.488
'0:03.195',1437.371
'0:03.199',1418.317
'0:03.203',1413.927
'0:03.207',1402.929
'0:03.211',1428.590
'0:03.215',1421.258
'0:03.219',1418.317
'0:03.223',1388.266
'0:03.227',1412.477
'0:03.230',1363.373
'0:03.234',1375.819
'0:03.238',1391.207
'0:03.242',1375.095
'0:03.246',1352.376
'0:03.250',1365.589
'0:03.254',1368.488
'0:03.258',1327.482
'0:03.262',1316.485
'0:03.266',1346.536
'0:03.270',1298.156
'0:03.273',1321.600
'0:03.277',1294.490
'0:03.281',1308.429
'0:03.285',1262.990
'0:03.289',1294.490
'0:03.293',1260.092
'0:03.297',1243.212
'0:03.301',1227.100
'0:03.305',1221.984
'0:03.309',1203.656
'0:03.313',1175.097
'0:03.316',1169.214
'0:03.320',1174.372
'0:03.324',1116.487
'0:03.328',1135.540
'0:03.332',1139.206
'0:03.336',1124.543
'0:03.340',1093.043
'0:03.344',1085.711
'0:03.348',1102.548
'0:03.352',1108.430
'0:03.355',1079.871
'0:03.359',1106.214
'0:03.363',1109.880
'0:03.367',1086.436
'0:03.371',1106.214
'0:03.375',1119.428
'0:03.379',1137.714
'0:03.383',1150.928
'0:03.387',1162.650
'0:03.391',1139.931
'0:03.395',1153.102
'0:03.398',1169.982
'0:03.402',1232.257
'0:03.406',1227.100
'0:03.410',1232.257
'0:03.414',1303.314
'0:03.418',1298.923
'0:03.422',1322.367
'0:03.426',1348.710
'0:03.430',1383.151
'0:03.434',1443.977
'0:03.438',1476.202
'0:03.441',1539.203
'0:03.445',1562.647
'0:03.449',1603.652
'0:03.453',1638.818
'0:03.457',1723.813
'0:03.461',1723.813
'0:03.465',1773.642
'0:03.469',1810.257
'0:03.473',1832.977
'0:03.477',1876.923
'0:03.480',1887.196
'0:03.484',1930.418
'0:03.488',1923.087
'0:03.492',1960.427
'0:03.496',1932.592
'0:03.500',1936.983
'0:03.504',1947.255
'0:03.508',1947.980
'0:03.512',1906.974
'0:03.516',1896.702
'0:03.520',1887.921
'0:03.523',1858.595
'0:03.527',1821.979
'0:03.531',1800.752
'0:03.535',1777.308
'0:03.539',1747.257
'0:03.543',1731.869
'0:03.547',1683.532
'0:03.551',1653.481
'0:03.555',1625.647
'0:03.559',1602.928
'0:03.563',1583.874
'0:03.566',1574.369
'0:03.570',1564.820
'0:03.574',1565.588
'0:03.578',1562.647
'0:03.582',1544.318
'0:03.586',1526.756
'0:03.590',1511.368
'0:03.594',1521.598
'0:03.598',1526.031
'0:03.602',1533.320
'0:03.605',1561.155
'0:03.609',1543.593
'0:03.613',1528.205
'0:03.617',1541.376
'0:03.621',1556.040
'0:03.625',1562.647
'0:03.629',1564.820
'0:03.633',1583.149
'0:03.637',1587.540
'0:03.641',1586.815
'0:03.645',1564.096
'0:03.648',1589.756
'0:03.652',1597.812
'0:03.656',1591.206
'0:03.660',1553.098
'0:03.664',1595.596
'0:03.668',1561.922
'0:03.672',1548.708
'0:03.676',1564.096
'0:03.680',1559.705
'0:03.684',1549.433
'0:03.688',1551.649
'0:03.691',1526.031
'0:03.695',1541.376
'0:03.699',1558.256
'0:03.703',1507.702
'0:03.707',1532.596
'0:03.711',1531.146
'0:03.715',1501.095
'0:03.719',1522.366
'0:03.723',1490.865
'0:03.727',1508.427
'0:03.730',1502.587
'0:03.734',1497.430
'0:03.738',1512.817
'0:03.742',1500.371
'0:03.746',1507.702
'0:03.750',1495.256
'0:03.754',1536.986
'0:03.758',1506.211
'0:03.762',1507.702
'0:03.766',1515.034
'0:03.770',1524.539
'0:03.773',1543.593
'0:03.777',1564.820
'0:03.781',1582.425
'0:03.785',1584.599
'0:03.789',1575.818
'0:03.793',1573.644
'0:03.797',1558.981
'0:03.801',1560.430
'0:03.805',1561.922
'0:03.809',1570.703
'0:03.813',1562.647
'0:03.816',1558.981
'0:03.820',1555.315
'0:03.824',1550.925
'0:03.828',1534.812
'0:03.832',1523.815
'0:03.836',1506.978
'0:03.840',1497.430
'0:03.844',1513.542
'0:03.848',1473.261
'0:03.852',1430.764
'0:03.855',1409.536
'0:03.859',1380.935
'0:03.863',1361.156
'0:03.867',1330.423
'0:03.871',1322.367
'0:03.875',1298.923
'0:03.879',1268.872
'0:03.883',1229.316
'0:03.887',1192.658
'0:03.891',1186.094
'0:03.895',1171.431
'0:03.898',1120.152
'0:03.902',1080.596
'0:03.906',1096.708
'0:03.910',1053.486
'0:03.914',1038.823
'0:03.918',1049.821
'0:03.922',1020.494
'0:03.926',1006.598
'0:03.930',972.157
'0:03.934',993.427
'0:03.938',988.269
'0:03.941',969.216
'0:03.945',979.489
'0:03.949',975.823
'0:03.953',970.708
'0:03.957',978.039
'0:03.961',997.818
'0:03.965',1007.323
'0:03.969',1016.104
'0:03.973',1013.205
'0:03.977',1076.930
'0:03.980',1071.815
'0:03.984',1084.986
'0:03.988',1121.602
'0:03.992',1172.155
'0:03.996',1198.541
'0:04.000',1226.375
'0:04.004',1229.316
'0:04.008',1246.153
'0:04.012',1302.546
'0:04.016',1283.536
'0:04.020',1317.210
'0:04.023',1360.432
'0:04.027',1333.322
'0:04.031',1367.039
'0:04.035',1394.873
'0:04.039',1383.151
'0:04.043',1378.036
'0:04.047',1373.646
'0:04.051',1410.985
'0:04.055',1414.651
'0:04.059',1408.812
'0:04.063',1395.598
'0:04.066',1376.544
'0:04.070',1363.373
'0:04.074',1353.867
'0:04.078',1351.651
'0:04.082',1336.988
'0:04.086',1320.151
'0:04.090',1299.648
'0:04.094',1260.092
'0:04.098',1265.207
'0:04.102',1205.872
'0:04.105',1205.872
'0:04.109',1210.987
'0:04.113',1185.369
'0:04.117',1191.209
'0:04.121',1190.484
'0:04.125',1200.714
'0:04.129',1187.543
'0:04.133',1196.324
'0:04.137',1191.934
'0:04.141',1186.819
'0:04.145',1227.100
'0:04.148',1233.706
'0:04.152',1246.153
'0:04.156',1273.987
'0:04.160',1315.036
'0:04.164',1336.263
'0:04.168',1369.213
'0:04.172',1381.702
'0:04.176',1403.654
'0:04.180',1419.766
'0:04.184',1481.317
'0:04.188',1475.478
'0:04.191',1504.037
'0:04.195',1535.537
'0:04.199',1560.430
'0:04.203',1593.422
'0:04.207',1602.203
'0:04.211',1657.872
'0:04.215',1656.422
'0:04.219',1655.698
'0:04.223',1658.596
'0:04.227',1704.760
'0:04.230',1694.529
'0:04.234',1679.142
'0:04.238',1673.259
'0:04.242',1696.703
'0:04.246',1694.529
'0:04.250',1693.038
'0:04.254',1686.431
'0:04.258',1652.757
'0:04.262',1659.364
'0:04.266',1659.364
'0:04.270',1627.096
'0:04.273',1599.262
'0:04.277',1590.481
'0:04.281',1578.034
'0:04.285',1588.264
'0:04.289',1599.986
'0:04.293',1549.433
'0:04.297',1553.098
'0:04.301',1563.371
'0:04.305',1526.756
'0:04.309',1502.587
'0:04.313',1517.208
'0:04.316',1479.143
'0:04.320',1505.486
'0:04.324',1465.205
'0:04.328',1482.042
'0:04.332',1429.314
'0:04.336',1450.542
'0:04.340',1452.034
'0:04.344',1398.539
'0:04.348',1405.146
'0:04.352',1427.098
'0:04.355',1423.432
'0:04.359',1377.311
'0:04.363',1392.656
'0:04.367',1402.205
'0:04.371',1359.707
'0:04.375',1380.935
'0:04.379',1396.322
'0:04.383',1387.541
'0:04.387',1348.710
'0:04.391',1345.044
'0:04.395',1369.213
'0:04.398',1376.544
'0:04.402',1340.654
'0:04.406',1363.373
'0:04.410',1330.423
'0:04.414',1338.480
'0:04.418',1340.654
'0:04.422',1315.760
'0:04.426',1286.434
'0:04.430',1307.704
'0:04.434',1277.653
'0:04.438',1240.313
'0:04.441',1268.148
'0:04.445',1241.763
'0:04.449',1233.706
'0:04.453',1219.768
'0:04.457',1201.482
'0:04.461',1180.936
'0:04.465',1144.321
'0:04.469',1160.433
'0:04.473',1167.765
'0:04.477',1143.596
'0:04.480',1139.206
'0:04.484',1150.203
'0:04.488',1118.703
'0:04.492',1134.048
'0:04.496',1127.484
'0:04.500',1104.040
'0:04.504',1144.321
'0:04.508',1109.880
'0:04.512',1140.655
'0:04.516',1158.260
'0:04.520',1142.147
'0:04.523',1169.214
'0:04.527',1173.647
'0:04.531',1195.599
'0:04.535',1209.538
'0:04.539',1232.982
'0:04.543',1233.706
'0:04.547',1270.322
'0:04.551',1288.651
'0:04.555',1303.314
'0:04.559',1308.429
'0:04.563',1316.485
'0:04.566',1378.036
'0:04.570',1415.376
'0:04.574',1432.980
'0:04.578',1475.478
'0:04.582',1523.815
'0:04.586',1593.422
'0:04.590',1601.478
'0:04.594',1658.596
'0:04.598',1704.035
'0:04.602',1746.532
'0:04.605',1795.594
'0:04.609',1857.145
'0:04.613',1887.196
'0:04.617',1916.480
'0:04.621',1942.140
'0:04.625',1967.034
'0:04.629',1962.643
'0:04.633',1986.812
'0:04.637',1985.362
'0:04.641',1972.916
'0:04.645',1952.370
'0:04.648',1921.595
'0:04.652',1879.140
'0:04.656',1858.595
'0:04.660',1802.201
'0:04.664',1769.252
'0:04.668',1723.088
'0:04.672',1667.420
'0:04.676',1639.543
'0:04.680',1591.930
'0:04.684',1550.200
'0:04.688',1509.876
'0:04.691',1495.256
'0:04.695',1435.154
'0:04.699',1399.263
'0:04.703',1383.876
'0:04.707',1372.878
'0:04.711',1358.982
'0:04.715',1316.485
'0:04.719',1344.319
'0:04.723',1298.156
'0:04.727',1321.600
'0:04.730',1330.423
'0:04.734',1294.490
'0:04.738',1328.932
'0:04.742',1336.263
'0:04.746',1352.376
'0:04.750',1358.982
'0:04.754',1335.538
'0:04.758',1335.538
'0:04.762',1361.924
'0:04.766',1357.491
'0:04.770',1378.036
'0:04.773',1379.485
'0:04.777',1423.432
'0:04.781',1421.983
'0:04.785',1410.985
'0:04.789',1463.756
'0:04.793',1431.488
'0:04.797',1480.593
'0:04.801',1449.093
'0:04.805',1498.922
'0:04.809',1475.478
'0:04.813',1513.542
'0:04.816',1482.042
'0:04.820',1494.489
'0:04.824',1519.424
'0:04.828',1540.652
'0:04.832',1542.144
'0:04.836',1537.711
'0:04.840',1513.542
'0:04.844',1524.539
'0:04.848',1534.088
'0:04.852',1511.368
'0:04.855',1519.424
'0:04.859',1529.654
'0:04.863',1550.200
'0:04.867',1565.588
'0:04.871',1538.478
'0:04.875',1538.478
'0:04.879',1538.478
'0:04.883',1539.927
'0:04.887',1557.531
'0:04.891',1589.756
'0:04.895',1565.588
'0:04.898',1559.705
'0:04.902',1570.703
'0:04.906',1601.478
'0:04.910',1572.152
'0:04.914',1574.369
'0:04.918',1591.930
'0:04.922',1594.871
'0:04.926',1606.593
'0:04.930',1611.708
'0:04.934',1579.484
'0:04.938',1584.599
'0:04.941',1604.419
'0:04.945',1608.043
'0:04.949',1563.371
'0:04.953',1555.315
'0:04.957',1549.433
'0:04.961',1537.711
'0:04.965',1553.866
'0:04.969',1551.649
'0:04.973',1526.756
'0:04.977',1490.098
'0:04.980',1473.986
'0:04.984',1435.154
'0:04.988',1405.870
'0:04.992',1399.263
'0:04.996',1395.598
'0:05.000',1348.710
'0:05.004',1319.426
'0:05.008',1283.536
'0:05.012',1247.602
'0:05.016',1221.984
'0:05.020',1205.872
'0:05.023',1186.094
'0:05.027',1140.655
'0:05.031',1095.984
'0:05.035',1106.214
'0:05.039',1063.759
'0:05.043',1039.548
'0:05.047',1054.936
'0:05.051',1031.492
'0:05.055',1011.713
'0:05.059',998.542
'0:05.063',996.326
'0:05.066',980.213
'0:05.070',968.491
'0:05.074',956.769
'0:05.078',946.539
'0:05.082',935.542
'0:05.086',934.817
'0:05.090',948.713
'0:05.094',956.045
'0:05.098',956.045
'0:05.102',960.435
'0:05.105',1010.989
'0:05.109',989.761
'0:05.113',1035.882
'0:05.117',1066.658
'0:05.121',1106.981
'0:05.125',1132.599
'0:05.129',1142.147
'0:05.133',1157.492
'0:05.137',1214.653
'0:05.141',1214.653
'0:05.145',1286.434
'0:05.148',1329.656
'0:05.152',1336.263
'0:05.156',1398.539
'0:05.160',1410.985
'0:05.164',1424.199
'0:05.168',1487.924
'0:05.172',1484.983
'0:05.176',1528.930
'0:05.180',1504.037
'0:05.184',1529.654
'0:05.188',1534.812
'0:05.191',1557.531
'0:05.195',1564.820
'0:05.199',1519.424
'0:05.203',1507.702
'0:05.207',1503.312
'0:05.211',1517.208
'0:05.215',1489.373
'0:05.219',1442.486
'0:05.223',1439.544
'0:05.227',1397.090
'0:05.230',1397.090
'0:05.234',1371.429
'0:05.238',1339.929
'0:05.242',1268.148
'0:05.246',1271.046
'0:05.250',1226.375
'0:05.254',1219.768
'0:05.258',1210.262
'0:05.262',1192.658
'0:05.266',1184.602
'0:05.270',1178.038
'0:05.273',1153.102
'0:05.277',1172.155
'0:05.281',1173.647
'0:05.285',1161.925
'0:05.289',1162.650
'0:05.293',1178.762
'0:05.297',1192.658
'0:05.301',1226.375
'0:05.305',1224.158
'0:05.309',1255.701
'0:05.313',1303.314
'0:05.316',1320.151
'0:05.320',1318.701
'0:05.324',1334.089
'0:05.328',1399.988
'0:05.332',1401.480
'0:05.336',1411.710
'0:05.340',1473.261
'0:05.344',1452.758
'0:05.348',1476.202
'0:05.352',1512.817
'0:05.355',1547.983
'0:05.359',1541.376
'0:05.363',1545.042
'0:05.367',1556.764
'0:05.371',1567.037
'0:05.375',1582.425
'0:05.379',1592.697
'0:05.383',1617.591
'0:05.387',1615.374
'0:05.391',1637.369
'0:05.395',1674.709
'0:05.398',1681.316
'0:05.402',1646.874
'0:05.406',1679.866
'0:05.410',1664.479
'0:05.414',1699.645
'0:05.418',1671.085
'0:05.422',1714.308
'0:05.426',1686.431
'0:05.430',1713.540
'0:05.434',1707.701
'0:05.438',1699.645
'0:05.441',1739.925
'0:05.445',1706.976
'0:05.449',1736.984
'0:05.453',1715.757
'0:05.457',1714.308
'0:05.461',1730.420
'0:05.465',1741.375
'0:05.469',1704.035
'0:05.473',1716.482
'0:05.477',1700.369
'0:05.480',1717.206
'0:05.484',1668.144
'0:05.488',1675.476
'0:05.492',1676.925
'0:05.496',1659.364
'0:05.500',1632.978
'0:05.504',1611.708
'0:05.508',1606.593
'0:05.512',1573.644
'0:05.516',1552.374
'0:05.520',1543.593
'0:05.523',1551.649
'0:05.527',1515.034
'0:05.531',1506.211
'0:05.535',1504.761
'0:05.539',1476.202
'0:05.543',1449.817
'0:05.547',1463.756
'0:05.551',1438.820
'0:05.555',1406.595
'0:05.559',1379.485
'0:05.563',1352.376
'0:05.566',1337.712
'0:05.570',1330.423
'0:05.574',1335.538
'0:05.578',1324.541
'0:05.582',1261.541
'0:05.586',1282.768
'0:05.590',1238.097
'0:05.594',1246.153
'0:05.598',1181.703
'0:05.602',1201.482
'0:05.605',1143.596
'0:05.609',1119.428
'0:05.613',1136.989
'0:05.617',1121.602
'0:05.621',1104.765
'0:05.625',1087.160
'0:05.629',1072.540
'0:05.633',1025.652
'0:05.637',1032.984
'0:05.641',985.371
'0:05.645',1013.205
'0:05.648',991.935
'0:05.652',968.491
'0:05.656',947.989
'0:05.660',989.761
'0:05.664',966.317
'0:05.668',994.876
'0:05.672',966.317
'0:05.676',992.660
'0:05.680',1008.048
'0:05.684',1014.655
'0:05.688',1035.882
'0:05.691',1108.430
'0:05.695',1110.604
'0:05.699',1166.316
'0:05.703',1205.147
'0:05.707',1257.150
'0:05.711',1296.707
'0:05.715',1339.204
'0:05.719',1432.255
'0:05.723',1500.371
'0:05.727',1542.868
'0:05.730',1642.484
'0:05.734',1712.816
'0:05.738',1812.474
'0:05.742',1881.314
'0:05.746',1967.758
'0:05.750',2056.419
'0:05.754',2101.090
'0:05.758',2166.307
'0:05.762',2236.639
'0:05.766',2252.027
'0:05.770',2299.639
'0:05.773',2330.415
'0:05.777',2337.746
'0:05.781',2339.196
'0:05.785',2326.749
'0:05.789',2301.089
'0:05.793',2268.139
'0:05.797',2202.922
'0:05.801',2162.641
'0:05.805',2085.703
'0:05.809',2019.036
'0:05.813',1957.528
'0:05.816',1895.977
'0:05.820',1795.594
'0:05.824',1742.142
'0:05.828',1649.091
'0:05.832',1586.815
'0:05.836',1545.042
'0:05.840',1445.427
'0:05.844',1422.707
'0:05.848',1345.811
'0:05.852',1306.979
'0:05.855',1282.768
'0:05.859',1263.757
'0:05.863',1219.043
'0:05.867',1198.541
'0:05.871',1185.369
'0:05.875',1173.647
'0:05.879',1169.214
'0:05.883',1161.925
'0:05.887',1161.925
'0:05.891',1151.653
'0:05.895',1127.484
'0:05.898',1125.267
'0:05.902',1176.546
'0:05.906',1158.260
'0:05.910',1157.492
'0:05.914',1196.324
'0:05.918',1175.821
'0:05.922',1221.260
'0:05.926',1197.816
'0:05.930',1230.765
'0:05.934',1258.600
'0:05.938',1275.479
'0:05.941',1257.875
'0:05.945',1262.265
'0:05.949',1276.204
'0:05.953',1306.212
'0:05.957',1328.932
'0:05.961',1328.932
'0:05.965',1328.932
'0:05.969',1388.266
'0:05.973',1362.648
'0:05.977',1413.927
'0:05.980',1396.322
'0:05.984',1444.702
'0:05.988',1423.432
'0:05.992',1435.921
'0:05.996',1487.924
'0:06.000',1500.371
'0:06.004',1489.373
'0:06.008',1531.146
'0:06.012',1546.534
'0:06.016',1569.253
'0:06.020',1583.149
'0:06.023',1563.371
'0:06.027',1588.264
'0:06.031',1610.259
'0:06.035',1625.647
'0:06.039',1630.762
'0:06.043',1679.866
'0:06.047',1657.147
'0:06.051',1689.372
'0:06.055',1703.310
'0:06.059',1715.757
'0:06.063',1727.479
'0:06.066',1734.086
'0:06.070',1734.810
'0:06.074',1741.375
'0:06.078',1745.808
'0:06.082',1773.642
'0:06.086',1791.204
'0:06.090',1761.196
'0:06.094',1750.923
'0:06.098',1747.982
'0:06.102',1777.308
'0:06.105',1741.375
'0:06.109',1739.925
'0:06.113',1732.594
'0:06.117',1670.318
'0:06.121',1650.540
'0:06.125',1653.481
'0:06.129',1630.037
'0:06.133',1569.978
'0:06.137',1528.930
'0:06.141',1520.874
'0:06.145',1450.542
'0:06.148',1414.651
'0:06.152',1393.424
'0:06.156',1315.760
'0:06.160',1280.594
'0:06.164',1254.934
'0:06.168',1205.872
'0:06.172',1155.318
'0:06.176',1093.043
'0:06.180',1084.262
'0:06.184',1023.435
'0:06.188',1016.104
'0:06.191',999.267
'0:06.195',975.098
'0:06.199',953.828
'0:06.203',918.662
'0:06.207',884.264
'0:06.211',893.769
'0:06.215',905.491
'0:06.219',862.269
'0:06.223',890.828
'0:06.227',871.817
'0:06.230',887.929
'0:06.234',901.101
'0:06.238',874.715
'0:06.242',892.320
'0:06.246',912.098
'0:06.250',962.652
'0:06.254',986.096
'0:06.258',966.317
'0:06.262',1033.708
'0:06.266',1043.214
'0:06.270',1058.601
'0:06.273',1093.767
'0:06.277',1115.762
'0:06.281',1142.147
'0:06.285',1145.770
'0:06.289',1148.711
'0:06.293',1150.928
'0:06.297',1177.270
'0:06.301',1153.869
'0:06.305',1195.599
'0:06.309',1185.369
'0:06.313',1178.762
'0:06.316',1175.097
'0:06.320',1156.768
'0:06.324',1150.928
'0:06.328',1131.150
'0:06.332',1113.545
'0:06.336',1054.211
'0:06.340',1064.484
'0:06.344',1068.149
'0:06.348',1016.104
'0:06.352',1030.767
'0:06.355',992.660
'0:06.359',1010.989
'0:06.363',1001.483
'0:06.367',976.548
'0:06.371',983.879
'0:06.375',953.104
'0:06.379',995.601
'0:06.383',986.096
'0:06.387',977.272
'0:06.391',967.767
'0:06.395',1000.716
'0:06.398',1003.657
'0:06.402',988.269
'0:06.406',1026.377
'0:06.410',1016.871
'0:06.414',1055.660
'0:06.418',1079.104
'0:06.422',1102.548
'0:06.426',1117.211
'0:06.430',1123.094
'0:06.434',1124.543
'0:06.438',1138.481
'0:06.441',1177.270
'0:06.445',1199.265
'0:06.449',1191.209
'0:06.453',1213.928
'0:06.457',1241.763
'0:06.461',1247.602
'0:06.465',1249.094
'0:06.469',1254.209
'0:06.473',1287.201
'0:06.477',1295.257
'0:06.480',1259.324
'0:06.484',1271.046
'0:06.488',1282.044
'0:06.492',1294.490
'0:06.496',1295.982
'0:06.500',1280.594
'0:06.504',1246.153
'0:06.508',1273.987
'0:06.512',1243.979
'0:06.516',1243.212
'0:06.520',1221.984
'0:06.523',1197.816
'0:06.527',1225.650
'0:06.531',1196.324
'0:06.535',1210.262
'0:06.539',1158.984
'0:06.543',1171.431
'0:06.547',1193.425
'0:06.551',1150.928
'0:06.555',1189.760
'0:06.559',1158.984
'0:06.563',1193.425
'0:06.566',1174.372
'0:06.570',1218.319
'0:06.574',1213.204
'0:06.578',1235.156
'0:06.582',1235.156
'0:06.586',1241.038
'0:06.590',1268.872
'0:06.594',1285.709
'0:06.598',1296.707
'0:06.602',1349.434
'0:06.605',1344.319
'0:06.609',1353.867
'0:06.613',1402.929
'0:06.617',1382.426
'0:06.621',1440.312
'0:06.625',1420.533
'0:06.629',1449.093
'0:06.633',1495.256
'0:06.637',1495.256
'0:06.641',1496.705
'0:06.645',1506.211
'0:06.648',1541.376
'0:06.652',1532.596
'0:06.656',1530.422
'0:06.660',1563.371
'0:06.664',1552.374
'0:06.668',1558.256
'0:06.672',1569.253
'0:06.676',1547.983
'0:06.680',1542.868
'0:06.684',1571.427
'0:06.688',1518.700
'0:06.691',1523.090
'0:06.695',1495.980
'0:06.699',1474.710
'0:06.703',1484.258
'0:06.707',1441.761
'0:06.711',1413.202
'0:06.715',1389.033
'0:06.719',1349.434
'0:06.723',1268.872
'0:06.727',1227.100
'0:06.730',1186.819
'0:06.734',1118.703
'0:06.738',1102.548
'0:06.742',1021.262
'0:06.746',1017.596
'0:06.750',979.489
'0:06.754',928.210
'0:06.758',912.823
'0:06.762',876.932
'0:06.766',851.996
'0:06.770',831.493
'0:06.773',804.384
'0:06.777',805.151
'0:06.781',797.819
'0:06.785',790.488
'0:06.789',797.052
'0:06.793',803.659
'0:06.797',819.771
'0:06.801',808.049
'0:06.805',861.544
'0:06.809',873.991
'0:06.813',930.384
'0:06.816',963.376
'0:06.820',981.705
'0:06.824',1024.927
'0:06.828',1058.601
'0:06.832',1075.481
'0:06.836',1118.703
'0:06.840',1176.546
'0:06.844',1234.431
'0:06.848',1295.257
'0:06.852',1329.656
'0:06.855',1367.763
'0:06.859',1398.539
'0:06.863',1460.090
'0:06.867',1511.368
'0:06.871',1591.206
'0:06.875',1636.644
'0:06.879',1712.091
'0:06.883',1761.196
'0:06.887',1819.763
'0:06.891',1876.923
'0:06.895',1895.252
'0:06.898',1937.750
'0:06.902',1983.871
'0:06.906',2002.924
'0:06.910',2027.093
'0:06.914',2024.194
'0:06.918',2021.253
'0:06.922',2010.980
'0:06.926',2003.649
'0:06.930',1960.427
'0:06.934',1922.362
'0:06.938',1899.643
'0:06.941',1854.929
'0:06.945',1796.361
'0:06.949',1693.762
'0:06.953',1661.537
'0:06.957',1587.540
'0:06.961',1478.376
'0:06.965',1394.148
'0:06.969',1336.263
'0:06.973',1297.431
'0:06.977',1219.768
'0:06.980',1178.038
'0:06.984',1123.094
'0:06.988',1059.326
'0:06.992',1009.540
'0:06.996',1018.320
'0:07.000',969.216
'0:07.004',966.317
'0:07.008',958.261
'0:07.012',939.932
'0:07.016',979.489
'0:07.020',977.272
'0:07.023',971.432
'0:07.027',1027.826
'0:07.031',1062.267
'0:07.035',1090.102
'0:07.039',1121.602
'0:07.043',1153.102
'0:07.047',1177.270
'0:07.051',1194.875
'0:07.055',1224.926
'0:07.059',1263.757
'0:07.063',1316.485
'0:07.066',1358.258
'0:07.070',1392.656
'0:07.074',1415.376
'0:07.078',1428.590
'0:07.082',1473.986
'0:07.086',1475.478
'0:07.090',1520.874
'0:07.094',1564.096
'0:07.098',1569.253
'0:07.102',1604.419
'0:07.105',1627.096
'0:07.109',1668.144
'0:07.113',1709.875
'0:07.117',1697.428
'0:07.121',1730.420
'0:07.125',1753.864
'0:07.129',1797.086
'0:07.133',1799.260
'0:07.137',1796.361
'0:07.141',1816.140
'0:07.145',1816.140
'0:07.148',1824.921
'0:07.152',1819.038
'0:07.156',1835.151
'0:07.160',1837.367
'0:07.164',1851.306
'0:07.168',1837.367
'0:07.172',1808.041
'0:07.176',1807.316
'0:07.180',1814.648
'0:07.184',1809.533
'0:07.188',1787.538
'0:07.191',1776.541
'0:07.195',1758.254
'0:07.199',1752.372
'0:07.203',1700.369
'0:07.207',1682.040
'0:07.211',1687.923
'0:07.215',1657.147
'0:07.219',1615.374
'0:07.223',1602.203
'0:07.227',1583.149
'0:07.230',1575.093
'0:07.234',1534.812
'0:07.238',1524.539
'0:07.242',1519.424
'0:07.246',1520.149
'0:07.250',1458.598
'0:07.254',1484.258
'0:07.258',1424.924
'0:07.262',1454.932
'0:07.266',1401.480
'0:07.270',1387.541
'0:07.273',1366.314
'0:07.277',1351.651
'0:07.281',1350.926
'0:07.285',1346.536
'0:07.289',1346.536
'0:07.293',1312.819
'0:07.297',1282.768
'0:07.301',1295.982
'0:07.305',1235.156
'0:07.309',1254.209
'0:07.313',1215.378
'0:07.316',1224.926
'0:07.320',1186.819
'0:07.324',1166.316
'0:07.328',1161.158
'0:07.332',1158.260
'0:07.336',1139.931
'0:07.340',1146.538
'0:07.344',1136.989
'0:07.348',1129.658
'0:07.352',1123.818
'0:07.355',1100.374
'0:07.359',1103.315
'0:07.363',1109.155
'0:07.367',1090.102
'0:07.371',1131.874
'0:07.375',1098.158
'0:07.379',1154.594
'0:07.383',1142.147
'0:07.387',1190.484
'0:07.391',1202.206
'0:07.395',1220.535
'0:07.398',1253.485
'0:07.402',1228.591
'0:07.406',1273.987
'0:07.410',1299.648
'0:07.414',1295.982
'0:07.418',1287.201
'0:07.422',1284.985
'0:07.426',1284.985
'0:07.430',1295.982
'0:07.434',1309.878
'0:07.438',1295.982
'0:07.441',1260.092
'0:07.445',1282.044
'0:07.449',1241.038
'0:07.453',1230.041
'0:07.457',1201.482
'0:07.461',1179.487
'0:07.465',1178.762
'0:07.469',1159.709
'0:07.473',1140.655
'0:07.477',1142.147
'0:07.480',1149.436
'0:07.484',1136.265
'0:07.488',1134.048
'0:07.492',1131.150
'0:07.496',1141.380
'0:07.500',1143.596
'0:07.504',1144.321
'0:07.508',1139.931
'0:07.512',1139.931
'0:07.516',1144.321
'0:07.520',1192.658
'0:07.523',1186.094
'0:07.527',1175.821
'0:07.531',1224.926
'0:07.535',1238.097
'0:07.539',1217.594
'0:07.543',1255.701
'0:07.547',1284.985
'0:07.551',1270.322
'0:07.555',1304.038
'0:07.559',1295.982
'0:07.563',1337.712
'0:07.566',1312.095
'0:07.570',1323.817
'0:07.574',1371.429
'0:07.578',1371.429
'0:07.582',1370.704
'0:07.586',1355.317
'0:07.590',1405.146
'0:07.594',1389.758
'0:07.598',1378.036
'0:07.602',1384.600
'0:07.605',1387.541
'0:07.609',1416.868
'0:07.613',1399.263
'0:07.617',1370.704
'0:07.621',1388.266
'0:07.625',1383.876
'0:07.629',1362.648
'0:07.633',1339.929
'0:07.637',1327.482
'0:07.641',1315.760
'0:07.645',1315.036
'0:07.648',1317.934
'0:07.652',1312.819
'0:07.656',1271.814
'0:07.660',1248.370
'0:07.664',1260.816
'0:07.668',1202.931
'0:07.672',1230.765
'0:07.676',1202.931
'0:07.680',1163.375
'0:07.684',1188.992
'0:07.688',1173.647
'0:07.691',1161.925
'0:07.695',1154.594
'0:07.699',1150.203
'0:07.703',1147.262
'0:07.707',1139.206
'0:07.711',1136.265
'0:07.715',1137.714
'0:07.719',1128.933
'0:07.723',1133.324
'0:07.727',1125.992
'0:07.730',1112.096
'0:07.734',1128.933
'0:07.738',1132.599
'0:07.742',1134.048
'0:07.746',1129.658
'0:07.750',1115.762
'0:07.754',1163.375
'0:07.758',1166.316
'0:07.762',1182.428
'0:07.766',1198.541
'0:07.770',1244.704
'0:07.773',1246.153
'0:07.777',1287.926
'0:07.781',1317.210
'0:07.785',1331.873
'0:07.789',1368.488
'0:07.793',1374.370
'0:07.797',1376.544
'0:07.801',1432.255
'0:07.805',1416.100
'0:07.809',1446.151
'0:07.813',1471.812
'0:07.816',1451.266
'0:07.820',1462.264
'0:07.824',1473.261
'0:07.828',1487.924
'0:07.832',1484.983
'0:07.836',1451.266
'0:07.840',1472.536
'0:07.844',1481.317
'0:07.848',1426.373
'0:07.852',1428.590
'0:07.855',1438.095
'0:07.859',1388.266
'0:07.863',1404.378
'0:07.867',1391.932
'0:07.871',1363.373
'0:07.875',1356.766
'0:07.879',1350.202
'0:07.883',1339.929
'0:07.887',1301.097
'0:07.891',1313.544
'0:07.895',1301.097
'0:07.898',1244.704
'0:07.902',1257.875
'0:07.906',1264.482
'0:07.910',1216.869
'0:07.914',1241.038
'0:07.918',1186.819
'0:07.922',1210.262
'0:07.926',1167.765
'0:07.930',1202.206
'0:07.934',1186.819
'0:07.938',1148.711
'0:07.941',1181.703
'0:07.945',1149.436
'0:07.949',1175.097
'0:07.953',1204.380
'0:07.957',1179.487
'0:07.961',1227.824
'0:07.965',1210.987
'0:07.969',1246.153
'0:07.973',1277.653
'0:07.977',1278.378
'0:07.980',1342.145
'0:07.984',1327.482
'0:07.988',1366.314
'0:07.992',1410.261
'0:07.996',1457.873
'0:08.000',1494.489
'0:08.004',1532.596
'0:08.008',1520.149
'0:08.012',1592.697
'0:08.016',1588.264
'0:08.020',1639.543
'0:08.023',1668.144
'0:08.027',1642.484
'0:08.031',1698.153
'0:08.035',1665.928
'0:08.039',1679.142
'0:08.043',1696.703
'0:08.047',1671.085
'0:08.051',1676.201
'0:08.055',1646.874
'0:08.059',1612.476
'0:08.063',1587.540
'0:08.066',1534.088
'0:08.070',1509.152
'0:08.074',1447.601
'0:08.078',1449.817
'0:08.082',1402.929
'0:08.086',1356.766
'0:08.090',1350.926
'0:08.094',1329.656
'0:08.098',1273.263
'0:08.102',1286.434
'0:08.105',1293.041
'0:08.109',1266.656
'0:08.113',1270.322
'0:08.117',1295.257
'0:08.121',1319.426
'0:08.125',1323.817
'0:08.129',1351.651
'0:08.133',1373.646
'0:08.137',1429.314
'0:08.141',1425.649
'0:08.145',1475.478
'0:08.148',1501.095
'0:08.152',1561.155
'0:08.156',1580.208
'0:08.160',1619.040
'0:08.164',1629.313
'0:08.168',1657.872
'0:08.172',1694.529
'0:08.176',1715.757
'0:08.180',1729.653
'0:08.184',1737.752
'0:08.188',1763.369
'0:08.191',1774.367
'0:08.195',1753.864
'0:08.199',1761.196
'0:08.203',1775.091
'0:08.207',1764.819
'0:08.211',1731.869
'0:08.215',1734.810
'0:08.219',1745.041
'0:08.223',1702.586
'0:08.227',1706.251
'0:08.230',1693.038
'0:08.234',1686.431
'0:08.238',1645.425
'0:08.242',1669.594
'0:08.246',1651.265
'0:08.250',1611.708
'0:08.254',1589.756
'0:08.258',1588.264
'0:08.262',1584.599
'0:08.266',1540.652
'0:08.270',1520.874
'0:08.273',1539.927
'0:08.277',1480.593
'0:08.281',1483.534
'0:08.285',1491.590
'0:08.289',1439.544
'0:08.293',1463.756
'0:08.297',1432.980
'0:08.301',1402.205
'0:08.305',1435.921
'0:08.309',1396.322
'0:08.313',1378.036
'0:08.316',1369.213
'0:08.320',1405.870
'0:08.324',1387.541
'0:08.328',1369.980
'0:08.332',1385.368
'0:08.336',1342.870
'0:08.340',1353.100
'0:08.344',1356.766
'0:08.348',1351.651
'0:08.352',1341.378
'0:08.355',1373.646
'0:08.359',1371.429
'0:08.363',1342.870
'0:08.367',1369.213
'0:08.371',1377.311
'0:08.375',1379.485
'0:08.379',1384.600
'0:08.383',1383.151
'0:08.387',1364.097
'0:08.391',1370.704
'0:08.395',1342.145
'0:08.398',1339.929
'0:08.402',1324.541
'0:08.406',1336.263
'0:08.410',1347.985
'0:08.414',1339.929
'0:08.418',1292.316
'0:08.422',1289.375
'0:08.426',1298.923
'0:08.430',1238.097
'0:08.434',1252.035
'0:08.438',1221.260
'0:08.441',1225.650
'0:08.445',1202.931
'0:08.449',1150.203
'0:08.453',1170.706
'0:08.457',1134.816
'0:08.461',1129.658
'0:08.465',1101.824
'0:08.469',1081.321
'0:08.473',1060.818
'0:08.477',1058.601
'0:08.480',1019.770
'0:08.484',1030.042
'0:08.488',1030.767
'0:08.492',1018.320
'0:08.496',996.326
'0:08.500',1031.492
'0:08.504',1030.042
'0:08.508',1027.826
'0:08.512',1080.596
'0:08.516',1106.214
'0:08.520',1131.150
'0:08.523',1140.655
'0:08.527',1151.653
'0:08.531',1159.709
'0:08.535',1215.378
'0:08.539',1257.875
'0:08.543',1281.319
'0:08.547',1271.046
'0:08.551',1333.322
'0:08.555',1361.156
'0:08.559',1383.151
'0:08.563',1397.090
'0:08.566',1389.758
'0:08.570',1426.373
'0:08.574',1440.312
'0:08.578',1398.539
'0:08.582',1434.429
'0:08.586',1435.921
'0:08.590',1408.812
'0:08.594',1417.592
'0:08.598',1404.378
'0:08.602',1423.432
'0:08.605',1393.424
'0:08.609',1372.154
'0:08.613',1361.156
'0:08.617',1352.376
'0:08.621',1378.036
'0:08.625',1366.314
'0:08.629',1329.656
'0:08.633',1327.482
'0:08.637',1327.482
'0:08.641',1277.653
'0:08.645',1284.260
'0:08.648',1299.648
'0:08.652',1303.314
'0:08.656',1295.257
'0:08.660',1305.488
'0:08.664',1287.201
'0:08.668',1325.990
'0:08.672',1318.701
'0:08.676',1299.648
'0:08.680',1336.263
'0:08.684',1358.982
'0:08.688',1347.260
'0:08.691',1347.985
'0:08.695',1357.491
'0:08.699',1377.311
'0:08.703',1431.488
'0:08.707',1410.261
'0:08.711',1454.208
'0:08.715',1476.927
'0:08.719',1451.266
'0:08.723',1474.710
'0:08.727',1487.924
'0:08.730',1508.427
'0:08.734',1516.483
'0:08.738',1526.756
'0:08.742',1584.599
'0:08.746',1585.366
'0:08.750',1581.700
'0:08.754',1567.762
'0:08.758',1616.141
'0:08.762',1578.034
'0:08.766',1579.484
'0:08.770',1606.593
'0:08.773',1567.762
'0:08.777',1550.200
'0:08.781',1579.484
'0:08.785',1542.144
'0:08.789',1531.871
'0:08.793',1517.932
'0:08.797',1507.702
'0:08.801',1490.098
'0:08.805',1489.373
'0:08.809',1461.539
'0:08.813',1461.539
'0:08.816',1455.699
'0:08.820',1415.376
'0:08.824',1418.317
'0:08.828',1430.039
'0:08.832',1383.876
'0:08.836',1407.320
'0:08.840',1389.758
'0:08.844',1350.926
'0:08.848',1344.319
'0:08.852',1370.704
'0:08.855',1367.763
'0:08.859',1353.100
'0:08.863',1354.592
'0:08.867',1340.654
'0:08.871',1333.322
'0:08.875',1302.546
'0:08.879',1307.704
'0:08.883',1317.934
'0:08.887',1334.814
'0:08.891',1330.423
'0:08.895',1303.314
'0:08.898',1316.485
'0:08.902',1353.867
'0:08.906',1366.314
'0:08.910',1328.932
'0:08.914',1348.710
'0:08.918',1372.878
'0:08.922',1385.368
'0:08.926',1398.539
'0:08.930',1404.378
'0:08.934',1421.258
'0:08.938',1411.710
'0:08.941',1405.146
'0:08.945',1403.654
'0:08.949',1424.924
'0:08.953',1420.533
'0:08.957',1457.873
'0:08.961',1421.983
'0:08.965',1462.988
'0:08.969',1434.429
'0:08.973',1419.042
'0:08.977',1447.601
'0:08.980',1416.868
'0:08.984',1394.148
'0:08.988',1399.263
'0:08.992',1391.207
'0:08.996',1347.260
'0:09.000',1331.873
'0:09.004',1325.266
'0:09.008',1308.429
'0:09.012',1243.212
'0:09.016',1258.600
'0:09.020',1247.602
'0:09.023',1197.816
'0:09.027',1204.380
'0:09.031',1206.597
'0:09.035',1200.714
'0:09.039',1178.038
'0:09.043',1167.040
'0:09.047',1169.982
'0:09.051',1149.436
'0:09.055',1189.760
'0:09.059',1175.821
'0:09.063',1188.268
'0:09.066',1185.369
'0:09.070',1197.091
'0:09.074',1224.158
'0:09.078',1224.158
'0:09.082',1272.538
'0:09.086',1293.041
'0:09.090',1296.707
'0:09.094',1339.929
'0:09.098',1364.097
'0:09.102',1375.095
'0:09.105',1392.656
'0:09.109',1445.427
'0:09.113',1501.095
'0:09.117',1536.261
'0:09.121',1570.703
'0:09.125',1595.596
'0:09.129',1606.593
'0:09.133',1660.813
'0:09.137',1665.928
'0:09.141',1698.920
'0:09.145',1745.808
'0:09.148',1777.308
'0:09.152',1766.311
'0:09.156',1785.364
'0:09.160',1812.474
'0:09.164',1811.707
'0:09.168',1813.923
'0:09.172',1799.260
'0:09.176',1776.541
'0:09.180',1749.474
'0:09.184',1709.150
'0:09.188',1685.706
'0:09.191',1664.479
'0:09.195',1641.759
'0:09.199',1597.812
'0:09.203',1545.809
'0:09.207',1510.644
'0:09.211',1479.868
'0:09.215',1470.320
'0:09.219',1452.758
'0:09.223',1410.261
'0:09.227',1427.098
'0:09.230',1374.370
'0:09.234',1403.654
'0:09.238',1389.033
'0:09.242',1377.311
'0:09.246',1410.985
'0:09.250',1418.317
'0:09.254',1404.378
'0:09.258',1424.199
'0:09.262',1451.266
'0:09.266',1474.710
'0:09.270',1494.489
'0:09.273',1475.478
'0:09.277',1490.098
'0:09.281',1548.708
'0:09.285',1534.088
'0:09.289',1537.711
'0:09.293',1569.253
'0:09.297',1603.652
'0:09.301',1601.478
'0:09.305',1616.866
'0:09.309',1611.708
'0:09.313',1632.254
'0:09.316',1634.428
'0:09.320',1624.922
'0:09.324',1634.428
'0:09.328',1635.920
'0:09.332',1633.703
'0:09.336',1619.765
'0:09.340',1594.871
'0:09.344',1584.599
'0:09.348',1586.090
'0:09.352',1591.206
'0:09.355',1574.369
'0:09.359',1557.531
'0:09.363',1541.376
'0:09.367',1531.146
'0:09.371',1520.874
'0:09.375',1531.871
'0:09.379',1534.812
'0:09.383',1501.095
'0:09.387',1501.820
'0:09.391',1517.932
'0:09.395',1515.034
'0:09.398',1516.483
'0:09.402',1472.536
'0:09.406',1460.814
'0:09.410',1468.146
'0:09.414',1470.320
'0:09.418',1491.590
'0:09.422',1458.598
'0:09.426',1454.932
'0:09.430',1483.534
'0:09.434',1450.542
'0:09.438',1471.045
'0:09.441',1446.151
'0:09.445',1457.149
'0:09.449',1438.820
'0:09.453',1443.210
'0:09.457',1430.764
'0:09.461',1451.266
'0:09.465',1402.205
'0:09.469',1421.983
'0:09.473',1396.322
'0:09.477',1385.368
'0:09.480',1410.985
'0:09.484',1375.819
'0:09.488',1365.589
'0:09.492',1350.926
'0:09.496',1343.595
'0:09.500',1347.985
'0:09.504',1347.260
'0:09.508',1340.654
'0:09.512',1320.875
'0:09.516',1308.429
'0:09.520',1304.763
'0:09.523',1320.875
'0:09.527',1331.148
'0:09.531',1298.923
'0:09.535',1273.263
'0:09.539',1299.648
'0:09.543',1247.602
'0:09.547',1268.148
'0:09.551',1241.038
'0:09.555',1245.428
'0:09.559',1208.813
'0:09.563',1180.936
'0:09.566',1188.268
'0:09.570',1143.596
'0:09.574',1131.874
'0:09.578',1145.770
'0:09.582',1138.481
'0:09.586',1120.877
'0:09.590',1106.981
'0:09.594',1090.826
'0:09.598',1059.326
'0:09.602',1018.320
'0:09.605',1052.037
'0:09.609',1011.713
'0:09.613',1045.430
'0:09.617',1027.101
'0:09.621',1018.320
'0:09.625',1056.427
'0:09.629',1096.708
'0:09.633',1117.936
'0:09.637',1131.150
'0:09.641',1127.484
'0:09.645',1186.819
'0:09.648',1213.928
'0:09.652',1237.372
'0:09.656',1282.768
'0:09.660',1290.824
'0:09.664',1302.546
'0:09.668',1328.932
'0:09.672',1389.758
'0:09.676',1389.758
'0:09.680',1446.876
'0:09.684',1441.761
'0:09.688',1459.323
'0:09.691',1479.868
'0:09.695',1513.542
'0:09.699',1491.590
'0:09.703',1483.534
'0:09.707',1487.924
'0:09.711',1495.256
'0:09.715',1482.042
'0:09.719',1514.309
'0:09.723',1500.371
'0:09.727',1489.373
'0:09.730',1470.320
'0:09.734',1410.985
'0:09.738',1402.929
'0:09.742',1356.041
'0:09.746',1338.480
'0:09.750',1328.932
'0:09.754',1301.097
'0:09.758',1259.324
'0:09.762',1245.428
'0:09.766',1238.821
'0:09.770',1221.260
'0:09.773',1177.270
'0:09.777',1153.102
'0:09.781',1169.214
'0:09.785',1183.153
'0:09.789',1142.147
'0:09.793',1169.982
'0:09.797',1196.324
'0:09.801',1166.316
'0:09.805',1192.658
'0:09.809',1205.147
'0:09.813',1266.656
'0:09.816',1287.926
'0:09.820',1296.707
'0:09.824',1311.370
'0:09.828',1356.041
'0:09.832',1407.320
'0:09.836',1410.261
'0:09.840',1452.034
'0:09.844',1472.536
'0:09.848',1480.593
'0:09.852',1532.596
'0:09.855',1535.537
'0:09.859',1527.481
'0:09.863',1580.975
'0:09.867',1585.366
'0:09.871',1587.540
'0:09.875',1569.253
'0:09.879',1562.647
'0:09.883',1563.371
'0:09.887',1594.147
'0:09.891',1599.262
'0:09.895',1593.422
'0:09.898',1594.147
'0:09.902',1577.310
'0:09.906',1583.874
'0:09.910',1589.756
'0:09.914',1578.034
'0:09.918',1578.034
'0:09.922',1572.152
'0:09.926',1567.037
'0:09.930',1547.259
'0:09.934',1509.152
'0:09.938',1497.430
'0:09.941',1484.983
'0:09.945',1509.876
'0:09.949',1473.261
'0:09.953',1452.034
'0:09.957',1457.873
'0:09.961',1457.873
'0:09.965',1446.151
'0:09.969',1399.263
'0:09.973',1425.649
'0:09.977',1374.370
'0:09.980',1370.704
'0:09.984',1373.646
'0:09.988',1383.876
'0:09.992',1337.712
'0:09.996',1361.156
'0:10.000',1331.148
'0:10.004',1372.878
'0:10.008',1342.870
'0:10.012',1379.485
'0:10.016',1356.041
'0:10.020',1389.758
'0:10.023',1357.491
'0:10.027',1405.146
'0:10.031',1384.600
'0:10.035',1383.151
'0:10.039',1399.988
'0:10.043',1433.705
'0:10.047',1453.483
'0:10.051',1444.702
'0:10.055',1439.544
'0:10.059',1447.601
'0:10.063',1483.534
'0:10.066',1457.873
'0:10.070',1454.932
'0:10.074',1451.266
'0:10.078',1441.761
'0:10.082',1452.758
'0:10.086',1448.368
'0:10.090',1441.761
'0:10.094',1429.314
'0:10.098',1408.812
'0:10.102',1379.485
'0:10.105',1357.491
'0:10.109',1345.044
'0:10.113',1295.982
'0:10.117',1304.763
'0:10.121',1293.041
'0:10.125',1230.765
'0:10.129',1239.546
'0:10.133',1240.313
'0:10.137',1184.602
'0:10.141',1191.934
'0:10.145',1164.824
'0:10.148',1180.212
'0:10.152',1135.540
'0:10.156',1133.324
'0:10.160',1162.650
'0:10.164',1162.650
'0:10.168',1162.650
'0:10.172',1151.653
'0:10.176',1147.987
'0:10.180',1170.706
'0:10.184',1208.813
'0:10.188',1190.484
'0:10.191',1235.880
'0:10.195',1273.263
'0:10.199',1279.102
'0:10.203',1344.319
'0:10.207',1336.263
'0:10.211',1388.266
'0:10.215',1439.544
'0:10.219',1464.480
'0:10.223',1551.649
'0:10.227',1570.703
'0:10.230',1634.428
'0:10.234',1673.984
'0:10.238',1720.872
'0:10.242',1737.752
'0:10.246',1758.254
'0:10.250',1795.594
'0:10.254',1825.645
'0:10.258',1842.482
'0:10.262',1865.201
'0:10.266',1857.870
'0:10.270',1863.028
'0:10.273',1849.814
'0:10.277',1849.814
'0:10.281',1841.033
'0:10.285',1810.982
'0:10.289',1778.757
'0:10.293',1748.706
'0:10.297',1715.032
'0:10.301',1689.372
'0:10.305',1695.254
'0:10.309',1633.703
'0:10.313',1599.262
'0:10.316',1592.697
'0:10.320',1567.037
'0:10.324',1550.925
'0:10.328',1531.146
'0:10.332',1530.422
'0:10.336',1524.539
'0:10.340',1526.756
'0:10.344',1522.366
'0:10.348',1538.478
'0:10.352',1559.705
'0:10.355',1575.093
'0:10.359',1569.253
'0:10.363',1595.596
'0:10.367',1643.208
'0:10.371',1650.540
'0:10.375',1707.701
'0:10.379',1719.423
'0:10.383',1720.147
'0:10.387',1756.038
'0:10.391',1777.308
'0:10.395',1820.530
'0:10.398',1822.704
'0:10.402',1809.533
'0:10.406',1835.151
'0:10.410',1841.033
'0:10.414',1817.589
'0:10.418',1847.640
'0:10.422',1834.426
'0:10.426',1819.763
'0:10.430',1786.813
'0:10.434',1761.196
'0:10.438',1752.372
'0:10.441',1722.364
'0:10.445',1739.201
'0:10.449',1684.257
'0:10.453',1668.144
'0:10.457',1676.201
'0:10.461',1635.152
'0:10.465',1610.259
'0:10.469',1591.206
'0:10.473',1571.427
'0:10.477',1579.484
'0:10.480',1515.034
'0:10.484',1536.986
'0:10.488',1487.200
'0:10.492',1502.587
'0:10.496',1452.758
'0:10.500',1449.817
'0:10.504',1427.822
'0:10.508',1438.095
'0:10.512',1452.758
'0:10.516',1437.371
'0:10.520',1416.868
'0:10.523',1399.263
'0:10.527',1381.702
'0:10.531',1387.541
'0:10.535',1397.090
'0:10.539',1411.710
'0:10.543',1408.812
'0:10.547',1403.654
'0:10.551',1389.033
'0:10.555',1408.812
'0:10.559',1413.202
'0:10.563',1415.376
'0:10.566',1403.654
'0:10.570',1399.988
'0:10.574',1411.710
'0:10.578',1443.977
'0:10.582',1418.317
'0:10.586',1462.264
'0:10.590',1478.376
'0:10.594',1457.149
'0:10.598',1480.593
'0:10.602',1508.427
'0:10.605',1515.034
'0:10.609',1520.874
'0:10.613',1515.034
'0:10.617',1501.095
'0:10.621',1493.039
'0:10.625',1515.759
'0:10.629',1510.644
'0:10.633',1507.702
'0:10.637',1489.373
'0:10.641',1469.595
'0:10.645',1425.649
'0:10.648',1434.429
'0:10.652',1436.646
'0:10.656',1372.878
'0:10.660',1394.148
'0:10.664',1350.926
'0:10.668',1326.758
'0:10.672',1347.260
'0:10.676',1314.268
'0:10.680',1295.982
'0:10.684',1268.872
'0:10.688',1217.594
'0:10.691',1223.434
'0:10.695',1211.712
'0:10.699',1185.369
'0:10.703',1167.765
'0:10.707',1163.375
'0:10.711',1156.043
'0:10.715',1147.262
'0:10.719',1139.931
'0:10.723',1134.816
'0:10.727',1191.209
'0:10.730',1185.369
'0:10.734',1202.206
'0:10.738',1219.768
'0:10.742',1271.814
'0:10.746',1303.314
'0:10.750',1327.482
'0:10.754',1337.712
'0:10.758',1345.044
'0:10.762',1405.146
'0:10.766',1405.870
'0:10.770',1435.921
'0:10.773',1482.767
'0:10.777',1455.699
'0:10.781',1472.536
'0:10.785',1479.868
'0:10.789',1501.095
'0:10.793',1508.427
'0:10.797',1509.876
'0:10.801',1471.045
'0:10.805',1442.486
'0:10.809',1446.876
'0:10.813',1394.148
'0:10.816',1344.319
'0:10.820',1314.268
'0:10.824',1293.041
'0:10.828',1259.324
'0:10.832',1197.816
'0:10.836',1143.596
'0:10.840',1109.155
'0:10.844',1055.660
'0:10.848',1035.882
'0:10.852',982.430
'0:10.855',959.710
'0:10.859',951.654
'0:10.863',947.264
'0:10.867',926.761
'0:10.871',915.039
'0:10.875',972.882
'0:10.879',981.705
'0:10.883',998.542
'0:10.887',1027.826
'0:10.891',1068.874
'0:10.895',1136.989
'0:10.898',1171.431
'0:10.902',1197.091
'0:10.906',1240.313
'0:10.910',1290.824
'0:10.914',1335.538
'0:10.918',1384.600
'0:10.922',1435.154
'0:10.926',1493.039
'0:10.930',1506.211
'0:10.934',1563.371
'0:10.938',1591.930
'0:10.941',1607.318
'0:10.945',1623.430
'0:10.949',1681.316
'0:10.953',1712.091
'0:10.957',1729.653
'0:10.961',1743.591
'0:10.965',1773.642
'0:10.969',1798.535
'0:10.973',1799.985
'0:10.977',1817.589
'0:10.980',1853.480
'0:10.984',1871.808
'0:10.988',1865.201
'0:10.992',1857.145
'0:10.996',1865.926
'0:11.000',1890.095
'0:11.004',1884.255
'0:11.008',1866.651
'0:11.012',1847.640
'0:11.016',1842.482
'0:11.020',1816.864
'0:11.023',1778.757
'0:11.027',1771.426
'0:11.031',1750.198
'0:11.035',1707.701
'0:11.039',1662.987
'0:11.043',1630.762
'0:11.047',1599.262
'0:11.051',1577.310
'0:11.055',1567.762
'0:11.059',1523.815
'0:11.063',1475.478
'0:11.066',1446.151
'0:11.070',1445.427
'0:11.074',1411.710
'0:11.078',1383.151
'0:11.082',1376.544
'0:11.086',1325.266
'0:11.090',1337.712
'0:11.094',1292.316
'0:11.098',1291.592
'0:11.102',1257.875
'0:11.105',1281.319
'0:11.109',1249.819
'0:11.113',1238.821
'0:11.117',1216.869
'0:11.121',1243.979
'0:11.125',1231.490
'0:11.129',1218.319
'0:11.133',1197.091
'0:11.137',1235.880
'0:11.141',1210.987
'0:11.145',1207.321
'0:11.148',1218.319
'0:11.152',1221.984
'0:11.156',1222.709
'0:11.160',1235.156
'0:11.164',1204.380
'0:11.168',1227.100
'0:11.172',1243.979
'0:11.176',1217.594
'0:11.180',1192.658
'0:11.184',1222.709
'0:11.188',1205.147
'0:11.191',1172.880
'0:11.195',1183.153
'0:11.199',1187.543
'0:11.203',1172.155
'0:11.207',1181.703
'0:11.211',1177.270
'0:11.215',1179.487
'0:11.219',1158.260
'0:11.223',1161.925
'0:11.227',1206.597
'0:11.230',1178.038
'0:11.234',1201.482
'0:11.238',1211.712
'0:11.242',1188.268
'0:11.246',1238.821
'0:11.250',1239.546
'0:11.254',1225.650
'0:11.258',1283.536
'0:11.262',1304.038
'0:11.266',1328.207
'0:11.270',1357.491
'0:11.273',1386.817
'0:11.277',1391.932
'0:11.281',1421.983
'0:11.285',1443.977
'0:11.289',1478.376
'0:11.293',1512.093
'0:11.297',1546.534
'0:11.301',1578.759
'0:11.305',1611.708
'0:11.309',1672.535
'0:11.313',1675.476
'0:11.316',1735.535
'0:11.320',1736.260
'0:11.324',1766.311
'0:11.328',1791.928
'0:11.332',1786.089
'0:11.336',1791.204
'0:11.340',1798.535
'0:11.344',1815.372
'0:11.348',1804.418
'0:11.352',1775.091
'0:11.355',1792.696
'0:11.359',1764.819
'0:11.363',1720.872
'0:11.367',1728.204
'0:11.371',1694.529
'0:11.375',1653.481
'0:11.379',1602.203
'0:11.383',1614.649
'0:11.387',1542.868
'0:11.391',1554.590
'0:11.395',1504.037
'0:11.398',1471.045
'0:11.402',1474.710
'0:11.406',1470.320
'0:11.410',1460.814
'0:11.414',1444.702
'0:11.418',1432.980
'0:11.422',1478.376
'0:11.426',1482.767
'0:11.430',1504.761
'0:11.434',1497.430
'0:11.438',1529.654
'0:11.441',1561.922
'0:11.445',1620.532
'0:11.449',1657.872
'0:11.453',1723.088
'0:11.457',1749.474
'0:11.461',1819.038
'0:11.465',1862.260
'0:11.469',1883.530
'0:11.473',1905.482
'0:11.477',1964.092
'0:11.480',1984.638
'0:11.484',2009.531
'0:11.488',2012.472
'0:11.492',2032.250
'0:11.496',2039.582
'0:11.500',2038.815
'0:11.504',2038.090
'0:11.508',2040.307
'0:11.512',1994.868
'0:11.516',1978.756
'0:11.520',1958.977
'0:11.523',1912.814
'0:11.527',1902.584
'0:11.531',1842.482
'0:11.535',1820.530
'0:11.539',1788.263
'0:11.543',1740.650
'0:11.547',1710.642
'0:11.551',1677.650
'0:11.555',1617.591
'0:11.559',1593.422
'0:11.563',1589.756
'0:11.566',1529.654
'0:11.570',1501.095
'0:11.574',1503.312
'0:11.578',1481.317
'0:11.582',1440.312
'0:11.586',1398.539
'0:11.590',1381.702
'0:11.594',1375.095
'0:11.598',1397.814
'0:11.602',1353.867
'0:11.605',1339.204
'0:11.609',1339.204
'0:11.613',1365.589
'0:11.617',1350.926
'0:11.621',1315.036
'0:11.625',1316.485
'0:11.629',1347.260
'0:11.633',1348.710
'0:11.637',1315.036
'0:11.641',1353.100
'0:11.645',1347.985
'0:11.648',1342.145
'0:11.652',1343.595
'0:11.656',1332.597
'0:11.660',1348.710
'0:11.664',1372.154
'0:11.668',1378.761
'0:11.672',1398.539
'0:11.676',1396.322
'0:11.680',1394.873
'0:11.684',1418.317
'0:11.688',1423.432
'0:11.691',1430.764
'0:11.695',1435.921
'0:11.699',1399.263
'0:11.703',1405.146
'0:11.707',1434.429
'0:11.711',1395.598
'0:11.715',1388.266
'0:11.719',1391.932
'0:11.723',1403.654
'0:11.727',1382.426
'0:11.730',1345.811
'0:11.734',1330.423
'0:11.738',1345.811
'0:11.742',1345.811
'0:11.746',1306.979
'0:11.750',1320.151
'0:11.754',1275.479
'0:11.758',1234.431
'0:11.762',1244.704
'0:11.766',1234.431
'0:11.770',1213.928
'0:11.773',1198.541
'0:11.777',1143.596
'0:11.781',1138.481
'0:11.785',1161.925
'0:11.789',1164.099
'0:11.793',1168.490
'0:11.797',1163.375
'0:11.801',1186.094
'0:11.805',1242.487
'0:11.809',1265.931
'0:11.813',1271.046
'0:11.816',1306.212
'0:11.820',1331.873
'0:11.824',1383.876
'0:11.828',1378.036
'0:11.832',1394.873
'0:11.836',1413.202
'0:11.840',1428.590
'0:11.844',1472.536
'0:11.848',1460.090
'0:11.852',1438.820
'0:11.855',1435.921
'0:11.859',1453.483
'0:11.863',1440.312
'0:11.867',1383.151
'0:11.871',1379.485
'0:11.875',1317.210
'0:11.879',1317.210
'0:11.883',1254.934
'0:11.887',1208.813
'0:11.891',1164.099
'0:11.895',1125.992
'0:11.898',1076.206
'0:11.902',1034.433
'0:11.906',994.152
'0:11.910',929.660
'0:11.914',877.657
'0:11.918',884.264
'0:11.922',852.763
'0:11.926',831.493
'0:11.930',819.047
'0:11.934',807.325
'0:11.938',817.597
'0:11.941',824.162
'0:11.945',835.159
'0:11.949',829.319
'0:11.953',851.272
'0:11.957',882.047
'0:11.961',937.716
'0:11.965',979.489
'0:11.969',1005.149
'0:11.973',1047.604
'0:11.977',1103.315
'0:11.980',1178.762
'0:11.984',1224.926
'0:11.988',1301.822
'0:11.992',1354.592
'0:11.996',1396.322
'0:12.000',1416.100
'0:12.004',1480.593
'0:12.008',1530.422
'0:12.012',1561.922
'0:12.016',1605.869
'0:12.020',1648.366
'0:12.023',1655.698
'0:12.027',1715.032
'0:12.031',1711.366
'0:12.035',1745.808
'0:12.039',1745.808
'0:12.043',1732.594
'0:12.047',1749.474
'0:12.051',1780.974
'0:12.055',1744.316
'0:12.059',1766.311
'0:12.063',1744.316
'0:12.066',1736.984
'0:12.070',1747.982
'0:12.074',1719.423
'0:12.078',1721.597
'0:12.082',1697.428
'0:12.086',1695.979
'0:12.090',1667.420
'0:12.094',1624.922
'0:12.098',1631.487
'0:12.102',1627.096
'0:12.105',1573.644
'0:12.109',1563.371
'0:12.113',1568.486
'0:12.117',1548.708
'0:12.121',1512.817
'0:12.125',1526.031
'0:12.129',1476.927
'0:12.133',1487.200
'0:12.137',1485.708
'0:12.141',1454.932
'0:12.145',1429.314
'0:12.148',1448.368
'0:12.152',1424.199
'0:12.156',1411.710
'0:12.160',1445.427
'0:12.164',1441.036
'0:12.168',1422.707
'0:12.172',1411.710
'0:12.176',1424.199
'0:12.180',1431.488
'0:12.184',1416.100
'0:12.188',1423.432
'0:12.191',1453.483
'0:12.195',1425.649
'0:12.199',1415.376
'0:12.203',1411.710
'0:12.207',1411.710
'0:12.211',1438.820
'0:12.215',1420.533
'0:12.219',1390.483
'0:12.223',1402.929
'0:12.227',1408.044
'0:12.230',1394.873
'0:12.234',1371.429
'0:12.238',1359.707
'0:12.242',1344.319
'0:12.246',1281.319
'0:12.250',1284.985
'0:12.254',1282.044
'0:12.258',1238.821
'0:12.262',1207.321
'0:12.266',1230.041
'0:12.270',1172.880
'0:12.273',1198.541
'0:12.277',1179.487
'0:12.281',1140.655
'0:12.285',1117.936
'0:12.289',1115.037
'0:12.293',1132.599
'0:12.297',1123.094
'0:12.301',1111.372
'0:12.305',1103.315
'0:12.309',1103.315
'0:12.313',1095.259
'0:12.316',1085.711
'0:12.320',1089.377
'0:12.324',1089.377
'0:12.328',1104.040
'0:12.332',1106.981
'0:12.336',1099.650
'0:12.340',1126.759
'0:12.344',1175.821
'0:12.348',1179.487
'0:12.352',1203.656
'0:12.355',1211.712
'0:12.359',1214.653
'0:12.363',1278.378
'0:12.367',1300.373
'0:12.371',1325.266
'0:12.375',1322.367
'0:12.379',1384.600
'0:12.383',1386.817
'0:12.387',1394.873
'0:12.391',1430.764
'0:12.395',1449.093
'0:12.398',1479.868
'0:12.402',1452.034
'0:12.406',1493.764
'0:12.410',1462.264
'0:12.414',1490.865
'0:12.418',1462.988
'0:12.422',1462.264
'0:12.426',1478.376
'0:12.430',1460.814
'0:12.434',1444.702
'0:12.438',1477.652
'0:12.441',1471.812
'0:12.445',1444.702
'0:12.449',1460.090
'0:12.453',1461.539
'0:12.457',1442.486
'0:12.461',1421.983
'0:12.465',1427.098
'0:12.469',1476.927
'0:12.473',1461.539
'0:12.477',1461.539
'0:12.480',1506.211
'0:12.484',1508.427
'0:12.488',1527.481
'0:12.492',1577.310
'0:12.496',1594.871
'0:12.500',1661.537
'0:12.504',1686.431
'0:12.508',1712.816
'0:12.512',1728.204
'0:12.516',1768.484
'0:12.520',1813.923
'0:12.523',1846.148
'0:12.527',1854.929
'0:12.531',1879.140
'0:12.535',1906.974
'0:12.539',1902.584
'0:12.543',1911.365
'0:12.547',1916.480
'0:12.551',1908.424
'0:12.555',1898.918
'0:12.559',1915.031
'0:12.563',1881.314
'0:12.566',1885.704
'0:12.570',1844.699
'0:12.574',1811.707
'0:12.578',1813.923
'0:12.582',1797.811
'0:12.586',1769.976
'0:12.590',1728.204
'0:12.594',1720.872
'0:12.598',1662.987
'0:12.602',1639.543
'0:12.605',1615.374
'0:12.609',1617.591
'0:12.613',1571.427
'0:12.617',1581.700
'0:12.621',1547.259
'0:12.625',1531.146
'0:12.629',1527.481
'0:12.633',1507.702
'0:12.637',1543.593
'0:12.641',1521.598
'0:12.645',1517.932
'0:12.648',1501.820
'0:12.652',1534.812
'0:12.656',1548.708
'0:12.660',1541.376
'0:12.664',1534.088
'0:12.668',1554.590
'0:12.672',1586.090
'0:12.676',1578.759
'0:12.680',1599.262
'0:12.684',1636.644
'0:12.688',1624.198
'0:12.691',1617.591
'0:12.695',1630.762
'0:12.699',1642.484
'0:12.703',1660.813
'0:12.707',1657.147
'0:12.711',1656.422
'0:12.715',1671.810
'0:12.719',1662.987
'0:12.723',1655.698
'0:12.727',1657.147
'0:12.730',1621.981
'0:12.734',1597.088
'0:12.738',1557.531
'0:12.742',1560.430
'0:12.746',1517.208
'0:12.750',1504.761
'0:12.754',1471.812
'0:12.758',1435.154
'0:12.762',1374.370
'0:12.766',1317.210
'0:12.770',1314.268
'0:12.773',1279.102
'0:12.777',1232.982
'0:12.781',1196.324
'0:12.785',1174.372
'0:12.789',1104.765
'0:12.793',1064.484
'0:12.797',1059.326
'0:12.801',1009.540
'0:12.805',964.826
'0:12.809',974.374
'0:12.813',928.210
'0:12.816',951.654
'0:12.820',902.550
'0:12.824',945.772
'0:12.828',915.764
'0:12.832',972.157
'0:12.836',958.261
'0:12.840',985.371
'0:12.844',1057.152
'0:12.848',1076.930
'0:12.852',1103.315
'0:12.855',1126.759
'0:12.859',1183.153
'0:12.863',1208.813
'0:12.867',1227.824
'0:12.871',1243.979
'0:12.875',1260.816
'0:12.879',1249.094
'0:12.883',1238.097
'0:12.887',1237.372
'0:12.891',1227.824
'0:12.895',1198.541
'0:12.898',1198.541
'0:12.902',1177.270
'0:12.906',1138.481
'0:12.910',1094.492
'0:12.914',1014.655
'0:12.918',972.882
'0:12.922',931.876
'0:12.926',834.434
'0:12.930',807.325
'0:12.934',761.886
'0:12.938',691.597
'0:12.941',690.105
'0:12.945',630.770
'0:12.949',649.099
'0:12.953',635.885
'0:12.957',642.492
'0:12.961',651.998
'0:12.965',638.827
'0:12.969',660.054
'0:12.973',732.602
'0:12.977',775.100
'0:12.980',826.378
'0:12.984',849.822
'0:12.988',912.098
'0:12.992',995.601
'0:12.996',1043.214
'0:13.000',1120.877
'0:13.004',1203.656
'0:13.008',1258.600
'0:13.012',1356.766
'0:13.016',1431.488
'0:13.020',1462.988
'0:13.023',1554.590
'0:13.027',1605.869
'0:13.031',1651.265
'0:13.035',1686.431
'0:13.039',1708.425
'0:13.043',1751.647
'0:13.047',1800.752
'0:13.051',1807.316
'0:13.055',1830.036
'0:13.059',1821.979
'0:13.063',1844.699
'0:13.066',1845.423
'0:13.070',1844.699
'0:13.074',1867.418
'0:13.078',1824.921
'0:13.082',1812.474
'0:13.086',1798.535
'0:13.090',1785.364
'0:13.094',1774.367
'0:13.098',1761.920
'0:13.102',1753.864
'0:13.105',1712.816
'0:13.109',1694.529
'0:13.113',1678.374
'0:13.117',1666.652
'0:13.121',1654.206
'0:13.125',1624.198
'0:13.129',1586.090
'0:13.133',1580.975
'0:13.137',1598.537
'0:13.141',1545.042
'0:13.145',1553.866
'0:13.148',1566.312
'0:13.152',1547.983
'0:13.156',1520.149
'0:13.160',1527.481
'0:13.164',1488.649
'0:13.168',1502.587
'0:13.172',1495.256
'0:13.176',1456.424
'0:13.180',1487.924
'0:13.184',1458.598
'0:13.188',1444.702
'0:13.191',1421.258
'0:13.195',1415.376
'0:13.199',1422.707
'0:13.203',1416.868
'0:13.207',1358.258
'0:13.211',1369.980
'0:13.215',1337.712
'0:13.219',1290.824
'0:13.223',1294.490
'0:13.227',1238.821
'0:13.230',1230.765
'0:13.234',1180.936
'0:13.238',1154.594
'0:13.242',1139.206
'0:13.246',1106.214
'0:13.250',1038.099
'0:13.254',1050.545
'0:13.258',1021.986
'0:13.262',988.994
'0:13.266',973.649
'0:13.270',969.216
'0:13.273',961.927
'0:13.277',920.154
'0:13.281',923.820
'0:13.285',938.483
'0:13.289',956.045
'0:13.293',961.927
'0:13.297',959.710
'0:13.301',969.216
'0:13.305',986.820
'0:13.309',1003.657
'0:13.313',1008.772
'0:13.316',1009.540
'0:13.320',1059.326
'0:13.324',1065.208
'0:13.328',1125.992
'0:13.332',1156.043
'0:13.336',1197.091
'0:13.340',1221.260
'0:13.344',1290.100
'0:13.348',1309.153
'0:13.352',1333.322
'0:13.355',1410.261
'0:13.359',1461.539
'0:13.363',1460.814
'0:13.367',1542.868
'0:13.371',1553.866
'0:13.375',1587.540
'0:13.379',1645.425
'0:13.383',1671.085
'0:13.387',1681.316
'0:13.391',1717.206
'0:13.395',1704.035
'0:13.398',1704.035
'0:13.402',1743.591
'0:13.406',1715.757
'0:13.410',1707.701
'0:13.414',1704.760
'0:13.418',1705.484
'0:13.422',1648.366
'0:13.426',1623.430
'0:13.430',1599.262
'0:13.434',1585.366
'0:13.438',1543.593
'0:13.441',1498.922
'0:13.445',1506.211
'0:13.449',1435.154
'0:13.453',1450.542
'0:13.457',1410.261
'0:13.461',1373.646
'0:13.465',1364.097
'0:13.469',1376.544
'0:13.473',1369.980
'0:13.477',1356.041
'0:13.480',1350.926
'0:13.484',1363.373
'0:13.488',1375.819
'0:13.492',1420.533
'0:13.496',1423.432
'0:13.500',1487.200
'0:13.504',1529.654
'0:13.508',1547.983
'0:13.512',1599.986
'0:13.516',1624.922
'0:13.520',1657.147
'0:13.523',1700.369
'0:13.527',1756.038
'0:13.531',1795.594
'0:13.535',1816.140
'0:13.539',1824.921
'0:13.543',1868.867
'0:13.547',1898.151
'0:13.551',1912.814
'0:13.555',1901.817
'0:13.559',1891.587
'0:13.563',1903.309
'0:13.566',1884.255
'0:13.570',1887.921
'0:13.574',1838.092
'0:13.578',1812.474
'0:13.582',1797.086
'0:13.586',1786.813
'0:13.590',1726.754
'0:13.594',1706.251
'0:13.598',1684.257
'0:13.602',1649.815
'0:13.605',1642.484
'0:13.609',1594.871
'0:13.613',1553.866
'0:13.617',1534.088
'0:13.621',1500.371
'0:13.625',1479.143
'0:13.629',1463.756
'0:13.633',1478.376
'0:13.637',1447.601
'0:13.641',1436.646
'0:13.645',1410.261
'0:13.648',1418.317
'0:13.652',1426.373
'0:13.656',1397.090
'0:13.660',1426.373
'0:13.664',1401.480
'0:13.668',1429.314
'0:13.672',1443.210
'0:13.676',1427.822
'0:13.680',1460.090
'0:13.684',1475.478
'0:13.688',1476.202
'0:13.691',1471.812
'0:13.695',1497.430
'0:13.699',1500.371
'0:13.703',1528.205
'0:13.707',1528.205
'0:13.711',1522.366
'0:13.715',1532.596
'0:13.719',1516.483
'0:13.723',1502.587
'0:13.727',1504.761
'0:13.730',1510.644
'0:13.734',1498.922
'0:13.738',1462.264
'0:13.742',1479.868
'0:13.746',1438.820
'0:13.750',1418.317
'0:13.754',1402.929
'0:13.758',1377.311
'0:13.762',1356.766
'0:13.766',1366.314
'0:13.770',1336.263
'0:13.773',1317.210
'0:13.777',1316.485
'0:13.781',1315.036
'0:13.785',1284.260
'0:13.789',1280.594
'0:13.793',1262.990
'0:13.797',1254.209
'0:13.801',1232.257
'0:13.805',1180.936
'0:13.809',1195.599
'0:13.813',1192.658
'0:13.816',1180.212
'0:13.820',1169.214
'0:13.824',1154.594
'0:13.828',1178.038
'0:13.832',1195.599
'0:13.836',1204.380
'0:13.840',1247.602
'0:13.844',1249.819
'0:13.848',1239.546
'0:13.852',1254.934
'0:13.855',1286.434
'0:13.859',1263.757
'0:13.863',1283.536
'0:13.867',1279.870
'0:13.871',1293.766
'0:13.875',1278.378
'0:13.879',1241.038
'0:13.883',1265.207
'0:13.887',1243.212
'0:13.891',1213.204
'0:13.895',1183.153
'0:13.898',1150.203
'0:13.902',1088.652
'0:13.906',1068.149
'0:13.910',1010.989
'0:13.914',967.767
'0:13.918',894.494
'0:13.922',871.050
'0:13.926',835.884
'0:13.930',805.151
'0:13.934',738.442
'0:13.938',725.996
'0:13.941',672.543
'0:13.945',693.771
'0:13.949',639.551
'0:13.953',668.878
'0:13.957',662.271
'0:13.961',665.936
'0:13.965',665.936
'0:13.969',695.220
'0:13.973',756.046
'0:13.977',792.662
'0:13.980',832.985
'0:13.984',895.261
'0:13.988',952.379
'0:13.992',1000.716
'0:13.996',1076.930
'0:14.000',1125.267
'0:14.004',1200.714
'0:14.008',1287.926
'0:14.012',1328.932
'0:14.016',1411.710
'0:14.020',1455.699
'0:14.023',1517.932
'0:14.027',1567.037
'0:14.031',1627.821
'0:14.035',1699.645
'0:14.039',1706.976
'0:14.043',1784.640
'0:14.047',1816.864
'0:14.051',1835.918
'0:14.055',1833.701
'0:14.059',1846.873
'0:14.063',1860.086
'0:14.066',1872.533
'0:14.070',1888.645
'0:14.074',1878.373
'0:14.078',1869.592
'0:14.082',1865.926
'0:14.086',1865.926
'0:14.090',1839.584
'0:14.094',1805.142
'0:14.098',1774.367
'0:14.102',1786.089
'0:14.105',1739.925
'0:14.109',1687.923
'0:14.113',1691.588
'0:14.117',1637.369
'0:14.121',1624.922
'0:14.125',1589.756
'0:14.129',1509.152
'0:14.133',1495.980
'0:14.137',1438.095
'0:14.141',1420.533
'0:14.145',1407.320
'0:14.148',1365.589
'0:14.152',1335.538
'0:14.156',1299.648
'0:14.160',1230.041
'0:14.164',1230.041
'0:14.168',1191.934
'0:14.172',1151.653
'0:14.176',1123.094
'0:14.180',1129.658
'0:14.184',1068.149
'0:14.188',1060.818
'0:14.191',1072.540
'0:14.195',1016.104
'0:14.199',1048.371
'0:14.203',1035.882
'0:14.207',1015.379
'0:14.211',1033.708
'0:14.215',989.761
'0:14.219',1027.101
'0:14.223',1019.770
'0:14.227',994.876
'0:14.230',1035.157
'0:14.234',1000.716
'0:14.238',1036.649
'0:14.242',1035.882
'0:14.246',1027.826
'0:14.250',1056.427
'0:14.254',1095.984
'0:14.258',1112.096
'0:14.262',1129.658
'0:14.266',1130.425
'0:14.270',1125.267
'0:14.273',1176.546
'0:14.277',1182.428
'0:14.281',1193.425
'0:14.285',1238.097
'0:14.289',1270.322
'0:14.293',1277.653
'0:14.297',1294.490
'0:14.301',1304.763
'0:14.305',1347.985
'0:14.309',1339.929
'0:14.313',1397.814
'0:14.316',1386.092
'0:14.320',1435.154
'0:14.324',1475.478
'0:14.328',1462.264
'0:14.332',1493.764
'0:14.336',1520.149
'0:14.340',1557.531
'0:14.344',1592.697
'0:14.348',1597.088
'0:14.352',1621.981
'0:14.355',1667.420
'0:14.359',1675.476
'0:14.363',1690.096
'0:14.367',1694.529
'0:14.371',1723.088
'0:14.375',1748.706
'0:14.379',1726.754
'0:14.383',1740.650
'0:14.387',1771.426
'0:14.391',1738.476
'0:14.395',1734.086
'0:14.398',1749.474
'0:14.402',1700.369
'0:14.406',1688.647
'0:14.410',1696.703
'0:14.414',1667.420
'0:14.418',1639.543
'0:14.422',1624.198
'0:14.426',1585.366
'0:14.430',1591.206
'0:14.434',1586.815
'0:14.438',1570.703
'0:14.441',1550.200
'0:14.445',1530.422
'0:14.449',1540.652
'0:14.453',1533.320
'0:14.457',1537.711
'0:14.461',1511.368
'0:14.465',1528.205
'0:14.469',1552.374
'0:14.473',1547.983
'0:14.477',1547.259
'0:14.480',1568.486
'0:14.484',1619.040
'0:14.488',1617.591
'0:14.492',1633.703
'0:14.496',1663.754
'0:14.500',1706.251
'0:14.504',1700.369
'0:14.508',1731.869
'0:14.512',1779.482
'0:14.516',1771.426
'0:14.520',1819.038
'0:14.523',1813.923
'0:14.527',1854.929
'0:14.531',1833.701
'0:14.535',1855.696
'0:14.539',1880.589
'0:14.543',1857.145
'0:14.547',1863.028
'0:14.551',1873.258
'0:14.555',1857.870
'0:14.559',1838.816
'0:14.563',1813.199
'0:14.566',1767.035
'0:14.570',1742.142
'0:14.574',1676.201
'0:14.578',1657.147
'0:14.582',1605.869
'0:14.586',1583.149
'0:14.590',1504.761
'0:14.594',1477.652
'0:14.598',1427.098
'0:14.602',1382.426
'0:14.605',1349.434
'0:14.609',1312.095
'0:14.613',1315.036
'0:14.617',1306.979
'0:14.621',1245.428
'0:14.625',1266.656
'0:14.629',1238.097
'0:14.633',1242.487
'0:14.637',1256.426
'0:14.641',1228.591
'0:14.645',1279.870
'0:14.648',1271.814
'0:14.652',1271.046
'0:14.656',1291.592
'0:14.660',1337.712
'0:14.664',1356.041
'0:14.668',1400.755
'0:14.672',1387.541
'0:14.676',1445.427
'0:14.680',1439.544
'0:14.684',1442.486
'0:14.688',1493.039
'0:14.691',1488.649
'0:14.695',1511.368
'0:14.699',1520.874
'0:14.703',1507.702
'0:14.707',1506.978
'0:14.711',1521.598
'0:14.715',1517.208
'0:14.719',1524.539
'0:14.723',1490.865
'0:14.727',1460.814
'0:14.730',1443.977
'0:14.734',1441.761
'0:14.738',1427.098
'0:14.742',1393.424
'0:14.746',1342.145
'0:14.750',1309.878
'0:14.754',1291.592
'0:14.758',1259.324
'0:14.762',1230.041
'0:14.766',1236.648
'0:14.770',1183.153
'0:14.773',1150.928
'0:14.777',1130.425
'0:14.781',1110.604
'0:14.785',1082.045
'0:14.789',1038.099
'0:14.793',1039.548
'0:14.797',1023.435
'0:14.801',1052.037
'0:14.805',1040.315
'0:14.809',1052.037
'0:14.813',1113.545
'0:14.816',1145.770
'0:14.820',1153.102
'0:14.824',1207.321
'0:14.828',1208.813
'0:14.832',1243.212
'0:14.836',1289.375
'0:14.840',1276.929
'0:14.844',1306.979
'0:14.848',1275.479
'0:14.852',1293.766
'0:14.855',1271.046
'0:14.859',1232.982
'0:14.863',1186.094
'0:14.867',1180.212
'0:14.871',1150.928
'0:14.875',1105.489
'0:14.879',1008.772
'0:14.883',997.818
'0:14.887',938.483
'0:14.891',902.550
'0:14.895',813.207
'0:14.898',812.440
'0:14.902',769.985
'0:14.906',740.659
'0:14.910',717.939
'0:14.914',695.220
'0:14.918',673.268
'0:14.922',657.880
'0:14.926',687.931
'0:14.930',717.939
'0:14.934',744.324
'0:14.938',739.934
'0:14.941',819.771
'0:14.945',838.100
'0:14.949',908.432
'0:14.953',950.930
'0:14.957',991.935
'0:14.961',1043.214
'0:14.965',1124.543
'0:14.969',1164.099
'0:14.973',1233.706
'0:14.977',1261.541
'0:14.980',1317.210
'0:14.984',1405.146
'0:14.988',1419.766
'0:14.992',1479.143
'0:14.996',1542.144
'0:15.000',1564.096
'0:15.004',1636.644
'0:15.008',1682.040
'0:15.012',1699.645
'0:15.016',1699.645
'0:15.020',1725.262
'0:15.023',1746.532
'0:15.027',1769.976
'0:15.031',1786.813
'0:15.035',1775.816
'0:15.039',1784.640
'0:15.043',1810.982
'0:15.047',1805.867
'0:15.051',1769.252
'0:15.055',1775.091
'0:15.059',1789.755
'0:15.063',1777.308
'0:15.066',1762.645
'0:15.070',1720.872
'0:15.074',1706.251
'0:15.078',1682.040
'0:15.082',1682.807
'0:15.086',1622.706
'0:15.090',1636.644
'0:15.094',1568.486
'0:15.098',1566.312
'0:15.102',1528.930
'0:15.105',1498.154
'0:15.109',1479.868
'0:15.113',1486.432
'0:15.117',1427.098
'0:15.121',1443.210
'0:15.125',1389.033
'0:15.129',1387.541
'0:15.133',1395.598
'0:15.137',1364.097
'0:15.141',1336.263
'0:15.145',1306.212
'0:15.148',1317.934
'0:15.152',1304.763
'0:15.156',1273.987
'0:15.160',1273.987
'0:15.164',1276.204
'0:15.168',1274.712
'0:15.172',1270.322
'0:15.176',1246.153
'0:15.180',1240.313
'0:15.184',1230.765
'0:15.188',1235.156
'0:15.191',1266.656
'0:15.195',1270.322
'0:15.199',1277.653
'0:15.203',1279.102
'0:15.207',1287.201
'0:15.211',1290.100
'0:15.215',1258.600
'0:15.219',1288.651
'0:15.223',1307.704
'0:15.227',1295.257
'0:15.230',1297.431
'0:15.234',1325.990
'0:15.238',1335.538
'0:15.242',1324.541
'0:15.246',1348.710
'0:15.250',1364.097
'0:15.254',1367.763
'0:15.258',1364.097
'0:15.262',1358.982
'0:15.266',1349.434
'0:15.270',1336.263
'0:15.273',1323.817
'0:15.277',1300.373
'0:15.281',1294.490
'0:15.285',1269.597
'0:15.289',1269.597
'0:15.293',1256.426
'0:15.297',1264.482
'0:15.301',1228.591
'0:15.305',1224.926
'0:15.309',1216.869
'0:15.313',1227.100
'0:15.316',1199.265
'0:15.320',1217.594
'0:15.324',1193.425
'0:15.328',1187.543
'0:15.332',1203.656
'0:15.336',1193.425
'0:15.340',1205.872
'0:15.344',1180.212
'0:15.348',1205.147
'0:15.352',1175.097
'0:15.355',1220.535
'0:15.359',1216.869
'0:15.363',1198.541
'0:15.367',1239.546
'0:15.371',1241.038
'0:15.375',1238.097
'0:15.379',1271.814
'0:15.383',1320.151
'0:15.387',1349.434
'0:15.391',1378.036
'0:15.395',1395.598
'0:15.398',1449.093
'0:15.402',1492.315
'0:15.406',1512.817
'0:15.410',1572.877
'0:15.414',1632.254
'0:15.418',1661.537
'0:15.422',1727.479
'0:15.426',1778.033
'0:15.430',1836.642
'0:15.434',1909.873
'0:15.438',1958.977
'0:15.441',2003.649
'0:15.445',2050.537
'0:15.449',2091.585
'0:15.453',2147.254
'0:15.457',2169.248
'0:15.461',2208.805
'0:15.465',2234.423
'0:15.469',2241.754
'0:15.473',2246.145
'0:15.477',2274.746
'0:15.480',2269.588
'0:15.484',2240.305
'0:15.488',2218.310
'0:15.492',2213.195
'0:15.496',2180.970
'0:15.500',2142.139
'0:15.504',2090.093
'0:15.508',2015.371
'0:15.512',1984.638
'0:15.516',1926.753
'0:15.520',1847.640
'0:15.523',1766.311
'0:15.527',1701.818
'0:15.531',1612.476
'0:15.535',1583.149
'0:15.539',1469.595
'0:15.543',1394.148
'0:15.547',1344.319
'0:15.551',1264.482
'0:15.555',1245.428
'0:15.559',1185.369
'0:15.563',1128.933
'0:15.566',1068.149
'0:15.570',1012.438
'0:15.574',1022.711
'0:15.578',970.708
'0:15.582',937.716
'0:15.586',967.767
'0:15.590',964.101
'0:15.594',962.652
'0:15.598',960.435
'0:15.602',950.205
'0:15.605',980.213
'0:15.609',991.935
'0:15.613',1004.382
'0:15.617',992.660
'0:15.621',999.991
'0:15.625',1043.938
'0:15.629',1031.492
'0:15.633',1090.826
'0:15.637',1070.323
'0:15.641',1130.425
'0:15.645',1154.594
'0:15.648',1170.706
'0:15.652',1184.602
'0:15.656',1191.934
'0:15.660',1202.206
'0:15.664',1202.206
'0:15.668',1216.869
'0:15.672',1233.706
'0:15.676',1214.653
'0:15.680',1241.763
'0:15.684',1213.204
'0:15.688',1253.485
'0:15.691',1247.602
'0:15.695',1232.982
'0:15.699',1255.701
'0:15.703',1246.878
'0:15.707',1239.546
'0:15.711',1210.262
'0:15.715',1235.880
'0:15.719',1210.262
'0:15.723',1210.262
'0:15.727',1213.928
'0:15.730',1169.214
'0:15.734',1161.925
'0:15.738',1148.711
'0:15.742',1134.816
'0:15.746',1141.380
'0:15.750',1125.267
'0:15.754',1106.214
'0:15.758',1104.765
'0:15.762',1123.818
'0:15.766',1158.984
'0:15.770',1219.768
'0:15.773',1261.541
'0:15.777',1298.923
'0:15.781',1334.089
'0:15.785',1369.980
'0:15.789',1377.311
'0:15.793',1373.646
'0:15.797',1429.314
'0:15.801',1399.263
'0:15.805',1393.424
'0:15.809',1411.710
'0:15.813',1389.758
'0:15.816',1312.819
'0:15.820',1320.151
'0:15.824',1254.209
'0:15.828',1205.147
'0:15.832',1167.765
'0:15.836',1083.537
'0:15.840',1060.093
'0:15.844',997.050
'0:15.848',924.545
'0:15.852',871.050
'0:15.855',862.993
'0:15.859',794.154
'0:15.863',799.269
'0:15.867',787.547
'0:15.871',778.766
'0:15.875',778.766
'0:15.879',788.996
'0:15.883',794.154
'0:15.887',810.991
'0:15.891',824.929
'0:15.895',887.929
'0:15.898',945.772
'0:15.902',990.486
'0:15.906',1058.601
'0:15.910',1115.037
'0:15.914',1183.153
'0:15.918',1224.158
'0:15.922',1308.429
'0:15.926',1347.985
'0:15.930',1432.980
'0:15.934',1471.812
'0:15.938',1523.815
'0:15.941',1561.922
'0:15.945',1610.259
'0:15.949',1660.813
'0:15.953',1695.979
'0:15.957',1754.589
'0:15.961',1801.477
'0:15.965',1824.921
'0:15.969',1821.979
'0:15.973',1878.373
'0:15.977',1864.477
'0:15.980',1895.252
'0:15.984',1898.918
'0:15.988',1919.421
'0:15.992',1891.587
'0:15.996',1904.758
'0:16.000',1876.199
'0:16.004',1889.370
'0:16.008',1857.870
'0:16.012',1843.974
'0:16.016',1835.918
'0:16.020',1786.813
'0:16.023',1767.035
'0:16.027',1719.423
'0:16.031',1701.818
'0:16.035',1682.807
'0:16.039',1623.430
'0:16.043',1594.871
'0:16.047',1570.703
'0:16.051',1535.537
'0:16.055',1476.202
'0:16.059',1411.710
'0:16.063',1403.654
'0:16.066',1359.707
'0:16.070',1315.036
'0:16.074',1268.148
'0:16.078',1223.434
'0:16.082',1147.262
'0:16.086',1121.602
'0:16.090',1101.099
'0:16.094',1045.430
'0:16.098',994.876
'0:16.102',980.213
'0:16.105',923.095
'0:16.109',890.103
'0:16.113',873.266
'0:16.117',857.154
'0:16.121',840.274
'0:16.125',815.381
'0:16.129',803.659
'0:16.133',791.937
'0:16.137',781.707
'0:16.141',766.319
'0:16.145',762.653
'0:16.148',735.544
'0:16.152',730.386
'0:16.156',753.105
'0:16.160',771.434
'0:16.164',778.766
'0:16.168',757.496
'0:16.172',814.656
'0:16.176',810.991
'0:16.180',832.985
'0:16.184',874.715
'0:16.188',925.994
'0:16.191',941.382
'0:16.195',963.376
'0:16.199',1027.826
'0:16.203',1082.045
'0:16.207',1105.489
'0:16.211',1131.150
'0:16.215',1141.380
'0:16.219',1205.147
'0:16.223',1214.653
'0:16.227',1243.212
'0:16.230',1257.875
'0:16.234',1270.322
'0:16.238',1312.095
'0:16.242',1325.990
'0:16.246',1375.819
'0:16.250',1405.870
'0:16.254',1435.921
'0:16.258',1462.988
'0:16.262',1477.652
'0:16.266',1486.432
'0:16.270',1541.376
'0:16.273',1553.098
'0:16.277',1599.262
'0:16.281',1639.543
'0:16.285',1638.093
'0:16.289',1651.265
'0:16.293',1685.706
'0:16.297',1719.423
'0:16.301',1724.538
'0:16.305',1732.594
'0:16.309',1741.375
'0:16.313',1753.864
'0:16.316',1754.589
'0:16.320',1787.538
'0:16.324',1781.698
'0:16.328',1783.148
'0:16.332',1780.974
'0:16.336',1759.704
'0:16.340',1735.535
'0:16.344',1737.752
'0:16.348',1731.145
'0:16.352',1711.366
'0:16.355',1689.372
'0:16.359',1697.428
'0:16.363',1697.428
'0:16.367',1659.364
'0:16.371',1633.703
'0:16.375',1664.479
'0:16.379',1614.649
'0:16.383',1615.374
'0:16.387',1630.037
'0:16.391',1619.765
'0:16.395',1605.144
'0:16.398',1610.259
'0:16.402',1620.532
'0:16.406',1632.254
'0:16.410',1685.706
'0:16.414',1698.153
'0:16.418',1684.257
'0:16.422',1729.653
'0:16.426',1736.260
'0:16.430',1777.308
'0:16.434',1805.867
'0:16.438',1803.650
'0:16.441',1811.707
'0:16.445',1831.485
'0:16.449',1844.699
'0:16.453',1867.418
'0:16.457',1885.704
'0:16.461',1917.972
'0:16.465',1887.196
'0:16.469',1904.758
'0:16.473',1912.089
'0:16.477',1873.982
'0:16.480',1869.592
'0:16.484',1860.086
'0:16.488',1846.148
'0:16.492',1837.367
'0:16.496',1800.752
'0:16.500',1794.870
'0:16.504',1748.706
'0:16.508',1697.428
'0:16.512',1684.257
'0:16.516',1643.208
'0:16.520',1609.534
'0:16.523',1565.588
'0:16.527',1566.312
'0:16.531',1500.371
'0:16.535',1503.312
'0:16.539',1479.868
'0:16.543',1419.766
'0:16.547',1377.311
'0:16.551',1372.878
'0:16.555',1344.319
'0:16.559',1319.426
'0:16.563',1294.490
'0:16.566',1260.816
'0:16.570',1258.600
'0:16.574',1254.934
'0:16.578',1260.092
'0:16.582',1257.875
'0:16.586',1252.760
'0:16.590',1230.041
'0:16.594',1235.880
'0:16.598',1224.158
'0:16.602',1275.479
'0:16.605',1273.987
'0:16.609',1269.597
'0:16.613',1282.044
'0:16.617',1324.541
'0:16.621',1303.314
'0:16.625',1353.867
'0:16.629',1328.207
'0:16.633',1358.982
'0:16.637',1395.598
'0:16.641',1391.932
'0:16.645',1387.541
'0:16.648',1381.702
'0:16.652',1379.485
'0:16.656',1380.210
'0:16.660',1383.151
'0:16.664',1383.876
'0:16.668',1392.656
'0:16.672',1394.148
'0:16.676',1413.202
'0:16.680',1424.924
'0:16.684',1408.044
'0:16.688',1378.761
'0:16.691',1376.544
'0:16.695',1365.589
'0:16.699',1356.041
'0:16.703',1325.266
'0:16.707',1276.204
'0:16.711',1281.319
'0:16.715',1290.824
'0:16.719',1287.926
'0:16.723',1261.541
'0:16.727',1249.819
'0:16.730',1306.212
'0:16.734',1298.923
'0:16.738',1304.763
'0:16.742',1337.712
'0:16.746',1369.980
'0:16.750',1350.202
'0:16.754',1372.154
'0:16.758',1375.095
'0:16.762',1374.370
'0:16.766',1394.148
'0:16.770',1367.763
'0:16.773',1335.538
'0:16.777',1298.923
'0:16.781',1301.822
'0:16.785',1246.878
'0:16.789',1212.436
'0:16.793',1129.658
'0:16.797',1061.543
'0:16.801',1029.318
'0:16.805',964.101
'0:16.809',895.986
'0:16.813',824.929
'0:16.816',753.105
'0:16.820',698.161
'0:16.824',639.551
'0:16.828',583.158
'0:16.832',547.992
'0:16.836',534.053
'0:16.840',520.882
'0:16.844',504.770
'0:16.848',505.494
'0:16.852',488.657
'0:16.855',529.663
'0:16.859',542.110
'0:16.863',599.270
'0:16.867',641.768
'0:16.871',650.549
'0:16.875',706.217
'0:16.879',776.549
'0:16.883',849.098
'0:16.887',945.772
'0:16.891',1012.438
'0:16.895',1086.436
'0:16.898',1161.925
'0:16.902',1227.100
'0:16.906',1268.872
'0:16.910',1342.145
'0:16.914',1406.595
'0:16.918',1501.820
'0:16.922',1553.098
'0:16.926',1591.930
'0:16.930',1646.150
'0:16.934',1708.425
'0:16.938',1716.482
'0:16.941',1767.760
'0:16.945',1817.589
'0:16.949',1819.763
'0:16.953',1821.979
'0:16.957',1834.426
'0:16.961',1841.758
'0:16.965',1862.260
'0:16.969',1843.974
'0:16.973',1840.308
'0:16.977',1829.311
'0:16.980',1823.429
'0:16.984',1843.207
'0:16.988',1791.204
'0:16.992',1783.872
'0:16.996',1744.316
'0:17.000',1751.647
'0:17.004',1736.260
'0:17.008',1694.529
'0:17.012',1659.364
'0:17.016',1645.425
'0:17.020',1619.040
'0:17.023',1561.922
'0:17.027',1573.644
'0:17.031',1506.978
'0:17.035',1520.149
'0:17.039',1479.143
'0:17.043',1452.034
'0:17.047',1443.977
'0:17.051',1372.878
'0:17.055',1344.319
'0:17.059',1325.990
'0:17.063',1315.036
'0:17.066',1267.380
'0:17.070',1269.597
'0:17.074',1230.041
'0:17.078',1188.992
'0:17.082',1175.821
'0:17.086',1161.925
'0:17.090',1094.492
'0:17.094',1116.487
'0:17.098',1065.208
'0:17.102',1064.484
'0:17.105',1024.160
'0:17.109',1013.930
'0:17.113',1016.871
'0:17.117',992.660
'0:17.121',967.042
'0:17.125',997.050
'0:17.129',987.545
'0:17.133',965.550
'0:17.137',950.930
'0:17.141',990.486
'0:17.145',987.545
'0:17.148',972.157
'0:17.152',1020.494
'0:17.156',994.152
'0:17.160',1029.318
'0:17.164',1067.382
'0:17.168',1046.879
'0:17.172',1092.318
'0:17.176',1119.428
'0:17.180',1134.048
'0:17.184',1147.262
'0:17.188',1159.709
'0:17.191',1178.038
'0:17.195',1188.992
'0:17.199',1251.268
'0:17.203',1245.428
'0:17.207',1252.035
'0:17.211',1284.985
'0:17.215',1303.314
'0:17.219',1351.651
'0:17.223',1346.536
'0:17.227',1377.311
'0:17.230',1387.541
'0:17.234',1416.868
'0:17.238',1483.534
'0:17.242',1491.590
'0:17.246',1554.590
'0:17.250',1572.152
'0:17.254',1606.593
'0:17.258',1608.810
'0:17.262',1638.093
'0:17.266',1682.807
'0:17.270',1710.642
'0:17.273',1701.094
'0:17.277',1720.872
'0:17.281',1732.594
'0:17.285',1730.420
'0:17.289',1747.257
'0:17.293',1755.313
'0:17.297',1754.589
'0:17.301',1731.145
'0:17.305',1717.931
'0:17.309',1714.308
'0:17.313',1706.976
'0:17.316',1688.647
'0:17.320',1667.420
'0:17.324',1606.593
'0:17.328',1578.759
'0:17.332',1583.874
'0:17.336',1528.205
'0:17.340',1504.761
'0:17.344',1479.868
'0:17.348',1460.814
'0:17.352',1452.034
'0:17.355',1446.151
'0:17.359',1432.980
'0:17.363',1438.095
'0:17.367',1441.036
'0:17.371',1429.314
'0:17.375',1449.817
'0:17.379',1501.095
'0:17.383',1511.368
'0:17.387',1562.647
'0:17.391',1564.820
'0:17.395',1605.144
'0:17.398',1643.976
'0:17.402',1680.591
'0:17.406',1727.479
'0:17.410',1787.538
'0:17.414',1796.361
'0:17.418',1835.918
'0:17.422',1875.474
'0:17.426',1890.095
'0:17.430',1910.640
'0:17.434',1909.148
'0:17.438',1921.595
'0:17.441',1927.477
'0:17.445',1901.092
'0:17.449',1902.584
'0:17.453',1880.589
'0:17.457',1865.201
'0:17.461',1805.867
'0:17.465',1791.204
'0:17.469',1732.594
'0:17.473',1701.818
'0:17.477',1662.262
'0:17.480',1610.259
'0:17.484',1576.542
'0:17.488',1558.981
'0:17.492',1523.815
'0:17.496',1476.927
'0:17.500',1438.095
'0:17.504',1413.927
'0:17.508',1394.873
'0:17.512',1383.876
'0:17.516',1379.485
'0:17.520',1393.424
'0:17.523',1421.258
'0:17.527',1388.266
'0:17.531',1405.146
'0:17.535',1432.255
'0:17.539',1482.042
'0:17.543',1482.042
'0:17.547',1526.031
'0:17.551',1561.155
'0:17.555',1575.818
'0:17.559',1608.810
'0:17.563',1658.596
'0:17.566',1668.869
'0:17.570',1693.762
'0:17.574',1756.763
'0:17.578',1755.313
'0:17.582',1773.642
'0:17.586',1798.535
'0:17.590',1780.206
'0:17.594',1794.870
'0:17.598',1795.594
'0:17.602',1758.254
'0:17.605',1737.752
'0:17.609',1712.816
'0:17.613',1695.254
'0:17.617',1679.866
'0:17.621',1600.754
'0:17.625',1569.253
'0:17.629',1520.874
'0:17.633',1481.317
'0:17.637',1420.533
'0:17.641',1352.376
'0:17.645',1308.429
'0:17.648',1291.592
'0:17.652',1213.928
'0:17.656',1171.431
'0:17.660',1130.425
'0:17.664',1100.374
'0:17.668',1070.323
'0:17.672',1071.048
'0:17.676',1041.764
'0:17.680',1002.933
'0:17.684',961.927
'0:17.688',975.098
'0:17.691',980.938
'0:17.695',953.828
'0:17.699',990.486
'0:17.703',1014.655
'0:17.707',1037.374
'0:17.711',1075.481
'0:17.715',1073.989
'0:17.719',1119.428
'0:17.723',1170.706
'0:17.727',1207.321
'0:17.730',1232.982
'0:17.734',1297.431
'0:17.738',1301.822
'0:17.742',1293.041
'0:17.746',1284.260
'0:17.750',1298.156
'0:17.754',1297.431
'0:17.758',1273.263
'0:17.762',1236.648
'0:17.766',1170.706
'0:17.770',1128.933
'0:17.773',1071.048
'0:17.777',965.550
'0:17.781',931.151
'0:17.785',865.935
'0:17.789',791.937
'0:17.793',715.765
'0:17.797',655.664
'0:17.801',596.329
'0:17.805',516.492
'0:17.809',479.834
'0:17.813',485.716
'0:17.816',425.657
'0:17.820',459.331
'0:17.824',442.494
'0:17.828',457.882
'0:17.832',498.163
'0:17.836',560.439
'0:17.840',575.826
'0:17.844',655.664
'0:17.848',714.274
'0:17.852',787.547
'0:17.855',849.098
'0:17.859',884.988
'0:17.863',992.660
'0:17.867',1066.658
'0:17.871',1137.714
'0:17.875',1180.936
'0:17.879',1271.814
'0:17.883',1315.036
'0:17.887',1364.822
'0:17.891',1468.871
'0:17.895',1528.930
'0:17.898',1584.599
'0:17.902',1599.986
'0:17.906',1667.420
'0:17.910',1704.035
'0:17.914',1743.591
'0:17.918',1772.918
'0:17.922',1798.535
'0:17.926',1832.252
'0:17.930',1869.592
'0:17.934',1893.036
'0:17.938',1878.373
'0:17.941',1914.306
'0:17.945',1893.760
'0:17.949',1893.036
'0:17.953',1901.092
'0:17.957',1897.426
'0:17.961',1871.084
'0:17.965',1880.589
'0:17.969',1844.699
'0:17.973',1812.474
'0:17.977',1781.698
'0:17.980',1749.474
'0:17.984',1722.364
'0:17.988',1720.147
'0:17.992',1660.813
'0:17.996',1600.754
'0:18.000',1597.088
'0:18.004',1542.144
'0:18.008',1500.371
'0:18.012',1461.539
'0:18.016',1399.263
'0:18.020',1392.656
'0:18.023',1349.434
'0:18.027',1309.878
'0:18.031',1257.150
'0:18.035',1235.156
'0:18.039',1228.591
'0:18.043',1202.206
'0:18.047',1150.928
'0:18.051',1133.324
'0:18.055',1166.316
'0:18.059',1147.987
'0:18.063',1118.703
'0:18.066',1145.046
'0:18.070',1121.602
'0:18.074',1167.040
'0:18.078',1151.653
'0:18.082',1153.102
'0:18.086',1169.982
'0:18.090',1206.597
'0:18.094',1218.319
'0:18.098',1230.765
'0:18.102',1227.100
'0:18.105',1238.821
'0:18.109',1233.706
'0:18.113',1277.653
'0:18.117',1243.212
'0:18.121',1289.375
'0:18.125',1271.046
'0:18.129',1257.875
'0:18.133',1290.100
'0:18.137',1301.822
'0:18.141',1285.709
'0:18.145',1258.600
'0:18.148',1297.431
'0:18.152',1287.201
'0:18.156',1279.870
'0:18.160',1273.263
'0:18.164',1249.819
'0:18.168',1230.765
'0:18.172',1255.701
'0:18.176',1210.987
'0:18.180',1246.153
'0:18.184',1243.212
'0:18.188',1227.100
'0:18.191',1247.602
'0:18.195',1260.816
'0:18.199',1292.316
'0:18.203',1279.870
'0:18.207',1328.207
'0:18.211',1310.645
'0:18.215',1349.434
'0:18.219',1382.426
'0:18.223',1378.036
'0:18.227',1409.536
'0:18.230',1449.093
'0:18.234',1473.986
'0:18.238',1481.317
'0:18.242',1471.045
'0:18.246',1477.652
'0:18.250',1488.649
'0:18.254',1523.090
'0:18.258',1481.317
'0:18.262',1492.315
'0:18.266',1495.256
'0:18.270',1495.256
'0:18.273',1475.478
'0:18.277',1454.932
'0:18.281',1425.649
'0:18.285',1421.983
'0:18.289',1374.370
'0:18.293',1346.536
'0:18.297',1341.378
'0:18.301',1353.100
'0:18.305',1356.766
'0:18.309',1344.319
'0:18.313',1364.822
'0:18.316',1396.322
'0:18.320',1370.704
'0:18.324',1397.814
'0:18.328',1438.095
'0:18.332',1501.820
'0:18.336',1511.368
'0:18.340',1586.090
'0:18.344',1632.978
'0:18.348',1653.481
'0:18.352',1697.428
'0:18.355',1775.091
'0:18.359',1823.429
'0:18.363',1872.533
'0:18.367',1931.143
'0:18.371',1958.977
'0:18.375',1995.593
'0:18.379',2047.638
'0:18.383',2048.363
'0:18.387',2098.192
'0:18.391',2092.310
'0:18.395',2099.641
'0:18.398',2079.138
'0:18.402',2076.922
'0:18.406',2068.141
'0:18.410',2044.697
'0:18.414',2021.253
'0:18.418',1979.480
'0:18.422',1909.148
'0:18.426',1876.199
'0:18.430',1850.538
'0:18.434',1781.698
'0:18.438',1731.869
'0:18.441',1709.150
'0:18.445',1646.150
'0:18.449',1602.203
'0:18.453',1539.927
'0:18.457',1541.376
'0:18.461',1473.986
'0:18.465',1431.488
'0:18.469',1402.205
'0:18.473',1399.263
'0:18.477',1389.033
'0:18.480',1368.488
'0:18.484',1366.314
'0:18.488',1339.204
'0:18.492',1323.092
'0:18.496',1314.268
'0:18.500',1318.701
'0:18.504',1361.924
'0:18.508',1326.758
'0:18.512',1358.982
'0:18.516',1383.151
'0:18.520',1391.207
'0:18.523',1386.817
'0:18.527',1414.651
'0:18.531',1471.045
'0:18.535',1481.317
'0:18.539',1476.202
'0:18.543',1518.700
'0:18.547',1522.366
'0:18.551',1527.481
'0:18.555',1542.868
'0:18.559',1547.983
'0:18.563',1553.866
'0:18.566',1574.369
'0:18.570',1584.599
'0:18.574',1585.366
'0:18.578',1555.315
'0:18.582',1569.253
'0:18.586',1513.542
'0:18.590',1495.980
'0:18.594',1510.644
'0:18.598',1452.034
'0:18.602',1472.536
'0:18.605',1432.980
'0:18.609',1414.651
'0:18.613',1410.261
'0:18.617',1359.707
'0:18.621',1344.319
'0:18.625',1336.988
'0:18.629',1302.546
'0:18.633',1276.204
'0:18.637',1290.100
'0:18.641',1279.870
'0:18.645',1264.482
'0:18.648',1242.487
'0:18.652',1230.765
'0:18.656',1223.434
'0:18.660',1199.990
'0:18.664',1244.704
'0:18.668',1236.648
'0:18.672',1225.650
'0:18.676',1275.479
'0:18.680',1266.656
'0:18.684',1260.816
'0:18.688',1253.485
'0:18.691',1235.880
'0:18.695',1230.041
'0:18.699',1203.656
'0:18.703',1172.155
'0:18.707',1141.380
'0:18.711',1095.259
'0:18.715',1016.104
'0:18.719',947.264
'0:18.723',899.651
'0:18.727',842.491
'0:18.730',769.985
'0:18.734',682.049
'0:18.738',647.607
'0:18.742',586.099
'0:18.746',503.278
'0:18.750',445.435
'0:18.754',405.879
'0:18.758',377.277
'0:18.762',390.491
'0:18.766',344.328
'0:18.770',391.216
'0:18.773',363.381
'0:18.777',388.999
'0:18.781',466.663
'0:18.785',490.831
'0:18.789',570.711
'0:18.793',594.880
'0:18.797',690.105
'0:18.801',782.432
'0:18.805',847.606
'0:18.809',943.598
'0:18.813',993.427
'0:18.816',1104.040
'0:18.820',1187.543
'0:18.824',1275.479
'0:18.828',1353.867
'0:18.832',1401.480
'0:18.836',1492.315
'0:18.840',1528.930
'0:18.844',1588.264
'0:18.848',1630.762
'0:18.852',1694.529
'0:18.855',1709.150
'0:18.859',1752.372
'0:18.863',1800.752
'0:18.867',1817.589
'0:18.871',1817.589
'0:18.875',1826.370
'0:18.879',1845.423
'0:18.883',1842.482
'0:18.887',1849.089
'0:18.891',1832.252
'0:18.895',1829.311
'0:18.898',1824.921
'0:18.902',1812.474
'0:18.906',1810.257
'0:18.910',1820.530
'0:18.914',1808.041
'0:18.918',1771.426
'0:18.922',1768.484
'0:18.926',1767.760
'0:18.930',1725.262
'0:18.934',1705.484
'0:18.938',1718.698
'0:18.941',1694.529
'0:18.945',1666.652
'0:18.949',1649.815
'0:18.953',1625.647
'0:18.957',1615.374
'0:18.961',1627.821
'0:18.965',1581.700
'0:18.969',1550.200
'0:18.973',1559.705
'0:18.977',1493.764
'0:18.980',1505.486
'0:18.984',1464.480
'0:18.988',1410.261
'0:18.992',1376.544
'0:18.996',1361.924
'0:19.000',1357.491
'0:19.004',1296.707
'0:19.008',1264.482
'0:19.012',1227.824
'0:19.016',1224.926
'0:19.020',1169.214
'0:19.023',1135.540
'0:19.027',1109.155
'0:19.031',1106.214
'0:19.035',1094.492
'0:19.039',1042.489
'0:19.043',1032.984
'0:19.047',978.764
'0:19.051',951.654
'0:19.055',947.264
'0:19.059',939.208
'0:19.063',901.825
'0:19.066',846.156
'0:19.070',858.603
'0:19.074',813.932
'0:19.078',821.263
'0:19.082',806.600
'0:19.086',805.875
'0:19.090',788.996
'0:19.094',808.049
'0:19.098',788.271
'0:19.102',819.047
'0:19.105',810.266
'0:19.109',854.937
'0:19.113',841.766
'0:19.117',892.320
'0:19.121',936.991
'0:19.125',968.491
'0:19.129',1006.598
'0:19.133',1034.433
'0:19.137',1074.714
'0:19.141',1116.487
'0:19.145',1190.484
'0:19.148',1243.212
'0:19.152',1300.373
'0:19.156',1370.704
'0:19.160',1435.154
'0:19.164',1470.320
'0:19.168',1557.531
'0:19.172',1599.262
'0:19.176',1660.088
'0:19.180',1691.588
'0:19.184',1742.867
'0:19.188',1787.538
'0:19.191',1844.699
'0:19.195',1895.977
'0:19.199',1893.760
'0:19.203',1939.199
'0:19.207',1919.421
'0:19.211',1936.983
'0:19.215',1907.699
'0:19.219',1910.640
'0:19.223',1892.311
'0:19.227',1863.028
'0:19.230',1813.923
'0:19.234',1753.097
'0:19.238',1739.925
'0:19.242',1672.535
'0:19.246',1628.588
'0:19.250',1598.537
'0:19.254',1571.427
'0:19.258',1523.090
'0:19.262',1536.261
'0:19.266',1480.593
'0:19.270',1490.098
'0:19.273',1482.042
'0:19.277',1454.208
'0:19.281',1504.761
'0:19.285',1477.652
'0:19.289',1534.088
'0:19.293',1560.430
'0:19.297',1594.147
'0:19.301',1644.700
'0:19.305',1667.420
'0:19.309',1710.642
'0:19.313',1766.311
'0:19.316',1838.816
'0:19.320',1882.039
'0:19.324',1933.317
'0:19.328',1986.812
'0:19.332',2049.812
'0:19.336',2079.863
'0:19.340',2123.810
'0:19.344',2175.088
'0:19.348',2190.476
'0:19.352',2213.195
'0:19.355',2206.588
'0:19.359',2227.091
'0:19.363',2208.080
'0:19.367',2202.922
'0:19.371',2169.973
'0:19.375',2132.591
'0:19.379',2123.085
'0:19.383',2074.748
'0:19.387',2025.643
'0:19.391',1964.092
'0:19.395',1894.528
'0:19.398',1832.252
'0:19.402',1785.364
'0:19.406',1747.982
'0:19.410',1645.425
'0:19.414',1626.371
'0:19.418',1553.866
'0:19.422',1469.595
'0:19.426',1452.034
'0:19.430',1408.812
'0:19.434',1361.924
'0:19.438',1282.768
'0:19.441',1275.479
'0:19.445',1227.100
'0:19.449',1221.260
'0:19.453',1225.650
'0:19.457',1188.268
'0:19.461',1171.431
'0:19.465',1166.316
'0:19.469',1158.260
'0:19.473',1156.043
'0:19.477',1168.490
'0:19.480',1216.102
'0:19.484',1224.158
'0:19.488',1214.653
'0:19.492',1262.265
'0:19.496',1268.872
'0:19.500',1302.546
'0:19.504',1322.367
'0:19.508',1340.654
'0:19.512',1315.760
'0:19.516',1356.041
'0:19.520',1382.426
'0:19.523',1378.036
'0:19.527',1368.488
'0:19.531',1396.322
'0:19.535',1383.876
'0:19.539',1361.924
'0:19.543',1394.873
'0:19.547',1366.314
'0:19.551',1342.870
'0:19.555',1317.934
'0:19.559',1307.704
'0:19.563',1300.373
'0:19.566',1290.824
'0:19.570',1300.373
'0:19.574',1239.546
'0:19.578',1246.878
'0:19.582',1254.209
'0:19.586',1212.436
'0:19.590',1228.591
'0:19.594',1187.543
'0:19.598',1151.653
'0:19.602',1169.214
'0:19.605',1167.765
'0:19.609',1150.928
'0:19.613',1141.380
'0:19.617',1143.596
'0:19.621',1140.655
'0:19.625',1163.375
'0:19.629',1171.431
'0:19.633',1172.880
'0:19.637',1187.543
'0:19.641',1244.704
'0:19.645',1286.434
'0:19.648',1269.597
'0:19.652',1295.982
'0:19.656',1312.095
'0:19.660',1350.926
'0:19.664',1339.204
'0:19.668',1335.538
'0:19.672',1311.370
'0:19.676',1305.488
'0:19.680',1291.592
'0:19.684',1248.370
'0:19.688',1181.703
'0:19.691',1134.816
'0:19.695',1088.652
'0:19.699',1024.160
'0:19.703',958.261
'0:19.707',911.373
'0:19.711',816.830
'0:19.715',769.985
'0:19.719',717.215
'0:19.723',631.495
'0:19.727',598.546
'0:19.730',560.439
'0:19.734',520.882
'0:19.738',477.660
'0:19.742',460.056
'0:19.746',497.438
'0:19.750',525.997
'0:19.754',553.107
'0:19.758',578.767
'0:19.762',638.102
'0:19.766',725.271
'0:19.770',783.881
'0:19.773',879.873
'0:19.777',942.106
'0:19.781',1054.936
'0:19.785',1150.928
'0:19.789',1242.487
'0:19.793',1334.814
'0:19.797',1427.098
'0:19.801',1520.149
'0:19.805',1590.481
'0:19.809',1684.257
'0:19.813',1758.979
'0:19.816',1795.594
'0:19.820',1859.362
'0:19.824',1915.755
'0:19.828',1981.697
'0:19.832',1991.202
'0:19.836',2026.368
'0:19.840',2062.259
'0:19.844',2083.529
'0:19.848',2101.090
'0:19.852',2103.307
'0:19.855',2082.037
'0:19.859',2073.981
'0:19.863',2060.809
'0:19.867',2040.307
'0:19.871',2026.368
'0:19.875',2012.472
'0:19.879',1991.202
'0:19.883',1935.533
'0:19.887',1932.592
'0:19.891',1869.592
'0:19.895',1847.640
'0:19.898',1820.530
'0:19.902',1761.920
'0:19.906',1732.594
'0:19.910',1703.310
'0:19.914',1621.256
'0:19.918',1589.032
'0:19.922',1532.596
'0:19.926',1491.590
'0:19.930',1454.932
'0:19.934',1416.100
'0:19.938',1371.429
'0:19.941',1290.824
'0:19.945',1272.538
'0:19.949',1209.538
'0:19.953',1172.880
'0:19.957',1106.981
'0:19.961',1046.879
'0:19.965',1024.160
'0:19.969',985.371
'0:19.973',956.769
'0:19.977',924.545
'0:19.980',913.547
'0:19.984',891.595
'0:19.988',888.654
'0:19.992',872.542
'0:19.996',843.215
'0:20.000',841.766
'0:20.004',854.937
'0:20.008',851.272
'0:20.012',871.817
'0:20.016',906.940
'0:20.020',906.940
'0:20.023',893.769
'0:20.027',918.662
'0:20.031',914.272
'0:20.035',917.213
'0:20.039',922.328
'0:20.043',923.820
'0:20.047',915.764
'0:20.051',923.820
'0:20.055',908.432
'0:20.059',925.269
'0:20.063',935.542
'0:20.066',939.208
'0:20.070',968.491
'0:20.074',975.098
'0:20.078',969.216
'0:20.082',1016.104
'0:20.086',1048.371
'0:20.090',1072.540
'0:20.094',1091.593
'0:20.098',1104.040
'0:20.102',1109.880
'0:20.105',1178.038
'0:20.109',1180.212
'0:20.113',1215.378
'0:20.117',1298.923
'0:20.121',1328.207
'0:20.125',1394.148
'0:20.129',1452.034
'0:20.133',1492.315
'0:20.137',1517.932
'0:20.141',1608.810
'0:20.145',1619.040
'0:20.148',1673.984
'0:20.152',1723.088
'0:20.156',1785.364
'0:20.160',1821.979
'0:20.164',1821.255
'0:20.168',1868.867
'0:20.172',1896.702
'0:20.176',1894.528
'0:20.180',1923.811
'0:20.184',1900.367
'0:20.188',1887.196
'0:20.191',1885.704
'0:20.195',1875.474
'0:20.199',1831.485
'0:20.203',1797.811
'0:20.207',1790.479
'0:20.211',1730.420
'0:20.215',1706.251
'0:20.219',1673.259
'0:20.223',1647.642
'0:20.227',1613.200
'0:20.230',1585.366
'0:20.234',1567.762
'0:20.238',1561.155
'0:20.242',1558.256
'0:20.246',1600.754
'0:20.250',1580.975
'0:20.254',1582.425
'0:20.258',1610.259
'0:20.262',1630.762
'0:20.266',1670.318
'0:20.270',1736.260
'0:20.273',1773.642
'0:20.277',1840.308
'0:20.281',1890.095
'0:20.285',1948.705
'0:20.289',1979.480
'0:20.293',2047.638
'0:20.297',2093.034
'0:20.301',2153.136
'0:20.305',2208.080
'0:20.309',2230.757
'0:20.313',2254.201
'0:20.316',2271.080
'0:20.320',2279.137
'0:20.324',2290.134
'0:20.328',2304.754
'0:20.332',2293.757
'0:20.336',2252.027
'0:20.340',2227.091
'0:20.344',2209.529
'0:20.348',2149.470
'0:20.352',2108.422
'0:20.355',2073.981
'0:20.359',2011.705
'0:20.363',1956.761
'0:20.367',1881.314
'0:20.371',1813.923
'0:20.375',1761.196
'0:20.379',1720.872
'0:20.383',1643.976
'0:20.387',1602.928
'0:20.391',1511.368
'0:20.395',1473.261
'0:20.398',1414.651
'0:20.402',1369.213
'0:20.406',1356.766
'0:20.410',1284.985
'0:20.414',1282.044
'0:20.418',1238.821
'0:20.422',1194.150
'0:20.426',1169.214
'0:20.430',1148.711
'0:20.434',1138.481
'0:20.438',1153.102
'0:20.441',1127.484
'0:20.445',1098.158
'0:20.449',1102.548
'0:20.453',1141.380
'0:20.457',1117.936
'0:20.461',1111.372
'0:20.465',1128.933
'0:20.469',1158.260
'0:20.473',1181.703
'0:20.477',1186.094
'0:20.480',1183.153
'0:20.484',1235.156
'0:20.488',1246.878
'0:20.492',1240.313
'0:20.496',1231.490
'0:20.500',1282.768
'0:20.504',1244.704
'0:20.508',1289.375
'0:20.512',1249.094
'0:20.516',1291.592
'0:20.520',1248.370
'0:20.523',1271.046
'0:20.527',1287.926
'0:20.531',1256.426
'0:20.535',1285.709
'0:20.539',1241.763
'0:20.543',1249.819
'0:20.547',1280.594
'0:20.551',1292.316
'0:20.555',1263.757
'0:20.559',1268.148
'0:20.563',1294.490
'0:20.566',1257.875
'0:20.570',1253.485
'0:20.574',1274.712
'0:20.578',1292.316
'0:20.582',1271.814
'0:20.586',1273.263
'0:20.590',1275.479
'0:20.594',1312.819
'0:20.598',1348.710
'0:20.602',1377.311
'0:20.605',1402.205
'0:20.609',1413.202
'0:20.613',1473.261
'0:20.617',1484.258
'0:20.621',1507.702
'0:20.625',1545.042
'0:20.629',1561.155
'0:20.633',1522.366
'0:20.637',1529.654
'0:20.641',1529.654
'0:20.645',1486.432
'0:20.648',1455.699
'0:20.652',1408.812
'0:20.656',1400.755
'0:20.660',1358.982
'0:20.664',1264.482
'0:20.668',1249.094
'0:20.672',1189.760
'0:20.676',1087.928
'0:20.680',1051.270
'0:20.684',1002.208
'0:20.688',956.045
'0:20.691',905.491
'0:20.695',842.491
'0:20.699',814.656
'0:20.703',802.210
'0:20.707',783.156
'0:20.711',765.552
'0:20.715',784.605
'0:20.719',787.547
'0:20.723',786.097
'0:20.727',844.707
'0:20.730',876.207
'0:20.734',931.151
'0:20.738',977.272
'0:20.742',1026.377
'0:20.746',1106.981
'0:20.750',1175.821
'0:20.754',1210.262
'0:20.758',1298.923
'0:20.762',1342.145
'0:20.766',1453.483
'0:20.770',1506.978
'0:20.773',1573.644
'0:20.777',1632.978
'0:20.781',1684.981
'0:20.785',1731.869
'0:20.789',1769.252
'0:20.793',1817.589
'0:20.797',1873.258
'0:20.801',1880.589
'0:20.805',1912.089
'0:20.809',1913.539
'0:20.813',1944.314
'0:20.816',1953.862
'0:20.820',1936.258
'0:20.824',1938.475
'0:20.828',1965.584
'0:20.832',1931.143
'0:20.836',1946.531
'0:20.840',1893.036
'0:20.844',1879.140
'0:20.848',1890.095
'0:20.852',1852.755
'0:20.855',1814.648
'0:20.859',1781.698
'0:20.863',1734.086
'0:20.867',1734.086
'0:20.871',1706.251
'0:20.875',1627.821
'0:20.879',1627.096
'0:20.883',1567.762
'0:20.887',1538.478
'0:20.891',1502.587
'0:20.895',1462.988
'0:20.898',1416.868
'0:20.902',1369.980
'0:20.906',1286.434
'0:20.910',1279.870
'0:20.914',1235.880
'0:20.918',1172.880
'0:20.922',1125.267
'0:20.926',1101.099
'0:20.930',1084.262
'0:20.934',1043.938
'0:20.938',972.157
'0:20.941',985.371
'0:20.945',950.930
'0:20.949',929.660
'0:20.953',902.550
'0:20.957',864.485
'0:20.961',848.373
'0:20.965',838.100
'0:20.969',807.325
'0:20.973',832.218
'0:20.977',822.713
'0:20.980',811.715
'0:20.984',808.049
'0:20.988',844.707
'0:20.992',819.771
'0:20.996',821.988
'0:21.000',864.485
'0:21.004',877.657
'0:21.008',889.379
'0:21.012',887.162
'0:21.016',917.938
'0:21.020',908.432
'0:21.023',969.216
'0:21.027',958.986
'0:21.031',1019.045
'0:21.035',1008.048
'0:21.039',1066.658
'0:21.043',1055.660
'0:21.047',1090.102
'0:21.051',1135.540
'0:21.055',1157.492
'0:21.059',1178.762
'0:21.063',1218.319
'0:21.066',1235.880
'0:21.070',1226.375
'0:21.074',1257.150
'0:21.078',1316.485
'0:21.082',1353.867
'0:21.086',1355.317
'0:21.090',1370.704
'0:21.094',1427.822
'0:21.098',1484.258
'0:21.102',1484.258
'0:21.105',1520.149
'0:21.109',1552.374
'0:21.113',1625.647
'0:21.117',1638.093
'0:21.121',1692.313
'0:21.125',1681.316
'0:21.129',1711.366
'0:21.133',1747.257
'0:21.137',1752.372
'0:21.141',1771.426
'0:21.145',1794.145
'0:21.148',1791.928
'0:21.152',1802.926
'0:21.156',1673.259
'0:21.160',1643.976
'0:21.164',1606.593
'0:21.168',1621.981
'0:21.172',1587.540
'0:21.176',1551.649
'0:21.180',1542.868
'0:21.184',1561.155
'0:21.188',1578.034
'0:21.191',1572.152
'0:21.195',1577.310
'0:21.199',1571.427
'0:21.203',1619.765
'0:21.207',1631.487
'0:21.211',1693.038
'0:21.215',1701.818
'0:21.219',1761.920
'0:21.223',1792.696
'0:21.227',1852.755
'0:21.230',1903.309
'0:21.234',1964.860
'0:21.238',2005.865
'0:21.242',2062.259
'0:21.246',2128.925
'0:21.250',2171.422
'0:21.254',2209.529
'0:21.258',2236.639
'0:21.262',2253.476
'0:21.266',2298.915
'0:21.270',2289.367
'0:21.273',2289.367
'0:21.277',2290.134
'0:21.281',2275.471
'0:21.285',2280.586
'0:21.289',2226.366
'0:21.293',2211.746
'0:21.297',2172.147
'0:21.301',2123.810
'0:21.305',2041.031
'0:21.309',2010.256
'0:21.313',1939.924
'0:21.316',1859.362
'0:21.320',1802.926
'0:21.324',1730.420
'0:21.328',1635.920
'0:21.332',1582.425
'0:21.336',1523.815
'0:21.340',1449.817
'0:21.344',1421.258
'0:21.348',1361.924
'0:21.352',1273.263
'0:21.355',1269.597
'0:21.359',1194.875
'0:21.363',1162.650
'0:21.367',1149.436
'0:21.371',1145.046
'0:21.375',1103.315
'0:21.379',1087.160
'0:21.383',1085.711
'0:21.387',1101.824
'0:21.391',1116.487
'0:21.395',1129.658
'0:21.398',1158.984
'0:21.402',1184.602
'0:21.406',1200.714
'0:21.410',1225.650
'0:21.414',1224.158
'0:21.418',1285.709
'0:21.422',1288.651
'0:21.426',1318.701
'0:21.430',1344.319
'0:21.434',1372.878
'0:21.438',1437.371
'0:21.441',1432.980
'0:21.445',1432.980
'0:21.449',1471.045
'0:21.453',1442.486
'0:21.457',1469.595
'0:21.461',1472.536
'0:21.465',1441.761
'0:21.469',1419.042
'0:21.473',1402.929
'0:21.477',1428.590
'0:21.480',1418.317
'0:21.484',1360.432
'0:21.488',1377.311
'0:21.492',1350.202
'0:21.496',1314.268
'0:21.500',1294.490
'0:21.504',1284.985
'0:21.508',1278.378
'0:21.512',1238.821
'0:21.516',1251.268
'0:21.520',1237.372
'0:21.523',1195.599
'0:21.527',1193.425
'0:21.531',1191.209
'0:21.535',1178.038
'0:21.539',1210.262
'0:21.543',1188.268
'0:21.547',1231.490
'0:21.551',1219.768
'0:21.555',1251.268
'0:21.559',1283.536
'0:21.563',1313.544
'0:21.566',1320.875
'0:21.570',1315.760
'0:21.574',1302.546
'0:21.578',1303.314
'0:21.582',1309.878
'0:21.586',1288.651
'0:21.590',1252.760
'0:21.594',1194.150
'0:21.598',1189.760
'0:21.602',1156.043
'0:21.605',1106.214
'0:21.609',1043.214
'0:21.613',993.427
'0:21.617',959.710
'0:21.621',902.550
'0:21.625',851.272
'0:21.629',803.659
'0:21.633',768.493
'0:21.637',690.830
'0:21.641',684.990
'0:21.645',620.498
'0:21.648',643.217
'0:21.652',625.655
'0:21.656',588.998
'0:21.660',637.377
'0:21.664',619.048
'0:21.668',668.878
'0:21.672',679.108
'0:21.676',745.049
'0:21.680',787.547
'0:21.684',849.098
'0:21.688',892.320
'0:21.691',946.539
'0:21.695',989.761
'0:21.699',1052.762
'0:21.703',1161.158
'0:21.707',1183.153
'0:21.711',1265.207
'0:21.715',1318.701
'0:21.719',1380.935
'0:21.723',1440.312
'0:21.727',1504.761
'0:21.730',1547.259
'0:21.734',1602.928
'0:21.738',1640.310
'0:21.742',1683.532
'0:21.746',1717.931
'0:21.750',1756.763
'0:21.754',1792.696
'0:21.758',1818.314
'0:21.762',1865.201
'0:21.766',1853.480
'0:21.770',1885.704
'0:21.773',1879.865
'0:21.777',1874.750
'0:21.781',1902.584
'0:21.785',1879.865
'0:21.789',1893.036
'0:21.793',1873.982
'0:21.797',1869.592
'0:21.801',1891.587
'0:21.805',1846.148
'0:21.809',1876.199
'0:21.813',1827.094
'0:21.816',1852.755
'0:21.820',1807.316
'0:21.824',1811.707
'0:21.828',1777.308
'0:21.832',1788.263
'0:21.836',1758.254
'0:21.840',1714.308
'0:21.844',1691.588
'0:21.848',1671.810
'0:21.852',1633.703
'0:21.855',1594.871
'0:21.859',1589.032
'0:21.863',1522.366
'0:21.867',1507.702
'0:21.871',1471.812
'0:21.875',1427.098
'0:21.879',1364.822
'0:21.883',1313.544
'0:21.887',1309.878
'0:21.891',1263.757
'0:21.895',1230.041
'0:21.898',1197.816
'0:21.902',1136.989
'0:21.906',1098.882
'0:21.910',1112.096
'0:21.914',1071.815
'0:21.918',1065.208
'0:21.922',1062.267
'0:21.926',1054.211
'0:21.930',1058.601
'0:21.934',1064.484
'0:21.938',1063.759
'0:21.941',1056.427
'0:21.945',1073.265
'0:21.949',1069.599
'0:21.953',1060.818
'0:21.957',1063.759
'0:21.961',1108.430
'0:21.965',1109.155
'0:21.969',1115.762
'0:21.973',1110.604
'0:21.977',1093.767
'0:21.980',1093.767
'0:21.984',1142.147
'0:21.988',1147.262
'0:21.992',1142.147
'0:21.996',1134.048
'0:22.000',1147.262
'0:22.004',1150.928
'0:22.008',1142.147
'0:22.012',1145.046
'0:22.016',1132.599
'0:22.020',1165.591
'0:22.023',1158.260
'0:22.027',1172.880
'0:22.031',1219.043
'0:22.035',1241.038
'0:22.039',1268.148
'0:22.043',1272.538
'0:22.047',1304.038
'0:22.051',1317.210
'0:22.055',1375.095
'0:22.059',1391.932
'0:22.063',1445.427
'0:22.066',1499.646
'0:22.070',1535.537
'0:22.074',1557.531
'0:22.078',1597.812
'0:22.082',1624.922
'0:22.086',1691.588
'0:22.090',1721.597
'0:22.094',1732.594
'0:22.098',1735.535
'0:22.102',1743.591
'0:22.105',1754.589
'0:22.109',1792.696
'0:22.113',1765.586
'0:22.117',1735.535
'0:22.121',1728.204
'0:22.125',1704.760
'0:22.129',1687.923
'0:22.133',1660.088
'0:22.137',1651.265
'0:22.141',1642.484
'0:22.145',1611.708
'0:22.148',1575.818
'0:22.152',1575.093
'0:22.156',1569.978
'0:22.160',1545.809
'0:22.164',1551.649
'0:22.168',1567.037
'0:22.172',1557.531
'0:22.176',1575.093
'0:22.180',1586.090
'0:22.184',1615.374
'0:22.188',1668.869
'0:22.191',1697.428
'0:22.195',1714.308
'0:22.199',1782.423
'0:22.203',1801.477
'0:22.207',1877.648
'0:22.211',1899.643
'0:22.215',1933.317
'0:22.219',1991.202
'0:22.223',2013.197
'0:22.227',2045.422
'0:22.230',2042.480
'0:22.234',2083.529
'0:22.238',2073.981
'0:22.242',2054.202
'0:22.246',2063.751
'0:22.250',2056.419
'0:22.254',2037.365
'0:22.258',1986.812
'0:22.262',1939.924
'0:22.266',1901.092
'0:22.270',1888.645
'0:22.273',1830.760
'0:22.277',1757.530
'0:22.281',1706.251
'0:22.285',1680.591
'0:22.289',1608.043
'0:22.293',1586.815
'0:22.297',1553.866
'0:22.301',1504.761
'0:22.305',1424.924
'0:22.309',1410.985
'0:22.313',1357.491
'0:22.316',1358.258
'0:22.320',1305.488
'0:22.324',1273.263
'0:22.328',1254.209
'0:22.332',1241.763
'0:22.336',1230.041
'0:22.340',1176.546
'0:22.344',1202.931
'0:22.348',1179.487
'0:22.352',1148.711
'0:22.355',1168.490
'0:22.359',1184.602
'0:22.363',1161.158
'0:22.367',1156.768
'0:22.371',1202.206
'0:22.375',1213.928
'0:22.379',1213.204
'0:22.383',1240.313
'0:22.387',1256.426
'0:22.391',1302.546
'0:22.395',1303.314
'0:22.398',1353.100
'0:22.402',1375.095
'0:22.406',1399.263
'0:22.410',1396.322
'0:22.414',1397.814
'0:22.418',1453.483
'0:22.422',1431.488
'0:22.426',1471.045
'0:22.430',1447.601
'0:22.434',1470.320
'0:22.438',1482.042
'0:22.441',1451.266
'0:22.445',1461.539
'0:22.449',1444.702
'0:22.453',1459.323
'0:22.457',1408.044
'0:22.461',1435.154
'0:22.465',1394.873
'0:22.469',1410.261
'0:22.473',1354.592
'0:22.477',1380.210
'0:22.480',1338.480
'0:22.484',1372.878
'0:22.488',1339.929
'0:22.492',1323.092
'0:22.496',1307.704
'0:22.500',1308.429
'0:22.504',1334.089
'0:22.508',1325.990
'0:22.512',1320.875
'0:22.516',1318.701
'0:22.520',1329.656
'0:22.523',1373.646
'0:22.527',1375.819
'0:22.531',1436.646
'0:22.535',1475.478
'0:22.539',1508.427
'0:22.543',1536.261
'0:22.547',1553.098
'0:22.551',1543.593
'0:22.555',1535.537
'0:22.559',1553.098
'0:22.563',1558.256
'0:22.566',1536.261
'0:22.570',1501.820
'0:22.574',1441.036
'0:22.578',1416.100
'0:22.582',1333.322
'0:22.586',1274.712
'0:22.590',1233.706
'0:22.594',1126.759
'0:22.598',1064.484
'0:22.602',1030.767
'0:22.605',961.160
'0:22.609',895.261
'0:22.613',793.429
'0:22.617',761.161
'0:22.621',725.271
'0:22.625',680.599
'0:22.629',630.770
'0:22.633',629.321
'0:22.637',611.717
'0:22.641',586.099
'0:22.645',614.658
'0:22.648',629.321
'0:22.652',618.324
'0:22.656',690.830
'0:22.660',736.993
'0:22.664',772.883
'0:22.668',819.047
'0:22.672',902.550
'0:22.676',952.379
'0:22.680',1046.155
'0:22.684',1121.602
'0:22.688',1177.270
'0:22.691',1246.878
'0:22.695',1344.319
'0:22.699',1409.536
'0:22.703',1454.208
'0:22.707',1511.368
'0:22.711',1576.542
'0:22.715',1642.484
'0:22.719',1688.647
'0:22.723',1751.647
'0:22.727',1785.364
'0:22.730',1813.199
'0:22.734',1835.918
'0:22.738',1882.039
'0:22.742',1874.750
'0:22.746',1903.309
'0:22.750',1898.151
'0:22.754',1878.373
'0:22.758',1909.873
'0:22.762',1886.472
'0:22.766',1854.929
'0:22.770',1870.317
'0:22.773',1855.696
'0:22.777',1830.036
'0:22.781',1769.252
'0:22.785',1755.313
'0:22.789',1748.706
'0:22.793',1691.588
'0:22.797',1684.257
'0:22.801',1625.647
'0:22.805',1583.874
'0:22.809',1553.098
'0:22.813',1536.261
'0:22.816',1462.988
'0:22.820',1465.205
'0:22.824',1404.378
'0:22.828',1348.710
'0:22.832',1323.817
'0:22.836',1313.544
'0:22.840',1288.651
'0:22.844',1234.431
'0:22.848',1251.268
'0:22.852',1199.990
'0:22.855',1180.212
'0:22.859',1189.760
'0:22.863',1165.591
'0:22.867',1136.265
'0:22.871',1115.037
'0:22.875',1114.270
'0:22.879',1116.487
'0:22.883',1085.711
'0:22.887',1082.770
'0:22.891',1037.374
'0:22.895',1058.601
'0:22.898',1054.936
'0:22.902',1043.938
'0:22.906',1030.042
'0:22.910',1016.871
'0:22.914',1004.382
'0:22.918',994.152
'0:22.922',982.430
'0:22.926',949.438
'0:22.930',919.430
'0:22.934',904.042
'0:22.938',908.432
'0:22.941',921.603
'0:22.945',878.381
'0:22.949',856.429
'0:22.953',891.595
'0:22.957',869.600
'0:22.961',843.940
'0:22.965',876.207
'0:22.969',842.491
'0:22.973',884.988
'0:22.977',850.547
'0:22.980',881.322
'0:22.984',895.261
'0:22.988',876.932
'0:22.992',920.879
'0:22.996',958.986
'0:23.000',980.938
'0:23.004',1010.989
'0:23.008',1027.826
'0:23.012',1043.214
'0:23.016',1083.537
'0:23.020',1138.481
'0:23.023',1207.321
'0:23.027',1225.650
'0:23.031',1313.544
'0:23.035',1325.990
'0:23.039',1418.317
'0:23.043',1443.977
'0:23.047',1465.930
'0:23.051',1515.759
'0:23.055',1580.208
'0:23.059',1598.537
'0:23.063',1616.866
'0:23.066',1683.532
'0:23.070',1672.535
'0:23.074',1701.094
'0:23.078',1728.928
'0:23.082',1719.423
'0:23.086',1698.920
'0:23.090',1736.260
'0:23.094',1701.818
'0:23.098',1677.650
'0:23.102',1686.431
'0:23.105',1695.979
'0:23.109',1684.257
'0:23.113',1677.650
'0:23.117',1660.088
'0:23.121',1646.874
'0:23.125',1624.198
'0:23.129',1638.093
'0:23.133',1637.369
'0:23.137',1631.487
'0:23.141',1664.479
'0:23.145',1654.930
'0:23.148',1684.981
'0:23.152',1687.198
'0:23.156',1743.591
'0:23.160',1771.426
'0:23.164',1783.148
'0:23.168',1805.867
'0:23.172',1850.538
'0:23.176',1868.867
'0:23.180',1934.809
'0:23.184',1980.205
'0:23.188',2012.472
'0:23.191',2049.812
'0:23.195',2060.085
'0:23.199',2081.312
'0:23.203',2127.475
'0:23.207',2146.529
'0:23.211',2163.366
'0:23.215',2145.804
'0:23.219',2156.034
'0:23.223',2160.425
'0:23.227',2131.866
'0:23.230',2109.147
'0:23.234',2090.093
'0:23.238',2064.475
'0:23.242',2057.868
'0:23.246',2028.585
'0:23.250',1960.427
'0:23.254',1950.197
'0:23.258',1879.140
'0:23.262',1836.642
'0:23.266',1814.648
'0:23.270',1768.484
'0:23.273',1718.698
'0:23.277',1640.310
'0:23.281',1626.371
'0:23.285',1569.253
'0:23.289',1515.034
'0:23.293',1471.045
'0:23.297',1422.707
'0:23.301',1415.376
'0:23.305',1376.544
'0:23.309',1338.480
'0:23.313',1290.824
'0:23.316',1243.212
'0:23.320',1244.704
'0:23.324',1184.602
'0:23.328',1154.594
'0:23.332',1179.487
'0:23.336',1147.987
'0:23.340',1141.380
'0:23.344',1127.484
'0:23.348',1107.706
'0:23.352',1109.880
'0:23.355',1134.816
'0:23.359',1147.987
'0:23.363',1182.428
'0:23.367',1180.212
'0:23.371',1189.760
'0:23.375',1234.431
'0:23.379',1232.982
'0:23.383',1266.656
'0:23.387',1286.434
'0:23.391',1303.314
'0:23.395',1323.817
'0:23.398',1341.378
'0:23.402',1364.097
'0:23.406',1413.202
'0:23.410',1427.822
'0:23.414',1415.376
'0:23.418',1460.090
'0:23.422',1427.822
'0:23.426',1462.264
'0:23.430',1466.654
'0:23.434',1419.766
'0:23.438',1452.758
'0:23.441',1405.870
'0:23.445',1425.649
'0:23.449',1429.314
'0:23.453',1379.485
'0:23.457',1382.426
'0:23.461',1366.314
'0:23.465',1322.367
'0:23.469',1342.145
'0:23.473',1294.490
'0:23.477',1280.594
'0:23.480',1241.038
'0:23.484',1242.487
'0:23.488',1204.380
'0:23.492',1227.824
'0:23.496',1180.212
'0:23.500',1220.535
'0:23.504',1186.819
'0:23.508',1219.768
'0:23.512',1203.656
'0:23.516',1205.872
'0:23.520',1237.372
'0:23.523',1208.046
'0:23.527',1212.436
