'Elapsed time','wrist_ppg'
'hh:mm:ss.mmm','mV'
'0:00.000',1334.791
'0:00.004',1334.050
'0:00.008',1273.263
'0:00.012',1258.602
'0:00.016',1252.754
'0:00.020',1251.272
'0:00.023',1280.594
'0:00.027',1220.508
'0:00.031',1260.085
'0:00.035',1213.918
'0:00.039',1263.009
'0:00.043',1220.508
'0:00.047',1251.272
'0:00.051',1267.415
'0:00.055',1241.017
'0:00.059',1278.370
'0:00.063',1309.875
'0:00.066',1274.005
'0:00.070',1316.506
'0:00.074',1347.970
'0:00.078',1317.947
'0:00.082',1335.533
'0:00.086',1397.802
'0:00.090',1411.722
'0:00.094',1405.132
'0:00.098',1405.874
'0:00.102',1461.553
'0:00.105',1429.307
'0:00.109',1490.835
'0:00.113',1458.629
'0:00.117',1521.599
'0:00.121',1484.987
'0:00.125',1535.519
'0:00.129',1504.013
'0:00.133',1527.488
'0:00.137',1558.993
'0:00.141',1531.153
'0:00.145',1566.282
'0:00.148',1523.081
'0:00.152',1525.264
'0:00.156',1561.917
'0:00.160',1527.488
'0:00.164',1561.176
'0:00.168',1506.237
'0:00.172',1520.898
'0:00.176',1547.256
'0:00.180',1504.755
'0:00.184',1538.484
'0:00.188',1519.416
'0:00.191',1486.469
'0:00.195',1490.835
'0:00.199',1518.675
'0:00.203',1476.173
'0:00.207',1504.013
'0:00.211',1488.652
'0:00.215',1473.249
'0:00.219',1463.736
'0:00.223',1487.169
'0:00.227',1504.013
'0:00.230',1504.755
'0:00.234',1454.223
'0:00.238',1484.987
'0:00.242',1450.557
'0:00.246',1500.348
'0:00.250',1469.584
'0:00.254',1458.629
'0:00.258',1482.804
'0:00.262',1485.728
'0:00.266',1472.549
'0:00.270',1445.410
'0:00.273',1440.303
'0:00.277',1478.397
'0:00.281',1456.405
'0:00.285',1441.744
'0:00.289',1432.231
'0:00.293',1430.048
'0:00.297',1454.964
'0:00.301',1444.709
'0:00.305',1446.892
'0:00.309',1453.481
'0:00.313',1444.709
'0:00.316',1451.999
'0:00.320',1454.223
'0:00.324',1457.147
'0:00.328',1446.151
'0:00.332',1438.820
'0:00.336',1430.789
'0:00.340',1475.473
'0:00.344',1439.561
'0:00.348',1458.629
'0:00.352',1465.219
'0:00.355',1432.972
'0:00.359',1461.553
'0:00.363',1454.223
'0:00.367',1455.664
'0:00.371',1470.325
'0:00.375',1491.576
'0:00.379',1449.816
'0:00.383',1454.223
'0:00.387',1479.139
'0:00.391',1490.093
'0:00.395',1469.584
'0:00.398',1493.059
'0:00.402',1502.572
'0:00.406',1453.481
'0:00.410',1497.424
'0:00.414',1445.410
'0:00.418',1468.143
'0:00.422',1431.490
'0:00.426',1472.549
'0:00.430',1421.235
'0:00.434',1462.995
'0:00.438',1418.311
'0:00.441',1414.646
'0:00.445',1432.231
'0:00.449',1389.030
'0:00.453',1380.216
'0:00.457',1413.904
'0:00.461',1358.225
'0:00.465',1386.806
'0:00.469',1359.707
'0:00.473',1351.635
'0:00.477',1395.619
'0:00.480',1363.372
'0:00.484',1367.038
'0:00.488',1384.623
'0:00.492',1383.140
'0:00.496',1405.132
'0:00.500',1369.962
'0:00.504',1374.368
'0:00.508',1409.539
'0:00.512',1380.216
'0:00.516',1386.806
'0:00.520',1389.030
'0:00.523',1389.730
'0:00.527',1396.319
'0:00.531',1443.968
'0:00.535',1421.976
'0:00.539',1411.722
'0:00.543',1440.303
'0:00.547',1445.410
'0:00.551',1430.789
'0:00.555',1463.736
'0:00.559',1411.722
'0:00.563',1447.633
'0:00.566',1405.874
'0:00.570',1453.481
'0:00.574',1397.060
'0:00.578',1407.315
'0:00.582',1388.288
'0:00.586',1410.980
'0:00.590',1371.444
'0:00.594',1416.128
'0:00.598',1362.631
'0:00.602',1346.528
'0:00.605',1339.939
'0:00.609',1380.216
'0:00.613',1360.448
'0:00.617',1342.122
'0:00.621',1310.617
'0:00.625',1323.795
'0:00.629',1356.042
'0:00.633',1354.600
'0:00.637',1339.198
'0:00.641',1323.095
'0:00.645',1323.095
'0:00.648',1320.871
'0:00.652',1321.613
'0:00.656',1328.943
'0:00.660',1343.604
'0:00.664',1350.194
'0:00.668',1337.015
'0:00.672',1361.890
'0:00.676',1399.984
'0:00.680',1364.114
'0:00.684',1360.448
'0:00.688',1372.144
'0:00.691',1361.890
'0:00.695',1366.296
'0:00.699',1368.520
'0:00.703',1405.132
'0:00.707',1410.980
'0:00.711',1391.954
'0:00.715',1391.954
'0:00.719',1399.984
'0:00.723',1397.060
'0:00.727',1385.364
'0:00.730',1383.882
'0:00.734',1389.030
'0:00.738',1392.695
'0:00.742',1398.543
'0:00.746',1388.288
'0:00.750',1373.627
'0:00.754',1371.444
'0:00.758',1369.220
'0:00.762',1369.962
'0:00.766',1349.452
'0:00.770',1339.939
'0:00.773',1321.613
'0:00.777',1307.693
'0:00.781',1309.875
'0:00.785',1317.947
'0:00.789',1320.130
'0:00.793',1311.358
'0:00.797',1278.370
'0:00.801',1306.210
'0:00.805',1306.210
'0:00.809',1297.438
'0:00.813',1249.089
'0:00.816',1291.590
'0:00.820',1246.906
'0:00.824',1241.017
'0:00.828',1252.754
'0:00.832',1258.602
'0:00.836',1232.245
'0:00.840',1235.910
'0:00.844',1233.686
'0:00.848',1260.826
'0:00.852',1206.588
'0:00.855',1246.165
'0:00.859',1208.812
'0:00.863',1213.918
'0:00.867',1221.249
'0:00.871',1194.150
'0:00.875',1218.325
'0:00.879',1169.976
'0:00.883',1171.417
'0:00.887',1210.994
'0:00.891',1156.056
'0:00.895',1180.972
'0:00.898',1195.592
'0:00.902',1153.132
'0:00.906',1194.150
'0:00.910',1210.253
'0:00.914',1175.082
'0:00.918',1187.561
'0:00.922',1233.686
'0:00.926',1191.926
'0:00.930',1227.838
'0:00.934',1252.754
'0:00.938',1231.504
'0:00.941',1275.446
'0:00.945',1263.009
'0:00.949',1271.781
'0:00.953',1281.335
'0:00.957',1301.103
'0:00.961',1275.446
'0:00.965',1323.795
'0:00.969',1337.015
'0:00.973',1314.282
'0:00.977',1354.600
'0:00.980',1312.099
'0:00.984',1361.890
'0:00.988',1376.551
'0:00.992',1334.050
'0:00.996',1389.730
'0:01.000',1358.966
'0:01.004',1388.288
'0:01.008',1394.878
'0:01.012',1428.566
'0:01.016',1427.124
'0:01.020',1438.079
'0:01.023',1428.566
'0:01.027',1422.718
'0:01.031',1485.728
'0:01.035',1464.477
'0:01.039',1493.059
'0:01.043',1477.656
'0:01.047',1519.416
'0:01.051',1475.473
'0:01.055',1509.903
'0:01.059',1484.245
'0:01.063',1517.233
'0:01.066',1501.089
'0:01.070',1506.979
'0:01.074',1505.496
'0:01.078',1490.093
'0:01.082',1528.188
'0:01.086',1517.933
'0:01.090',1480.580
'0:01.094',1475.473
'0:01.098',1470.325
'0:01.102',1512.827
'0:01.105',1501.089
'0:01.109',1482.804
'0:01.113',1482.804
'0:01.117',1450.557
'0:01.121',1466.660
'0:01.125',1486.469
'0:01.129',1483.504
'0:01.133',1471.067
'0:01.137',1422.718
'0:01.141',1454.223
'0:01.145',1460.071
'0:01.148',1438.079
'0:01.152',1405.132
'0:01.156',1407.315
'0:01.160',1453.481
'0:01.164',1436.637
'0:01.168',1432.231
'0:01.172',1442.485
'0:01.176',1435.896
'0:01.180',1409.539
'0:01.184',1413.204
'0:01.188',1451.999
'0:01.191',1449.816
'0:01.195',1436.637
'0:01.199',1428.566
'0:01.203',1460.812
'0:01.207',1447.633
'0:01.211',1432.231
'0:01.215',1454.964
'0:01.219',1438.079
'0:01.223',1456.405
'0:01.227',1482.804
'0:01.230',1440.303
'0:01.234',1473.249
'0:01.238',1487.911
'0:01.242',1447.633
'0:01.246',1473.249
'0:01.250',1490.093
'0:01.254',1462.995
'0:01.258',1498.165
'0:01.262',1450.557
'0:01.266',1500.348
'0:01.270',1491.576
'0:01.273',1475.473
'0:01.277',1501.831
'0:01.281',1454.964
'0:01.285',1488.652
'0:01.289',1476.173
'0:01.293',1473.991
'0:01.297',1448.334
'0:01.301',1478.397
'0:01.305',1501.831
'0:01.309',1453.481
'0:01.313',1477.656
'0:01.316',1499.648
'0:01.320',1458.629
'0:01.324',1451.299
'0:01.328',1494.500
'0:01.332',1493.059
'0:01.336',1453.481
'0:01.340',1473.249
'0:01.344',1449.075
'0:01.348',1462.253
'0:01.352',1431.490
'0:01.355',1470.325
'0:01.359',1457.147
'0:01.363',1441.744
'0:01.367',1487.169
'0:01.371',1447.633
'0:01.375',1451.299
'0:01.379',1453.481
'0:01.383',1449.816
'0:01.387',1458.629
'0:01.391',1455.664
'0:01.395',1471.067
'0:01.398',1507.679
'0:01.402',1469.584
'0:01.406',1504.755
'0:01.410',1465.219
'0:01.414',1512.827
'0:01.418',1461.553
'0:01.422',1492.317
'0:01.426',1479.839
'0:01.430',1460.071
'0:01.434',1500.348
'0:01.438',1460.812
'0:01.441',1506.237
'0:01.445',1452.740
'0:01.449',1493.759
'0:01.453',1446.892
'0:01.457',1495.983
'0:01.461',1456.405
'0:01.465',1435.155
'0:01.469',1481.321
'0:01.473',1451.999
'0:01.477',1423.459
'0:01.480',1426.383
'0:01.484',1451.299
'0:01.488',1434.455
'0:01.492',1413.904
'0:01.496',1416.869
'0:01.500',1396.319
'0:01.504',1396.319
'0:01.508',1386.064
'0:01.512',1381.699
'0:01.516',1366.296
'0:01.520',1358.966
'0:01.523',1316.506
'0:01.527',1328.202
'0:01.531',1335.533
'0:01.535',1337.015
'0:01.539',1359.707
'0:01.543',1312.099
'0:01.547',1358.966
'0:01.551',1315.023
'0:01.555',1320.871
'0:01.559',1353.118
'0:01.563',1315.023
'0:01.566',1349.452
'0:01.570',1370.703
'0:01.574',1328.943
'0:01.578',1326.760
'0:01.582',1331.126
'0:01.586',1353.859
'0:01.590',1342.122
'0:01.594',1339.198
'0:01.598',1368.520
'0:01.602',1372.144
'0:01.605',1369.220
'0:01.609',1315.023
'0:01.613',1322.354
'0:01.617',1327.461
'0:01.621',1347.270
'0:01.625',1343.604
'0:01.629',1297.438
'0:01.633',1315.023
'0:01.637',1305.510
'0:01.641',1289.366
'0:01.645',1328.943
'0:01.648',1301.845
'0:01.652',1292.290
'0:01.656',1331.126
'0:01.660',1312.841
'0:01.664',1304.769
'0:01.668',1320.130
'0:01.672',1346.528
'0:01.676',1357.524
'0:01.680',1315.023
'0:01.684',1321.613
'0:01.688',1346.528
'0:01.691',1386.806
'0:01.695',1394.136
'0:01.699',1401.467
'0:01.703',1405.132
'0:01.707',1395.619
'0:01.711',1376.551
'0:01.715',1424.159
'0:01.719',1411.722
'0:01.723',1434.455
'0:01.727',1417.570
'0:01.730',1399.984
'0:01.734',1416.869
'0:01.738',1418.311
'0:01.742',1412.463
'0:01.746',1403.650
'0:01.750',1405.874
'0:01.754',1430.789
'0:01.758',1451.299
'0:01.762',1430.048
'0:01.766',1441.744
'0:01.770',1446.151
'0:01.773',1405.874
'0:01.777',1404.391
'0:01.781',1413.904
'0:01.785',1418.311
'0:01.789',1430.789
'0:01.793',1430.789
'0:01.797',1432.231
'0:01.801',1407.315
'0:01.805',1400.726
'0:01.809',1372.886
'0:01.813',1363.372
'0:01.816',1365.555
'0:01.820',1369.220
'0:01.824',1394.878
'0:01.828',1341.381
'0:01.832',1374.368
'0:01.836',1326.019
'0:01.840',1354.600
'0:01.844',1301.103
'0:01.848',1325.278
'0:01.852',1321.613
'0:01.855',1287.925
'0:01.859',1271.081
'0:01.863',1316.506
'0:01.867',1290.849
'0:01.871',1262.267
'0:01.875',1252.013
'0:01.879',1285.701
'0:01.883',1271.081
'0:01.887',1250.571
'0:01.891',1243.941
'0:01.895',1223.432
'0:01.898',1213.918
'0:01.902',1249.089
'0:01.906',1243.241
'0:01.910',1246.165
'0:01.914',1225.656
'0:01.918',1196.333
'0:01.922',1183.896
'0:01.926',1175.082
'0:01.930',1180.972
'0:01.934',1189.744
'0:01.938',1162.645
'0:01.941',1193.409
'0:01.945',1204.405
'0:01.949',1202.922
'0:01.953',1186.820
'0:01.957',1190.485
'0:01.961',1189.744
'0:01.965',1187.561
'0:01.969',1195.592
'0:01.973',1233.686
'0:01.977',1229.321
'0:01.980',1217.584
'0:01.984',1252.013
'0:01.988',1230.762
'0:01.992',1265.191
'0:01.996',1288.666
'0:02.000',1276.187
'0:02.004',1286.442
'0:02.008',1345.046
'0:02.012',1356.783
'0:02.016',1325.278
'0:02.020',1343.604
'0:02.023',1391.212
'0:02.027',1410.980
'0:02.031',1410.980
'0:02.035',1416.869
'0:02.039',1435.155
'0:02.043',1436.637
'0:02.047',1449.816
'0:02.051',1447.633
'0:02.055',1455.664
'0:02.059',1449.816
'0:02.063',1434.455
'0:02.066',1430.048
'0:02.070',1427.124
'0:02.074',1426.383
'0:02.078',1436.637
'0:02.082',1484.245
'0:02.086',1441.744
'0:02.090',1460.812
'0:02.094',1484.245
'0:02.098',1459.329
'0:02.102',1472.549
'0:02.105',1493.759
'0:02.109',1482.804
'0:02.113',1465.219
'0:02.117',1499.648
'0:02.121',1467.401
'0:02.125',1486.469
'0:02.129',1506.237
'0:02.133',1473.991
'0:02.137',1457.888
'0:02.141',1454.223
'0:02.145',1454.964
'0:02.148',1474.732
'0:02.152',1488.652
'0:02.156',1456.405
'0:02.160',1447.633
'0:02.164',1427.124
'0:02.168',1466.660
'0:02.172',1434.455
'0:02.176',1421.235
'0:02.180',1436.637
'0:02.184',1407.315
'0:02.188',1451.999
'0:02.191',1420.535
'0:02.195',1450.557
'0:02.199',1425.642
'0:02.203',1425.642
'0:02.207',1424.159
'0:02.211',1394.878
'0:02.215',1443.227
'0:02.219',1429.307
'0:02.223',1405.132
'0:02.227',1397.802
'0:02.230',1450.557
'0:02.234',1442.485
'0:02.238',1405.874
'0:02.242',1458.629
'0:02.246',1413.204
'0:02.250',1466.660
'0:02.254',1424.159
'0:02.258',1443.227
'0:02.262',1465.919
'0:02.266',1461.553
'0:02.270',1482.804
'0:02.273',1478.397
'0:02.277',1444.709
'0:02.281',1449.816
'0:02.285',1482.804
'0:02.289',1477.656
'0:02.293',1489.393
'0:02.297',1442.485
'0:02.301',1460.071
'0:02.305',1463.736
'0:02.309',1455.664
'0:02.313',1481.321
'0:02.316',1435.896
'0:02.320',1457.888
'0:02.324',1473.249
'0:02.328',1437.379
'0:02.332',1444.709
'0:02.336',1486.469
'0:02.340',1433.713
'0:02.344',1433.713
'0:02.348',1471.067
'0:02.352',1477.656
'0:02.355',1430.789
'0:02.359',1432.972
'0:02.363',1459.329
'0:02.367',1469.584
'0:02.371',1466.660
'0:02.375',1442.485
'0:02.379',1416.128
'0:02.383',1410.980
'0:02.387',1422.718
'0:02.391',1420.535
'0:02.395',1435.896
'0:02.398',1424.900
'0:02.402',1400.726
'0:02.406',1400.726
'0:02.410',1401.467
'0:02.414',1407.315
'0:02.418',1439.561
'0:02.422',1415.387
'0:02.426',1433.713
'0:02.430',1419.052
'0:02.434',1434.455
'0:02.438',1451.999
'0:02.441',1462.253
'0:02.445',1480.580
'0:02.449',1478.397
'0:02.453',1442.485
'0:02.457',1438.820
'0:02.461',1443.968
'0:02.465',1468.884
'0:02.469',1447.633
'0:02.473',1443.227
'0:02.477',1449.075
'0:02.480',1464.477
'0:02.484',1494.500
'0:02.488',1493.059
'0:02.492',1456.405
'0:02.496',1444.709
'0:02.500',1441.044
'0:02.504',1453.481
'0:02.508',1462.995
'0:02.512',1482.804
'0:02.516',1484.245
'0:02.520',1475.473
'0:02.523',1473.249
'0:02.527',1465.219
'0:02.531',1461.553
'0:02.535',1408.056
'0:02.539',1424.159
'0:02.543',1437.379
'0:02.547',1435.155
'0:02.551',1386.806
'0:02.555',1408.056
'0:02.559',1362.631
'0:02.563',1387.547
'0:02.566',1347.970
'0:02.570',1363.372
'0:02.574',1380.216
'0:02.578',1347.270
'0:02.582',1372.144
'0:02.586',1317.206
'0:02.590',1363.372
'0:02.594',1318.689
'0:02.598',1339.939
'0:02.602',1330.385
'0:02.605',1359.707
'0:02.609',1357.524
'0:02.613',1337.015
'0:02.617',1373.627
'0:02.621',1383.140
'0:02.625',1340.680
'0:02.629',1393.395
'0:02.633',1346.528
'0:02.637',1366.296
'0:02.641',1402.208
'0:02.645',1352.376
'0:02.648',1386.064
'0:02.652',1362.631
'0:02.656',1387.547
'0:02.660',1339.198
'0:02.664',1378.775
'0:02.668',1342.122
'0:02.672',1309.875
'0:02.676',1353.118
'0:02.680',1297.438
'0:02.684',1286.442
'0:02.688',1324.537
'0:02.691',1266.674
'0:02.695',1312.841
'0:02.699',1265.191
'0:02.703',1297.438
'0:02.707',1260.085
'0:02.711',1247.606
'0:02.715',1277.670
'0:02.719',1250.571
'0:02.723',1224.914
'0:02.727',1275.446
'0:02.730',1271.081
'0:02.734',1254.937
'0:02.738',1231.504
'0:02.742',1279.853
'0:02.746',1243.241
'0:02.750',1261.526
'0:02.754',1279.111
'0:02.758',1295.955
'0:02.762',1274.746
'0:02.766',1296.697
'0:02.770',1293.031
'0:02.773',1338.457
'0:02.777',1305.510
'0:02.781',1342.122
'0:02.785',1322.354
'0:02.789',1378.775
'0:02.793',1340.680
'0:02.797',1382.399
'0:02.801',1369.220
'0:02.805',1358.966
'0:02.809',1403.650
'0:02.813',1387.547
'0:02.816',1358.225
'0:02.820',1360.448
'0:02.824',1360.448
'0:02.828',1364.114
'0:02.832',1407.315
'0:02.836',1396.319
'0:02.840',1355.300
'0:02.844',1363.372
'0:02.848',1399.284
'0:02.852',1345.787
'0:02.855',1378.034
'0:02.859',1356.042
'0:02.863',1331.867
'0:02.867',1336.274
'0:02.871',1356.783
'0:02.875',1315.765
'0:02.879',1361.190
'0:02.883',1349.452
'0:02.887',1314.282
'0:02.891',1312.841
'0:02.895',1303.286
'0:02.898',1299.621
'0:02.902',1309.875
'0:02.906',1312.099
'0:02.910',1334.050
'0:02.914',1331.126
'0:02.918',1328.943
'0:02.922',1317.947
'0:02.926',1317.947
'0:02.930',1304.769
'0:02.934',1299.621
'0:02.938',1277.670
'0:02.941',1280.594
'0:02.945',1279.853
'0:02.949',1275.446
'0:02.953',1232.986
'0:02.957',1228.580
'0:02.961',1269.598
'0:02.965',1247.606
'0:02.969',1245.424
'0:02.973',1226.356
'0:02.977',1215.401
'0:02.980',1213.918
'0:02.984',1227.097
'0:02.988',1210.253
'0:02.992',1204.405
'0:02.996',1216.101
'0:03.000',1229.321
'0:03.004',1240.276
'0:03.008',1238.834
'0:03.012',1238.834
'0:03.016',1232.245
'0:03.020',1221.249
'0:03.023',1219.766
'0:03.027',1210.994
'0:03.031',1271.781
'0:03.035',1250.571
'0:03.039',1243.941
'0:03.043',1295.255
'0:03.047',1309.175
'0:03.051',1306.210
'0:03.055',1314.282
'0:03.059',1350.194
'0:03.063',1312.841
'0:03.066',1360.448
'0:03.070',1384.623
'0:03.074',1398.543
'0:03.078',1358.966
'0:03.082',1367.038
'0:03.086',1389.730
'0:03.090',1401.467
'0:03.094',1443.968
'0:03.098',1432.972
'0:03.102',1418.311
'0:03.105',1419.794
'0:03.109',1436.637
'0:03.113',1453.481
'0:03.117',1451.999
'0:03.121',1452.740
'0:03.125',1465.919
'0:03.129',1462.995
'0:03.133',1471.808
'0:03.137',1481.321
'0:03.141',1497.424
'0:03.145',1523.081
'0:03.148',1559.693
'0:03.152',1561.917
'0:03.156',1548.738
'0:03.160',1528.188
'0:03.164',1536.260
'0:03.168',1537.742
'0:03.172',1549.438
'0:03.176',1545.773
'0:03.180',1584.609
'0:03.184',1575.096
'0:03.188',1576.578
'0:03.191',1558.993
'0:03.195',1533.336
'0:03.199',1519.416
'0:03.203',1515.009
'0:03.207',1505.496
'0:03.211',1501.089
'0:03.215',1511.344
'0:03.219',1490.835
'0:03.223',1490.835
'0:03.227',1503.313
'0:03.230',1464.477
'0:03.234',1449.075
'0:03.238',1468.143
'0:03.242',1462.253
'0:03.246',1427.824
'0:03.250',1430.048
'0:03.254',1413.204
'0:03.258',1410.239
'0:03.262',1426.383
'0:03.266',1434.455
'0:03.270',1419.052
'0:03.273',1419.794
'0:03.277',1428.566
'0:03.281',1451.299
'0:03.285',1421.235
'0:03.289',1418.311
'0:03.293',1462.253
'0:03.297',1426.383
'0:03.301',1443.227
'0:03.305',1464.477
'0:03.309',1479.139
'0:03.313',1451.299
'0:03.316',1434.455
'0:03.320',1475.473
'0:03.324',1453.481
'0:03.328',1443.227
'0:03.332',1457.147
'0:03.336',1497.424
'0:03.340',1448.334
'0:03.344',1487.169
'0:03.348',1470.325
'0:03.352',1460.812
'0:03.355',1490.835
'0:03.359',1484.987
'0:03.363',1452.740
'0:03.367',1455.664
'0:03.371',1454.223
'0:03.375',1498.907
'0:03.379',1471.067
'0:03.383',1460.812
'0:03.387',1480.580
'0:03.391',1453.481
'0:03.395',1438.079
'0:03.398',1452.740
'0:03.402',1470.325
'0:03.406',1463.736
'0:03.410',1427.124
'0:03.414',1431.490
'0:03.418',1460.812
'0:03.422',1421.976
'0:03.426',1411.722
'0:03.430',1415.387
'0:03.434',1401.467
'0:03.438',1442.485
'0:03.441',1446.151
'0:03.445',1443.227
'0:03.449',1438.079
'0:03.453',1423.459
'0:03.457',1391.954
'0:03.461',1428.566
'0:03.465',1440.303
'0:03.469',1437.379
'0:03.473',1443.968
'0:03.477',1443.968
'0:03.480',1416.869
'0:03.484',1424.159
'0:03.488',1420.535
'0:03.492',1411.722
'0:03.496',1465.219
'0:03.500',1421.235
'0:03.504',1466.660
'0:03.508',1430.789
'0:03.512',1473.991
'0:03.516',1431.490
'0:03.520',1464.477
'0:03.523',1449.075
'0:03.527',1489.393
'0:03.531',1438.820
'0:03.535',1452.740
'0:03.539',1461.553
'0:03.543',1443.968
'0:03.547',1442.485
'0:03.551',1472.549
'0:03.555',1427.124
'0:03.559',1473.249
'0:03.563',1448.334
'0:03.566',1419.794
'0:03.570',1410.980
'0:03.574',1413.204
'0:03.578',1397.802
'0:03.582',1394.136
'0:03.586',1415.387
'0:03.590',1426.383
'0:03.594',1420.535
'0:03.598',1414.646
'0:03.602',1391.212
'0:03.605',1373.627
'0:03.609',1357.524
'0:03.613',1343.604
'0:03.617',1350.935
'0:03.621',1358.966
'0:03.625',1378.775
'0:03.629',1333.350
'0:03.633',1328.943
'0:03.637',1326.019
'0:03.641',1328.202
'0:03.645',1323.795
'0:03.648',1322.354
'0:03.652',1317.206
'0:03.656',1352.376
'0:03.660',1366.296
'0:03.664',1317.206
'0:03.668',1320.130
'0:03.672',1362.631
'0:03.676',1367.779
'0:03.680',1368.520
'0:03.684',1367.779
'0:03.688',1370.703
'0:03.691',1323.095
'0:03.695',1346.528
'0:03.699',1369.220
'0:03.703',1370.703
'0:03.707',1334.791
'0:03.711',1315.765
'0:03.715',1323.795
'0:03.719',1344.305
'0:03.723',1356.783
'0:03.727',1316.506
'0:03.730',1321.613
'0:03.734',1293.773
'0:03.738',1304.769
'0:03.742',1334.050
'0:03.746',1294.514
'0:03.750',1274.005
'0:03.754',1279.111
'0:03.758',1308.434
'0:03.762',1304.769
'0:03.766',1265.191
'0:03.770',1271.081
'0:03.773',1269.598
'0:03.777',1301.103
'0:03.781',1274.005
'0:03.785',1304.769
'0:03.789',1271.781
'0:03.793',1262.267
'0:03.797',1282.777
'0:03.801',1302.586
'0:03.805',1328.202
'0:03.809',1305.510
'0:03.813',1290.849
'0:03.816',1311.358
'0:03.820',1307.693
'0:03.824',1318.689
'0:03.828',1331.126
'0:03.832',1358.225
'0:03.836',1389.730
'0:03.840',1392.695
'0:03.844',1396.319
'0:03.848',1398.543
'0:03.852',1391.212
'0:03.855',1386.806
'0:03.859',1392.695
'0:03.863',1414.646
'0:03.867',1405.874
'0:03.871',1444.709
'0:03.875',1447.633
'0:03.879',1409.539
'0:03.883',1460.812
'0:03.887',1427.124
'0:03.891',1422.718
'0:03.895',1407.315
'0:03.898',1403.650
'0:03.902',1397.060
'0:03.906',1405.132
'0:03.910',1400.726
'0:03.914',1402.950
'0:03.918',1389.030
'0:03.922',1375.810
'0:03.926',1369.220
'0:03.930',1370.703
'0:03.934',1372.886
'0:03.938',1363.372
'0:03.941',1350.194
'0:03.945',1346.528
'0:03.949',1355.300
'0:03.953',1355.300
'0:03.957',1335.533
'0:03.961',1342.863
'0:03.965',1364.114
'0:03.969',1345.046
'0:03.973',1345.787
'0:03.977',1356.783
'0:03.980',1325.278
'0:03.984',1321.613
'0:03.988',1296.697
'0:03.992',1293.031
'0:03.996',1297.438
'0:04.000',1323.095
'0:04.004',1267.415
'0:04.008',1309.175
'0:04.012',1255.678
'0:04.016',1295.955
'0:04.020',1247.606
'0:04.023',1288.666
'0:04.027',1265.933
'0:04.031',1236.651
'0:04.035',1279.853
'0:04.039',1266.674
'0:04.043',1262.267
'0:04.047',1235.910
'0:04.051',1277.670
'0:04.055',1232.245
'0:04.059',1239.575
'0:04.063',1252.754
'0:04.066',1227.838
'0:04.070',1266.674
'0:04.074',1244.682
'0:04.078',1229.321
'0:04.082',1273.263
'0:04.086',1232.245
'0:04.090',1246.906
'0:04.094',1284.259
'0:04.098',1294.514
'0:04.102',1251.272
'0:04.105',1279.111
'0:04.109',1301.845
'0:04.113',1263.009
'0:04.117',1302.586
'0:04.121',1306.951
'0:04.125',1291.590
'0:04.129',1284.259
'0:04.133',1293.773
'0:04.137',1285.001
'0:04.141',1304.769
'0:04.145',1326.019
'0:04.148',1306.210
'0:04.152',1289.366
'0:04.156',1317.947
'0:04.160',1309.175
'0:04.164',1296.697
'0:04.168',1292.290
'0:04.172',1298.179
'0:04.176',1326.760
'0:04.180',1348.711
'0:04.184',1379.475
'0:04.188',1375.110
'0:04.191',1375.110
'0:04.195',1430.048
'0:04.199',1436.637
'0:04.203',1443.227
'0:04.207',1443.227
'0:04.211',1474.732
'0:04.215',1479.839
'0:04.219',1471.067
'0:04.223',1498.165
'0:04.227',1523.822
'0:04.230',1553.104
'0:04.234',1538.484
'0:04.238',1541.408
'0:04.242',1545.073
'0:04.246',1530.412
'0:04.250',1583.868
'0:04.254',1554.586
'0:04.258',1535.519
'0:04.262',1584.609
'0:04.266',1578.761
'0:04.270',1543.590
'0:04.273',1550.180
'0:04.277',1545.773
'0:04.281',1515.009
'0:04.285',1506.237
'0:04.289',1545.073
'0:04.293',1484.987
'0:04.297',1520.898
'0:04.301',1516.492
'0:04.305',1476.173
'0:04.309',1457.888
'0:04.313',1489.393
'0:04.316',1467.401
'0:04.320',1446.892
'0:04.324',1446.892
'0:04.328',1454.223
'0:04.332',1442.485
'0:04.336',1441.044
'0:04.340',1443.227
'0:04.344',1397.060
'0:04.348',1406.615
'0:04.352',1390.471
'0:04.355',1400.726
'0:04.359',1409.539
'0:04.363',1430.048
'0:04.367',1391.212
'0:04.371',1430.048
'0:04.375',1384.623
'0:04.379',1399.284
'0:04.383',1389.030
'0:04.387',1391.954
'0:04.391',1399.984
'0:04.395',1397.802
'0:04.398',1400.726
'0:04.402',1394.878
'0:04.406',1399.984
'0:04.410',1397.060
'0:04.414',1412.463
'0:04.418',1405.874
'0:04.422',1404.391
'0:04.426',1450.557
'0:04.430',1419.794
'0:04.434',1413.904
'0:04.438',1410.239
'0:04.441',1416.869
'0:04.445',1457.888
'0:04.449',1457.147
'0:04.453',1465.219
'0:04.457',1467.401
'0:04.461',1425.642
'0:04.465',1453.481
'0:04.469',1474.732
'0:04.473',1451.299
'0:04.477',1444.709
'0:04.480',1425.642
'0:04.484',1457.888
'0:04.488',1473.991
'0:04.492',1438.079
'0:04.496',1434.455
'0:04.500',1418.311
'0:04.504',1414.646
'0:04.508',1454.223
'0:04.512',1431.490
'0:04.516',1430.789
'0:04.520',1409.539
'0:04.523',1394.136
'0:04.527',1423.459
'0:04.531',1441.744
'0:04.535',1441.044
'0:04.539',1420.535
'0:04.543',1410.980
'0:04.547',1410.239
'0:04.551',1444.709
'0:04.555',1450.557
'0:04.559',1446.151
'0:04.563',1430.048
'0:04.566',1416.869
'0:04.570',1423.459
'0:04.574',1472.549
'0:04.578',1458.629
'0:04.582',1443.968
'0:04.586',1443.227
'0:04.590',1498.165
'0:04.594',1494.500
'0:04.598',1458.629
'0:04.602',1487.169
'0:04.605',1467.401
'0:04.609',1506.237
'0:04.613',1471.067
'0:04.617',1489.393
'0:04.621',1483.504
'0:04.625',1471.808
'0:04.629',1490.835
'0:04.633',1484.245
'0:04.637',1465.919
'0:04.641',1460.071
'0:04.645',1494.500
'0:04.648',1457.888
'0:04.652',1452.740
'0:04.656',1441.744
'0:04.660',1424.900
'0:04.664',1415.387
'0:04.668',1406.615
'0:04.672',1415.387
'0:04.676',1441.744
'0:04.680',1413.904
'0:04.684',1403.650
'0:04.688',1410.980
'0:04.691',1390.471
'0:04.695',1385.364
'0:04.699',1389.730
'0:04.703',1415.387
'0:04.707',1376.551
'0:04.711',1383.882
'0:04.715',1378.775
'0:04.719',1383.882
'0:04.723',1372.144
'0:04.727',1375.810
'0:04.730',1419.052
'0:04.734',1406.615
'0:04.738',1421.976
'0:04.742',1402.208
'0:04.746',1365.555
'0:04.750',1404.391
'0:04.754',1379.475
'0:04.758',1369.962
'0:04.762',1376.551
'0:04.766',1381.699
'0:04.770',1365.555
'0:04.773',1350.935
'0:04.777',1353.859
'0:04.781',1346.528
'0:04.785',1290.107
'0:04.789',1309.875
'0:04.793',1326.760
'0:04.797',1280.594
'0:04.801',1267.415
'0:04.805',1284.259
'0:04.809',1306.951
'0:04.813',1257.861
'0:04.816',1285.701
'0:04.820',1293.031
'0:04.824',1288.666
'0:04.828',1260.826
'0:04.832',1309.875
'0:04.836',1267.415
'0:04.840',1296.697
'0:04.844',1321.613
'0:04.848',1281.335
'0:04.852',1323.095
'0:04.855',1297.438
'0:04.859',1306.210
'0:04.863',1328.202
'0:04.867',1295.255
'0:04.871',1337.715
'0:04.875',1320.130
'0:04.879',1347.270
'0:04.883',1350.935
'0:04.887',1342.122
'0:04.891',1361.890
'0:04.895',1371.444
'0:04.898',1350.935
'0:04.902',1358.225
'0:04.906',1369.220
'0:04.910',1377.292
'0:04.914',1389.030
'0:04.918',1352.376
'0:04.922',1336.274
'0:04.926',1354.600
'0:04.930',1347.270
'0:04.934',1339.939
'0:04.938',1380.216
'0:04.941',1357.524
'0:04.945',1323.795
'0:04.949',1338.457
'0:04.953',1361.890
'0:04.957',1311.358
'0:04.961',1352.376
'0:04.965',1334.791
'0:04.969',1306.210
'0:04.973',1340.680
'0:04.977',1350.194
'0:04.980',1298.179
'0:04.984',1308.434
'0:04.988',1339.939
'0:04.992',1291.590
'0:04.996',1290.849
'0:05.000',1314.282
'0:05.004',1331.867
'0:05.008',1310.617
'0:05.012',1271.781
'0:05.016',1313.541
'0:05.020',1315.023
'0:05.023',1268.115
'0:05.027',1306.210
'0:05.031',1254.196
'0:05.035',1269.598
'0:05.039',1289.366
'0:05.043',1273.263
'0:05.047',1257.861
'0:05.051',1242.499
'0:05.055',1224.173
'0:05.059',1271.081
'0:05.063',1227.838
'0:05.066',1210.994
'0:05.070',1249.089
'0:05.074',1244.682
'0:05.078',1229.321
'0:05.082',1233.686
'0:05.086',1241.017
'0:05.090',1256.419
'0:05.094',1246.906
'0:05.098',1242.499
'0:05.102',1211.736
'0:05.105',1238.093
'0:05.109',1247.606
'0:05.113',1220.508
'0:05.117',1260.085
'0:05.121',1274.746
'0:05.125',1243.941
'0:05.129',1303.286
'0:05.133',1313.541
'0:05.137',1292.290
'0:05.141',1292.290
'0:05.145',1336.274
'0:05.148',1355.300
'0:05.152',1331.867
'0:05.156',1359.707
'0:05.160',1382.399
'0:05.164',1372.886
'0:05.168',1403.650
'0:05.172',1367.038
'0:05.176',1397.060
'0:05.180',1425.642
'0:05.184',1424.900
'0:05.188',1423.459
'0:05.191',1417.570
'0:05.195',1380.216
'0:05.199',1419.052
'0:05.203',1424.900
'0:05.207',1375.110
'0:05.211',1365.555
'0:05.215',1377.292
'0:05.219',1394.136
'0:05.223',1393.395
'0:05.227',1404.391
'0:05.230',1365.555
'0:05.234',1389.030
'0:05.238',1411.722
'0:05.242',1408.798
'0:05.246',1404.391
'0:05.250',1421.976
'0:05.254',1430.048
'0:05.258',1447.633
'0:05.262',1441.744
'0:05.266',1438.820
'0:05.270',1448.334
'0:05.273',1467.401
'0:05.277',1512.085
'0:05.281',1500.348
'0:05.285',1513.568
'0:05.289',1500.348
'0:05.293',1507.679
'0:05.297',1512.827
'0:05.301',1539.925
'0:05.305',1521.599
'0:05.309',1501.831
'0:05.313',1512.827
'0:05.316',1544.332
'0:05.320',1493.759
'0:05.324',1531.853
'0:05.328',1495.983
'0:05.332',1484.245
'0:05.336',1528.188
'0:05.340',1500.348
'0:05.344',1471.067
'0:05.348',1466.660
'0:05.352',1469.584
'0:05.355',1503.313
'0:05.359',1461.553
'0:05.363',1456.405
'0:05.367',1438.079
'0:05.371',1447.633
'0:05.375',1476.915
'0:05.379',1451.999
'0:05.383',1470.325
'0:05.387',1464.477
'0:05.391',1460.071
'0:05.395',1412.463
'0:05.398',1412.463
'0:05.402',1433.713
'0:05.406',1415.387
'0:05.410',1419.794
'0:05.414',1443.968
'0:05.418',1407.315
'0:05.422',1434.455
'0:05.426',1460.812
'0:05.430',1421.235
'0:05.434',1413.904
'0:05.438',1417.570
'0:05.441',1422.718
'0:05.445',1424.159
'0:05.449',1441.044
'0:05.453',1426.383
'0:05.457',1430.048
'0:05.461',1451.299
'0:05.465',1441.744
'0:05.469',1433.713
'0:05.473',1439.561
'0:05.477',1446.892
'0:05.480',1445.410
'0:05.484',1449.075
'0:05.488',1464.477
'0:05.492',1463.736
'0:05.496',1448.334
'0:05.500',1460.812
'0:05.504',1460.812
'0:05.508',1464.477
'0:05.512',1483.504
'0:05.516',1481.321
'0:05.520',1482.804
'0:05.523',1478.397
'0:05.527',1478.397
'0:05.531',1460.071
'0:05.535',1429.307
'0:05.539',1421.235
'0:05.543',1420.535
'0:05.547',1420.535
'0:05.551',1468.884
'0:05.555',1448.334
'0:05.559',1427.824
'0:05.563',1421.976
'0:05.566',1423.459
'0:05.570',1429.307
'0:05.574',1421.976
'0:05.578',1424.900
'0:05.582',1439.561
'0:05.586',1465.919
'0:05.590',1478.397
'0:05.594',1444.709
'0:05.598',1490.093
'0:05.602',1447.633
'0:05.605',1497.424
'0:05.609',1501.831
'0:05.613',1455.664
'0:05.617',1507.679
'0:05.621',1476.173
'0:05.625',1496.724
'0:05.629',1471.067
'0:05.633',1475.473
'0:05.637',1513.568
'0:05.641',1493.059
'0:05.645',1482.063
'0:05.648',1468.884
'0:05.652',1462.253
'0:05.656',1457.147
'0:05.660',1456.405
'0:05.664',1449.816
'0:05.668',1493.059
'0:05.672',1474.732
'0:05.676',1450.557
'0:05.680',1429.307
'0:05.684',1424.900
'0:05.688',1424.159
'0:05.691',1447.633
'0:05.695',1435.155
'0:05.699',1399.284
'0:05.703',1390.471
'0:05.707',1406.615
'0:05.711',1391.212
'0:05.715',1378.034
'0:05.719',1390.471
'0:05.723',1402.208
'0:05.727',1367.779
'0:05.730',1348.711
'0:05.734',1335.533
'0:05.738',1354.600
'0:05.742',1376.551
'0:05.746',1323.795
'0:05.750',1348.711
'0:05.754',1331.126
'0:05.758',1331.126
'0:05.762',1329.684
'0:05.766',1353.859
'0:05.770',1331.126
'0:05.773',1364.114
'0:05.777',1391.212
'0:05.781',1342.863
'0:05.785',1361.190
'0:05.789',1399.284
'0:05.793',1350.935
'0:05.797',1388.288
'0:05.801',1394.136
'0:05.805',1391.212
'0:05.809',1358.966
'0:05.813',1348.711
'0:05.816',1348.711
'0:05.820',1369.220
'0:05.824',1390.471
'0:05.828',1332.609
'0:05.832',1370.703
'0:05.836',1370.703
'0:05.840',1314.282
'0:05.844',1324.537
'0:05.848',1351.635
'0:05.852',1293.773
'0:05.855',1312.841
'0:05.859',1330.385
'0:05.863',1313.541
'0:05.867',1290.107
'0:05.871',1311.358
'0:05.875',1285.701
'0:05.879',1277.670
'0:05.883',1299.621
'0:05.887',1300.362
'0:05.891',1252.754
'0:05.895',1303.286
'0:05.898',1307.693
'0:05.902',1285.701
'0:05.906',1287.183
'0:05.910',1287.183
'0:05.914',1291.590
'0:05.918',1288.666
'0:05.922',1321.613
'0:05.926',1359.707
'0:05.930',1331.867
'0:05.934',1349.452
'0:05.938',1378.775
'0:05.941',1393.395
'0:05.945',1403.650
'0:05.949',1397.802
'0:05.953',1417.570
'0:05.957',1427.124
'0:05.961',1417.570
'0:05.965',1437.379
'0:05.969',1436.637
'0:05.973',1435.155
'0:05.977',1438.820
'0:05.980',1421.976
'0:05.984',1424.900
'0:05.988',1430.789
'0:05.992',1415.387
'0:05.996',1424.900
'0:06.000',1388.288
'0:06.004',1397.802
'0:06.008',1408.056
'0:06.012',1402.208
'0:06.016',1383.882
'0:06.020',1337.015
'0:06.023',1356.042
'0:06.027',1367.038
'0:06.031',1331.126
'0:06.035',1337.715
'0:06.039',1306.210
'0:06.043',1320.871
'0:06.047',1310.617
'0:06.051',1309.875
'0:06.055',1284.259
'0:06.059',1276.187
'0:06.063',1281.335
'0:06.066',1306.210
'0:06.070',1273.263
'0:06.074',1252.754
'0:06.078',1289.366
'0:06.082',1277.670
'0:06.086',1248.348
'0:06.090',1244.682
'0:06.094',1222.732
'0:06.098',1254.937
'0:06.102',1260.085
'0:06.105',1235.169
'0:06.109',1234.428
'0:06.113',1224.173
'0:06.117',1247.606
'0:06.121',1228.580
'0:06.125',1233.686
'0:06.129',1266.674
'0:06.133',1249.089
'0:06.137',1255.678
'0:06.141',1242.499
'0:06.145',1222.732
'0:06.148',1275.446
'0:06.152',1230.762
'0:06.156',1254.937
'0:06.160',1256.419
'0:06.164',1233.686
'0:06.168',1279.853
'0:06.172',1268.857
'0:06.176',1238.093
'0:06.180',1262.267
'0:06.184',1286.442
'0:06.188',1268.857
'0:06.191',1296.697
'0:06.195',1309.175
'0:06.199',1277.670
'0:06.203',1287.183
'0:06.207',1295.255
'0:06.211',1303.286
'0:06.215',1315.023
'0:06.219',1327.461
'0:06.223',1331.126
'0:06.227',1342.863
'0:06.230',1346.528
'0:06.234',1365.555
'0:06.238',1397.802
'0:06.242',1367.038
'0:06.246',1388.288
'0:06.250',1414.646
'0:06.254',1405.874
'0:06.258',1414.646
'0:06.262',1432.231
'0:06.266',1441.044
'0:06.270',1436.637
'0:06.273',1402.208
'0:06.277',1415.387
'0:06.281',1433.713
'0:06.285',1454.223
'0:06.289',1465.919
'0:06.293',1443.968
'0:06.297',1447.633
'0:06.301',1457.147
'0:06.305',1476.173
'0:06.309',1510.644
'0:06.313',1528.929
'0:06.316',1496.724
'0:06.320',1507.679
'0:06.324',1562.658
'0:06.328',1532.595
'0:06.332',1551.662
'0:06.336',1559.693
'0:06.340',1537.001
'0:06.344',1575.096
'0:06.348',1541.408
'0:06.352',1567.765
'0:06.355',1544.332
'0:06.359',1553.104
'0:06.363',1567.024
'0:06.367',1534.818
'0:06.371',1547.997
'0:06.375',1553.845
'0:06.379',1516.492
'0:06.383',1492.317
'0:06.387',1504.755
'0:06.391',1517.233
'0:06.395',1474.732
'0:06.398',1468.884
'0:06.402',1484.987
'0:06.406',1451.999
'0:06.410',1452.740
'0:06.414',1435.155
'0:06.418',1427.124
'0:06.422',1421.235
'0:06.426',1413.904
'0:06.430',1382.399
'0:06.434',1377.292
'0:06.438',1375.810
'0:06.441',1389.030
'0:06.445',1413.904
'0:06.449',1373.627
'0:06.453',1387.547
'0:06.457',1417.570
'0:06.461',1381.699
'0:06.465',1389.030
'0:06.469',1441.744
'0:06.473',1429.307
'0:06.477',1417.570
'0:06.480',1458.629
'0:06.484',1461.553
'0:06.488',1422.718
'0:06.492',1442.485
'0:06.496',1473.991
'0:06.500',1479.839
'0:06.504',1466.660
'0:06.508',1449.075
'0:06.512',1455.664
'0:06.516',1473.249
'0:06.520',1495.241
'0:06.523',1499.648
'0:06.527',1456.405
'0:06.531',1472.549
'0:06.535',1463.736
'0:06.539',1464.477
'0:06.543',1448.334
'0:06.547',1442.485
'0:06.551',1439.561
'0:06.555',1460.812
'0:06.559',1451.999
'0:06.563',1463.736
'0:06.566',1460.071
'0:06.570',1424.159
'0:06.574',1424.159
'0:06.578',1435.155
'0:06.582',1443.968
'0:06.586',1445.410
'0:06.590',1445.410
'0:06.594',1460.812
'0:06.598',1454.223
'0:06.602',1451.999
'0:06.605',1405.874
'0:06.609',1408.056
'0:06.613',1432.231
'0:06.617',1437.379
'0:06.621',1443.227
'0:06.625',1400.726
'0:06.629',1397.060
'0:06.633',1423.459
'0:06.637',1445.410
'0:06.641',1419.052
'0:06.645',1409.539
'0:06.648',1424.159
'0:06.652',1451.999
'0:06.656',1460.812
'0:06.660',1462.995
'0:06.664',1462.253
'0:06.668',1453.481
'0:06.672',1453.481
'0:06.676',1470.325
'0:06.680',1457.147
'0:06.684',1450.557
'0:06.688',1462.253
'0:06.691',1479.139
'0:06.695',1492.317
'0:06.699',1460.812
'0:06.703',1454.964
'0:06.707',1464.477
'0:06.711',1454.223
'0:06.715',1467.401
'0:06.719',1502.572
'0:06.723',1504.755
'0:06.727',1507.679
'0:06.730',1483.504
'0:06.734',1469.584
'0:06.738',1465.219
'0:06.742',1470.325
'0:06.746',1507.679
'0:06.750',1481.321
'0:06.754',1462.253
'0:06.758',1468.143
'0:06.762',1470.325
'0:06.766',1457.147
'0:06.770',1435.896
'0:06.773',1447.633
'0:06.777',1443.227
'0:06.781',1442.485
'0:06.785',1430.789
'0:06.789',1412.463
'0:06.793',1391.954
'0:06.797',1381.699
'0:06.801',1400.726
'0:06.805',1380.216
'0:06.809',1356.783
'0:06.813',1369.962
'0:06.816',1344.305
'0:06.820',1358.966
'0:06.824',1375.110
'0:06.828',1389.030
'0:06.832',1381.699
'0:06.836',1383.882
'0:06.840',1389.030
'0:06.844',1361.190
'0:06.848',1374.368
'0:06.852',1344.305
'0:06.855',1356.783
'0:06.859',1389.030
'0:06.863',1345.046
'0:06.867',1358.225
'0:06.871',1383.140
'0:06.875',1329.684
'0:06.879',1337.715
'0:06.883',1375.110
'0:06.887',1323.795
'0:06.891',1353.859
'0:06.895',1326.019
'0:06.898',1309.875
'0:06.902',1336.274
'0:06.906',1297.438
'0:06.910',1324.537
'0:06.914',1321.613
'0:06.918',1310.617
'0:06.922',1319.430
'0:06.926',1316.506
'0:06.930',1319.430
'0:06.934',1311.358
'0:06.938',1323.795
'0:06.941',1339.939
'0:06.945',1293.773
'0:06.949',1309.875
'0:06.953',1334.050
'0:06.957',1341.381
'0:06.961',1353.859
'0:06.965',1334.050
'0:06.969',1315.023
'0:06.973',1353.118
'0:06.977',1347.270
'0:06.980',1333.350
'0:06.984',1346.528
'0:06.988',1368.520
'0:06.992',1389.030
'0:06.996',1407.315
'0:07.000',1407.315
'0:07.004',1424.900
'0:07.008',1382.399
'0:07.012',1424.159
'0:07.016',1438.079
'0:07.020',1432.972
'0:07.023',1439.561
'0:07.027',1427.124
'0:07.031',1398.543
'0:07.035',1402.950
'0:07.039',1442.485
'0:07.043',1389.030
'0:07.047',1419.794
'0:07.051',1411.722
'0:07.055',1376.551
'0:07.059',1416.128
'0:07.063',1380.216
'0:07.066',1379.475
'0:07.070',1383.140
'0:07.074',1400.726
'0:07.078',1356.042
'0:07.082',1353.859
'0:07.086',1358.966
'0:07.090',1369.220
'0:07.094',1351.635
'0:07.098',1318.689
'0:07.102',1367.038
'0:07.105',1315.023
'0:07.109',1357.524
'0:07.113',1315.023
'0:07.117',1321.613
'0:07.121',1293.031
'0:07.125',1329.684
'0:07.129',1294.514
'0:07.133',1287.183
'0:07.137',1272.522
'0:07.141',1315.765
'0:07.145',1288.666
'0:07.148',1254.196
'0:07.152',1297.438
'0:07.156',1282.035
'0:07.160',1266.674
'0:07.164',1257.161
'0:07.168',1239.575
'0:07.172',1260.085
'0:07.176',1274.746
'0:07.180',1235.169
'0:07.184',1262.267
'0:07.188',1280.594
'0:07.191',1249.089
'0:07.195',1270.339
'0:07.199',1282.777
'0:07.203',1254.196
'0:07.207',1252.013
'0:07.211',1277.670
'0:07.215',1260.085
'0:07.219',1263.750
'0:07.223',1308.434
'0:07.227',1300.362
'0:07.230',1295.255
'0:07.234',1294.514
'0:07.238',1287.183
'0:07.242',1345.046
'0:07.246',1325.278
'0:07.250',1363.372
'0:07.254',1320.130
'0:07.258',1336.274
'0:07.262',1353.859
'0:07.266',1392.695
'0:07.270',1399.284
'0:07.273',1396.319
'0:07.277',1360.448
'0:07.281',1360.448
'0:07.285',1363.372
'0:07.289',1363.372
'0:07.293',1364.855
'0:07.297',1381.699
'0:07.301',1398.543
'0:07.305',1388.288
'0:07.309',1369.220
'0:07.313',1355.300
'0:07.316',1349.452
'0:07.320',1361.190
'0:07.324',1353.859
'0:07.328',1360.448
'0:07.332',1358.966
'0:07.336',1359.707
'0:07.340',1361.190
'0:07.344',1368.520
'0:07.348',1405.132
'0:07.352',1432.231
'0:07.355',1422.718
'0:07.359',1430.048
'0:07.363',1417.570
'0:07.367',1479.839
'0:07.371',1457.888
'0:07.375',1453.481
'0:07.379',1490.093
'0:07.383',1504.755
'0:07.387',1493.759
'0:07.391',1541.408
'0:07.395',1515.009
'0:07.398',1519.416
'0:07.402',1538.484
'0:07.406',1570.689
'0:07.410',1523.822
'0:07.414',1548.738
'0:07.418',1556.028
'0:07.422',1522.340
'0:07.426',1537.001
'0:07.430',1526.746
'0:07.434',1520.898
'0:07.438',1523.822
'0:07.441',1493.759
'0:07.445',1517.233
'0:07.449',1470.325
'0:07.453',1475.473
'0:07.457',1500.348
'0:07.461',1469.584
'0:07.465',1430.789
'0:07.469',1465.219
'0:07.473',1413.204
'0:07.477',1453.481
'0:07.480',1419.794
'0:07.484',1427.124
'0:07.488',1431.490
'0:07.492',1399.284
'0:07.496',1411.722
'0:07.500',1434.455
'0:07.504',1403.650
'0:07.508',1408.798
'0:07.512',1426.383
'0:07.516',1456.405
'0:07.520',1453.481
'0:07.523',1449.075
'0:07.527',1435.896
'0:07.531',1441.044
'0:07.535',1443.968
'0:07.539',1447.633
'0:07.543',1454.964
'0:07.547',1441.744
'0:07.551',1468.143
'0:07.555',1456.405
'0:07.559',1451.999
'0:07.563',1459.329
'0:07.566',1465.919
'0:07.570',1505.496
'0:07.574',1470.325
'0:07.578',1459.329
'0:07.582',1455.664
'0:07.586',1457.888
'0:07.590',1450.557
'0:07.594',1461.553
'0:07.598',1454.223
'0:07.602',1438.820
'0:07.605',1437.379
'0:07.609',1432.972
'0:07.613',1434.455
'0:07.617',1438.820
'0:07.621',1435.155
'0:07.625',1432.972
'0:07.629',1455.664
'0:07.633',1450.557
'0:07.637',1413.204
'0:07.641',1398.543
'0:07.645',1413.904
'0:07.648',1383.882
'0:07.652',1412.463
'0:07.656',1429.307
'0:07.660',1377.292
'0:07.664',1395.619
'0:07.668',1415.387
'0:07.672',1395.619
'0:07.676',1385.364
'0:07.680',1427.824
'0:07.684',1441.744
'0:07.688',1440.303
'0:07.691',1424.159
'0:07.695',1406.615
'0:07.699',1427.124
'0:07.703',1463.736
'0:07.707',1468.143
'0:07.711',1465.219
'0:07.715',1449.075
'0:07.719',1470.325
'0:07.723',1476.173
'0:07.727',1450.557
'0:07.730',1485.728
'0:07.734',1474.732
'0:07.738',1455.664
'0:07.742',1501.831
'0:07.746',1465.919
'0:07.750',1507.679
'0:07.754',1479.139
'0:07.758',1504.013
'0:07.762',1463.736
'0:07.766',1514.268
'0:07.770',1470.325
'0:07.773',1476.173
'0:07.777',1484.245
'0:07.781',1479.839
'0:07.785',1512.085
'0:07.789',1482.063
'0:07.793',1457.888
'0:07.797',1485.728
'0:07.801',1462.995
'0:07.805',1465.919
'0:07.809',1441.044
'0:07.813',1483.504
'0:07.816',1447.633
'0:07.820',1422.718
'0:07.824',1455.664
'0:07.828',1435.155
'0:07.832',1410.239
'0:07.836',1418.311
'0:07.840',1451.999
'0:07.844',1434.455
'0:07.848',1398.543
'0:07.852',1399.984
'0:07.855',1434.455
'0:07.859',1410.239
'0:07.863',1389.030
'0:07.867',1383.140
'0:07.871',1378.034
'0:07.875',1372.886
'0:07.879',1368.520
'0:07.883',1365.555
'0:07.887',1375.110
'0:07.891',1379.475
'0:07.895',1403.650
'0:07.898',1347.970
'0:07.902',1356.042
'0:07.906',1364.114
'0:07.910',1368.520
'0:07.914',1326.019
'0:07.918',1304.769
'0:07.922',1350.194
'0:07.926',1316.506
'0:07.930',1298.921
'0:07.934',1327.461
'0:07.938',1300.362
'0:07.941',1272.522
'0:07.945',1276.929
'0:07.949',1296.697
'0:07.953',1253.495
'0:07.957',1287.183
'0:07.961',1266.674
'0:07.965',1243.941
'0:07.969',1265.933
'0:07.973',1241.017
'0:07.977',1292.290
'0:07.980',1258.602
'0:07.984',1241.758
'0:07.988',1294.514
'0:07.992',1260.085
'0:07.996',1294.514
'0:08.000',1289.366
'0:08.004',1266.674
'0:08.008',1288.666
'0:08.012',1323.795
'0:08.016',1342.122
'0:08.020',1350.194
'0:08.023',1347.270
'0:08.027',1326.019
'0:08.031',1342.863
'0:08.035',1345.787
'0:08.039',1365.555
'0:08.043',1374.368
'0:08.047',1380.216
'0:08.051',1383.882
'0:08.055',1437.379
'0:08.059',1416.869
'0:08.063',1401.467
'0:08.066',1446.151
'0:08.070',1419.052
'0:08.074',1431.490
'0:08.078',1413.904
'0:08.082',1413.904
'0:08.086',1402.208
'0:08.090',1402.950
'0:08.094',1402.950
'0:08.098',1422.718
'0:08.102',1421.235
'0:08.105',1390.471
'0:08.109',1378.775
'0:08.113',1367.779
'0:08.117',1365.555
'0:08.121',1402.950
'0:08.125',1396.319
'0:08.129',1397.060
'0:08.133',1391.954
'0:08.137',1389.030
'0:08.141',1375.810
'0:08.145',1381.699
'0:08.148',1376.551
'0:08.152',1355.300
'0:08.156',1337.715
'0:08.160',1346.528
'0:08.164',1364.855
'0:08.168',1353.118
'0:08.172',1342.122
'0:08.176',1330.385
'0:08.180',1335.533
'0:08.184',1355.300
'0:08.188',1357.524
'0:08.191',1355.300
'0:08.195',1356.783
'0:08.199',1306.210
'0:08.203',1306.951
'0:08.207',1337.715
'0:08.211',1304.769
'0:08.215',1323.095
'0:08.219',1331.126
'0:08.223',1305.510
'0:08.227',1304.769
'0:08.230',1324.537
'0:08.234',1290.107
'0:08.238',1318.689
'0:08.242',1288.666
'0:08.246',1284.259
'0:08.250',1275.446
'0:08.254',1256.419
'0:08.258',1265.933
'0:08.262',1272.522
'0:08.266',1279.853
'0:08.270',1258.602
'0:08.273',1230.021
'0:08.277',1260.826
'0:08.281',1221.249
'0:08.285',1209.512
'0:08.289',1205.146
'0:08.293',1202.181
'0:08.297',1229.321
'0:08.301',1246.906
'0:08.305',1215.401
'0:08.309',1213.177
'0:08.313',1228.580
'0:08.316',1268.115
'0:08.320',1230.021
'0:08.324',1282.777
'0:08.328',1256.419
'0:08.332',1279.853
'0:08.336',1309.875
'0:08.340',1269.598
'0:08.344',1289.366
'0:08.348',1319.430
'0:08.352',1293.031
'0:08.355',1295.955
'0:08.359',1318.689
'0:08.363',1347.970
'0:08.367',1358.966
'0:08.371',1375.110
'0:08.375',1356.042
'0:08.379',1340.680
'0:08.383',1391.954
'0:08.387',1367.038
'0:08.391',1364.855
'0:08.395',1383.140
'0:08.398',1430.789
'0:08.402',1438.820
'0:08.406',1424.900
'0:08.410',1417.570
'0:08.414',1431.490
'0:08.418',1486.469
'0:08.422',1476.915
'0:08.426',1492.317
'0:08.430',1493.059
'0:08.434',1509.903
'0:08.438',1528.188
'0:08.441',1524.564
'0:08.445',1550.921
'0:08.449',1542.849
'0:08.453',1549.438
'0:08.457',1553.845
'0:08.461',1560.434
'0:08.465',1570.689
'0:08.469',1579.502
'0:08.473',1566.282
'0:08.477',1554.586
'0:08.480',1556.769
'0:08.484',1546.514
'0:08.488',1547.256
'0:08.492',1547.997
'0:08.496',1552.404
'0:08.500',1551.662
'0:08.504',1550.921
'0:08.508',1540.666
'0:08.512',1515.751
'0:08.516',1487.169
'0:08.520',1486.469
'0:08.523',1454.223
'0:08.527',1485.728
'0:08.531',1441.044
'0:08.535',1454.964
'0:08.539',1437.379
'0:08.543',1403.650
'0:08.547',1438.820
'0:08.551',1416.128
'0:08.555',1389.030
'0:08.559',1411.722
'0:08.563',1412.463
'0:08.566',1426.383
'0:08.570',1399.984
'0:08.574',1427.124
'0:08.578',1435.896
'0:08.582',1399.284
'0:08.586',1435.155
'0:08.590',1443.968
'0:08.594',1437.379
'0:08.598',1419.052
'0:08.602',1410.980
'0:08.605',1422.718
'0:08.609',1448.334
'0:08.613',1436.637
'0:08.617',1431.490
'0:08.621',1457.888
'0:08.625',1445.410
'0:08.629',1449.075
'0:08.633',1436.637
'0:08.637',1478.397
'0:08.641',1443.227
'0:08.645',1471.067
'0:08.648',1438.079
'0:08.652',1443.227
'0:08.656',1477.656
'0:08.660',1439.561
'0:08.664',1438.820
'0:08.668',1450.557
'0:08.672',1436.637
'0:08.676',1455.664
'0:08.680',1443.968
'0:08.684',1422.718
'0:08.688',1472.549
'0:08.691',1438.820
'0:08.695',1416.869
'0:08.699',1427.124
'0:08.703',1456.405
'0:08.707',1425.642
'0:08.711',1408.056
'0:08.715',1408.798
'0:08.719',1436.637
'0:08.723',1460.812
'0:08.727',1459.329
'0:08.730',1457.147
'0:08.734',1427.824
'0:08.738',1462.253
'0:08.742',1466.660
'0:08.746',1453.481
'0:08.750',1440.303
'0:08.754',1435.155
'0:08.758',1476.173
'0:08.762',1480.580
'0:08.766',1446.892
'0:08.770',1473.991
'0:08.773',1506.237
'0:08.777',1461.553
'0:08.781',1515.009
'0:08.785',1489.393
'0:08.789',1467.401
'0:08.793',1519.416
'0:08.797',1494.500
'0:08.801',1474.732
'0:08.805',1512.827
'0:08.809',1464.477
'0:08.813',1495.241
'0:08.816',1486.469
'0:08.820',1469.584
'0:08.824',1446.892
'0:08.828',1487.169
'0:08.832',1438.820
'0:08.836',1477.656
'0:08.840',1427.824
'0:08.844',1465.219
'0:08.848',1411.722
'0:08.852',1425.642
'0:08.855',1446.892
'0:08.859',1397.060
'0:08.863',1418.311
'0:08.867',1377.292
'0:08.871',1424.159
'0:08.875',1418.311
'0:08.879',1396.319
'0:08.883',1369.962
'0:08.887',1361.190
'0:08.891',1361.190
'0:08.895',1348.711
'0:08.898',1345.787
'0:08.902',1364.114
'0:08.906',1386.064
'0:08.910',1365.555
'0:08.914',1366.296
'0:08.918',1364.855
'0:08.922',1367.038
'0:08.926',1352.376
'0:08.930',1354.600
'0:08.934',1360.448
'0:08.938',1413.204
'0:08.941',1400.726
'0:08.945',1384.623
'0:08.949',1379.475
'0:08.953',1386.806
'0:08.957',1405.132
'0:08.961',1374.368
'0:08.965',1420.535
'0:08.969',1410.980
'0:08.973',1417.570
'0:08.977',1416.869
'0:08.980',1396.319
'0:08.984',1395.619
'0:08.988',1372.886
'0:08.992',1367.779
'0:08.996',1338.457
'0:09.000',1342.863
'0:09.004',1345.787
'0:09.008',1350.935
'0:09.012',1299.621
'0:09.016',1300.362
'0:09.020',1334.050
'0:09.023',1282.777
'0:09.027',1309.175
'0:09.031',1324.537
'0:09.035',1290.849
'0:09.039',1326.760
'0:09.043',1275.446
'0:09.047',1325.278
'0:09.051',1282.777
'0:09.055',1327.461
'0:09.059',1296.697
'0:09.063',1295.255
'0:09.066',1334.791
'0:09.070',1303.286
'0:09.074',1302.586
'0:09.078',1306.951
'0:09.082',1330.385
'0:09.086',1349.452
'0:09.090',1358.966
'0:09.094',1359.707
'0:09.098',1358.225
'0:09.102',1362.631
'0:09.105',1370.703
'0:09.109',1361.890
'0:09.113',1375.810
'0:09.117',1394.878
'0:09.121',1385.364
'0:09.125',1396.319
'0:09.129',1385.364
'0:09.133',1399.984
'0:09.137',1401.467
'0:09.141',1416.869
'0:09.145',1400.726
'0:09.148',1384.623
'0:09.152',1394.136
'0:09.156',1385.364
'0:09.160',1403.650
'0:09.164',1379.475
'0:09.168',1389.730
'0:09.172',1399.284
'0:09.176',1410.239
'0:09.180',1408.798
'0:09.184',1400.726
'0:09.188',1402.208
'0:09.191',1353.859
'0:09.195',1369.962
'0:09.199',1391.954
'0:09.203',1339.939
'0:09.207',1337.015
'0:09.211',1356.042
'0:09.215',1358.966
'0:09.219',1334.791
'0:09.223',1371.444
'0:09.227',1325.278
'0:09.230',1351.635
'0:09.234',1345.046
'0:09.238',1333.350
'0:09.242',1332.609
'0:09.246',1328.202
'0:09.250',1309.875
'0:09.254',1342.122
'0:09.258',1306.951
'0:09.262',1335.533
'0:09.266',1294.514
'0:09.270',1268.115
'0:09.273',1314.282
'0:09.277',1287.925
'0:09.281',1260.826
'0:09.285',1248.348
'0:09.289',1283.518
'0:09.293',1246.165
'0:09.297',1257.161
'0:09.301',1258.602
'0:09.305',1221.990
'0:09.309',1211.736
'0:09.313',1244.682
'0:09.316',1227.097
'0:09.320',1211.736
'0:09.324',1195.592
'0:09.328',1239.575
'0:09.332',1245.424
'0:09.336',1246.165
'0:09.340',1233.686
'0:09.344',1246.906
'0:09.348',1233.686
'0:09.352',1238.834
'0:09.355',1230.762
'0:09.359',1267.415
'0:09.363',1297.438
'0:09.367',1279.111
'0:09.371',1305.510
'0:09.375',1339.939
'0:09.379',1323.095
'0:09.383',1317.947
'0:09.387',1349.452
'0:09.391',1386.064
'0:09.395',1358.966
'0:09.398',1366.296
'0:09.402',1394.878
'0:09.406',1405.874
'0:09.410',1420.535
'0:09.414',1421.976
'0:09.418',1422.718
'0:09.422',1432.231
'0:09.426',1428.566
'0:09.430',1430.789
'0:09.434',1440.303
'0:09.438',1443.227
'0:09.441',1444.709
'0:09.445',1479.139
'0:09.449',1495.241
'0:09.453',1476.915
'0:09.457',1465.219
'0:09.461',1511.344
'0:09.465',1490.835
'0:09.469',1545.073
'0:09.473',1507.679
'0:09.477',1552.404
'0:09.480',1531.853
'0:09.484',1574.354
'0:09.488',1547.256
'0:09.492',1575.837
'0:09.496',1556.769
'0:09.500',1585.350
'0:09.504',1563.358
'0:09.508',1604.418
'0:09.512',1566.282
'0:09.516',1608.042
'0:09.520',1565.582
'0:09.523',1592.681
'0:09.527',1583.168
'0:09.531',1561.917
'0:09.535',1573.613
'0:09.539',1573.613
'0:09.543',1537.742
'0:09.547',1543.590
'0:09.551',1558.252
'0:09.555',1526.005
'0:09.559',1516.492
'0:09.563',1495.241
'0:09.566',1476.915
'0:09.570',1510.644
'0:09.574',1478.397
'0:09.578',1448.334
'0:09.582',1451.999
'0:09.586',1479.139
'0:09.590',1466.660
'0:09.594',1433.713
'0:09.598',1423.459
'0:09.602',1405.874
'0:09.605',1438.079
'0:09.609',1446.892
'0:09.613',1435.896
'0:09.617',1435.155
'0:09.621',1441.744
'0:09.625',1446.892
'0:09.629',1444.709
'0:09.633',1432.972
'0:09.637',1429.307
'0:09.641',1427.124
'0:09.645',1428.566
'0:09.648',1415.387
'0:09.652',1416.869
'0:09.656',1441.744
'0:09.660',1446.151
'0:09.664',1424.900
'0:09.668',1468.143
'0:09.672',1459.329
'0:09.676',1426.383
'0:09.680',1469.584
'0:09.684',1468.884
'0:09.688',1457.147
'0:09.691',1440.303
'0:09.695',1462.253
'0:09.699',1465.219
'0:09.703',1476.915
'0:09.707',1423.459
'0:09.711',1425.642
'0:09.715',1441.744
'0:09.719',1460.812
'0:09.723',1465.919
'0:09.727',1432.972
'0:09.730',1414.646
'0:09.734',1424.900
'0:09.738',1454.964
'0:09.742',1430.789
'0:09.746',1417.570
'0:09.750',1435.155
'0:09.754',1438.079
'0:09.758',1426.383
'0:09.762',1422.718
'0:09.766',1403.650
'0:09.770',1394.136
'0:09.773',1430.789
'0:09.777',1443.968
'0:09.781',1413.204
'0:09.785',1399.284
'0:09.789',1423.459
'0:09.793',1433.713
'0:09.797',1405.874
'0:09.801',1461.553
'0:09.805',1465.219
'0:09.809',1428.566
'0:09.813',1427.824
'0:09.816',1461.553
'0:09.820',1480.580
'0:09.824',1457.888
'0:09.828',1454.223
'0:09.832',1446.892
'0:09.836',1448.334
'0:09.840',1461.553
'0:09.844',1465.919
'0:09.848',1446.892
'0:09.852',1443.227
'0:09.855',1434.455
'0:09.859',1429.307
'0:09.863',1437.379
'0:09.867',1433.713
'0:09.871',1420.535
'0:09.875',1414.646
'0:09.879',1405.132
'0:09.883',1420.535
'0:09.887',1409.539
'0:09.891',1439.561
'0:09.895',1439.561
'0:09.898',1433.713
'0:09.902',1429.307
'0:09.906',1408.056
'0:09.910',1405.874
'0:09.914',1399.984
'0:09.918',1416.869
'0:09.922',1412.463
'0:09.926',1408.798
'0:09.930',1361.890
'0:09.934',1364.114
'0:09.938',1384.623
'0:09.941',1390.471
'0:09.945',1338.457
'0:09.949',1381.699
'0:09.953',1364.114
'0:09.957',1336.274
'0:09.961',1362.631
'0:09.965',1385.364
'0:09.969',1388.288
'0:09.973',1380.958
'0:09.977',1352.376
'0:09.980',1397.802
'0:09.984',1399.284
'0:09.988',1410.980
'0:09.992',1419.794
'0:09.996',1418.311
'0:10.000',1410.980
'0:10.004',1406.615
'0:10.008',1405.132
'0:10.012',1394.878
'0:10.016',1390.471
'0:10.020',1385.364
'0:10.023',1402.950
'0:10.027',1386.064
'0:10.031',1353.859
'0:10.035',1342.863
'0:10.039',1341.381
'0:10.043',1358.966
'0:10.047',1358.966
'0:10.051',1365.555
'0:10.055',1347.270
'0:10.059',1323.095
'0:10.063',1299.621
'0:10.066',1294.514
'0:10.070',1295.255
'0:10.074',1340.680
'0:10.078',1309.175
'0:10.082',1287.925
'0:10.086',1317.947
'0:10.090',1337.715
'0:10.094',1345.787
'0:10.098',1337.715
'0:10.102',1350.194
'0:10.105',1307.693
'0:10.109',1315.765
'0:10.113',1364.114
'0:10.117',1360.448
'0:10.121',1353.118
'0:10.125',1343.604
'0:10.129',1337.015
'0:10.133',1397.060
'0:10.137',1399.984
'0:10.141',1383.140
'0:10.145',1381.699
'0:10.148',1420.535
'0:10.152',1397.802
'0:10.156',1451.299
'0:10.160',1430.048
'0:10.164',1422.718
'0:10.168',1421.235
'0:10.172',1473.991
'0:10.176',1457.888
'0:10.180',1447.633
'0:10.184',1467.401
'0:10.188',1470.325
'0:10.191',1442.485
'0:10.195',1437.379
'0:10.199',1430.789
'0:10.203',1475.473
'0:10.207',1474.732
'0:10.211',1469.584
'0:10.215',1460.812
'0:10.219',1446.892
'0:10.223',1430.789
'0:10.227',1421.235
'0:10.230',1407.315
'0:10.234',1392.695
'0:10.238',1419.052
'0:10.242',1408.056
'0:10.246',1402.208
'0:10.250',1362.631
'0:10.254',1351.635
'0:10.258',1343.604
'0:10.262',1334.050
'0:10.266',1331.126
'0:10.270',1326.760
'0:10.273',1323.795
'0:10.277',1317.206
'0:10.281',1319.430
'0:10.285',1325.278
'0:10.289',1270.339
'0:10.293',1304.027
'0:10.297',1249.830
'0:10.301',1268.857
'0:10.305',1247.606
'0:10.309',1259.343
'0:10.313',1227.838
'0:10.316',1257.161
'0:10.320',1226.356
'0:10.324',1232.986
'0:10.328',1243.941
'0:10.332',1205.146
'0:10.336',1189.002
'0:10.340',1224.173
'0:10.344',1222.732
'0:10.348',1223.432
'0:10.352',1195.592
'0:10.355',1240.276
'0:10.359',1192.668
'0:10.363',1230.762
'0:10.367',1204.405
'0:10.371',1234.428
'0:10.375',1260.085
'0:10.379',1232.986
'0:10.383',1231.504
'0:10.387',1244.682
'0:10.391',1284.259
'0:10.395',1249.089
'0:10.398',1274.746
'0:10.402',1291.590
'0:10.406',1317.206
'0:10.410',1333.350
'0:10.414',1324.537
'0:10.418',1306.951
'0:10.422',1341.381
'0:10.426',1335.533
'0:10.430',1326.019
'0:10.434',1353.859
'0:10.438',1364.855
'0:10.441',1342.863
'0:10.445',1337.015
'0:10.449',1341.381
'0:10.453',1360.448
'0:10.457',1364.855
'0:10.461',1392.695
'0:10.465',1389.730
'0:10.469',1385.364
'0:10.473',1387.547
'0:10.477',1384.623
'0:10.480',1370.703
'0:10.484',1383.140
'0:10.488',1379.475
'0:10.492',1389.030
'0:10.496',1402.950
'0:10.500',1454.964
'0:10.504',1456.405
'0:10.508',1453.481
'0:10.512',1465.919
'0:10.516',1483.504
'0:10.520',1516.492
'0:10.523',1507.679
'0:10.527',1514.268
'0:10.531',1516.492
'0:10.535',1551.662
'0:10.539',1542.849
'0:10.543',1524.564
'0:10.547',1530.412
'0:10.551',1559.693
'0:10.555',1567.765
'0:10.559',1537.742
'0:10.563',1550.180
'0:10.566',1563.358
'0:10.570',1553.845
'0:10.574',1558.993
'0:10.578',1574.354
'0:10.582',1564.841
'0:10.586',1564.841
'0:10.590',1560.434
'0:10.594',1524.564
'0:10.598',1550.180
'0:10.602',1515.751
'0:10.605',1562.658
'0:10.609',1545.073
'0:10.613',1522.340
'0:10.617',1501.089
'0:10.621',1547.256
'0:10.625',1537.001
'0:10.629',1497.424
'0:10.633',1505.496
'0:10.637',1481.321
'0:10.641',1531.853
'0:10.645',1489.393
'0:10.648',1517.933
'0:10.652',1496.724
'0:10.656',1476.173
'0:10.660',1466.660
'0:10.664',1497.424
'0:10.668',1510.644
'0:10.672',1492.317
'0:10.676',1454.223
'0:10.680',1476.173
'0:10.684',1449.075
'0:10.688',1446.151
'0:10.691',1492.317
'0:10.695',1481.321
'0:10.699',1477.656
'0:10.703',1469.584
'0:10.707',1469.584
'0:10.711',1465.219
'0:10.715',1451.299
'0:10.719',1462.253
'0:10.723',1461.553
'0:10.727',1457.888
'0:10.730',1457.888
'0:10.734',1436.637
'0:10.738',1432.231
'0:10.742',1435.896
'0:10.746',1434.455
'0:10.750',1446.151
'0:10.754',1424.900
'0:10.758',1419.052
'0:10.762',1416.128
'0:10.766',1416.869
'0:10.770',1412.463
'0:10.773',1409.539
'0:10.777',1436.637
'0:10.781',1398.543
'0:10.785',1389.030
'0:10.789',1395.619
'0:10.793',1405.874
'0:10.797',1406.615
'0:10.801',1406.615
'0:10.805',1407.315
'0:10.809',1443.968
'0:10.813',1439.561
'0:10.816',1427.124
'0:10.820',1410.980
'0:10.824',1463.736
'0:10.828',1435.896
'0:10.832',1448.334
'0:10.836',1482.063
'0:10.840',1454.223
'0:10.844',1506.979
'0:10.848',1501.831
'0:10.852',1484.987
'0:10.855',1490.835
'0:10.859',1496.724
'0:10.863',1532.595
'0:10.867',1522.340
'0:10.871',1491.576
'0:10.875',1493.759
'0:10.879',1545.773
'0:10.883',1495.983
'0:10.887',1526.005
'0:10.891',1529.670
'0:10.895',1504.755
'0:10.898',1528.188
'0:10.902',1501.089
'0:10.906',1536.260
'0:10.910',1521.599
'0:10.914',1516.492
'0:10.918',1529.670
'0:10.922',1546.514
'0:10.926',1498.907
'0:10.930',1498.165
'0:10.934',1526.746
'0:10.938',1483.504
'0:10.941',1507.679
'0:10.945',1512.085
'0:10.949',1501.089
'0:10.953',1478.397
'0:10.957',1457.888
'0:10.961',1451.299
'0:10.965',1452.740
'0:10.969',1457.888
'0:10.973',1435.155
'0:10.977',1408.056
'0:10.980',1388.288
'0:10.984',1379.475
'0:10.988',1386.806
'0:10.992',1403.650
'0:10.996',1383.140
'0:11.000',1365.555
'0:11.004',1356.783
'0:11.008',1369.220
'0:11.012',1390.471
'0:11.016',1402.208
'0:11.020',1382.399
'0:11.023',1376.551
'0:11.027',1395.619
'0:11.031',1372.144
'0:11.035',1333.350
'0:11.039',1369.220
'0:11.043',1369.962
'0:11.047',1348.711
'0:11.051',1317.947
'0:11.055',1327.461
'0:11.059',1302.586
'0:11.063',1275.446
'0:11.066',1265.933
'0:11.070',1306.210
'0:11.074',1257.161
'0:11.078',1291.590
'0:11.082',1261.526
'0:11.086',1253.495
'0:11.090',1221.990
'0:11.094',1269.598
'0:11.098',1246.906
'0:11.102',1232.245
'0:11.105',1210.253
'0:11.109',1254.196
'0:11.113',1237.352
'0:11.117',1215.401
'0:11.121',1254.196
'0:11.125',1208.812
'0:11.129',1240.276
'0:11.133',1265.191
'0:11.137',1251.272
'0:11.141',1263.009
'0:11.145',1243.941
'0:11.148',1293.773
'0:11.152',1289.366
'0:11.156',1282.777
'0:11.160',1329.684
'0:11.164',1309.175
'0:11.168',1321.613
'0:11.172',1367.038
'0:11.176',1380.216
'0:11.180',1403.650
'0:11.184',1389.030
'0:11.188',1414.646
'0:11.191',1430.789
'0:11.195',1445.410
'0:11.199',1450.557
'0:11.203',1451.999
'0:11.207',1449.075
'0:11.211',1439.561
'0:11.215',1435.155
'0:11.219',1435.896
'0:11.223',1423.459
'0:11.227',1426.383
'0:11.230',1417.570
'0:11.234',1416.869
'0:11.238',1432.231
'0:11.242',1443.968
'0:11.246',1431.490
'0:11.250',1403.650
'0:11.254',1378.775
'0:11.258',1408.056
'0:11.262',1370.703
'0:11.266',1353.859
'0:11.270',1367.779
'0:11.273',1389.730
'0:11.277',1349.452
'0:11.281',1345.046
'0:11.285',1358.225
'0:11.289',1352.376
'0:11.293',1337.015
'0:11.297',1290.107
'0:11.301',1301.845
'0:11.305',1328.202
'0:11.309',1266.674
'0:11.313',1287.183
'0:11.316',1277.670
'0:11.320',1286.442
'0:11.324',1263.009
'0:11.328',1263.750
'0:11.332',1252.013
'0:11.336',1238.093
'0:11.340',1219.066
'0:11.344',1194.150
'0:11.348',1182.413
'0:11.352',1217.584
'0:11.355',1216.842
'0:11.359',1199.257
'0:11.363',1194.150
'0:11.367',1194.150
'0:11.371',1195.592
'0:11.375',1197.816
'0:11.379',1175.082
'0:11.383',1176.565
'0:11.387',1150.167
'0:11.391',1197.816
'0:11.395',1195.592
'0:11.398',1152.390
'0:11.402',1212.436
'0:11.406',1175.824
'0:11.410',1232.245
'0:11.414',1201.481
'0:11.418',1208.812
'0:11.422',1251.272
'0:11.426',1284.259
'0:11.430',1252.754
'0:11.434',1271.781
'0:11.438',1296.697
'0:11.441',1337.715
'0:11.445',1345.046
'0:11.449',1359.707
'0:11.453',1370.703
'0:11.457',1379.475
'0:11.461',1386.806
'0:11.465',1363.372
'0:11.469',1353.859
'0:11.473',1361.890
'0:11.477',1368.520
'0:11.480',1375.810
'0:11.484',1392.695
'0:11.488',1405.132
'0:11.492',1435.896
'0:11.496',1438.079
'0:11.500',1414.646
'0:11.504',1407.315
'0:11.508',1413.904
'0:11.512',1445.410
'0:11.516',1472.549
'0:11.520',1490.835
'0:11.523',1506.237
'0:11.527',1506.979
'0:11.531',1488.652
'0:11.535',1539.925
'0:11.539',1509.161
'0:11.543',1529.670
'0:11.547',1556.769
'0:11.551',1570.689
'0:11.555',1553.845
'0:11.559',1542.108
'0:11.563',1526.746
'0:11.566',1539.925
'0:11.570',1540.666
'0:11.574',1555.328
'0:11.578',1517.233
'0:11.582',1496.724
'0:11.586',1506.979
'0:11.590',1494.500
'0:11.594',1474.732
'0:11.598',1470.325
'0:11.602',1481.321
'0:11.605',1427.124
'0:11.609',1439.561
'0:11.613',1453.481
'0:11.617',1426.383
'0:11.621',1408.798
'0:11.625',1394.136
'0:11.629',1364.855
'0:11.633',1354.600
'0:11.637',1350.194
'0:11.641',1356.042
'0:11.645',1394.136
'0:11.648',1368.520
'0:11.652',1350.935
'0:11.656',1387.547
'0:11.660',1402.208
'0:11.664',1394.136
'0:11.668',1413.904
'0:11.672',1435.896
'0:11.676',1412.463
'0:11.680',1437.379
'0:11.684',1479.139
'0:11.688',1450.557
'0:11.691',1509.903
'0:11.695',1521.599
'0:11.699',1505.496
'0:11.703',1552.404
'0:11.707',1535.519
'0:11.711',1575.837
'0:11.715',1613.931
'0:11.719',1575.837
'0:11.723',1607.342
'0:11.727',1638.106
'0:11.730',1615.373
'0:11.734',1604.418
'0:11.738',1634.441
'0:11.742',1634.441
'0:11.746',1631.517
'0:11.750',1604.418
'0:11.754',1632.217
'0:11.758',1575.837
'0:11.762',1594.864
'0:11.766',1602.936
'0:11.770',1542.108
'0:11.773',1561.917
'0:11.777',1512.085
'0:11.781',1546.514
'0:11.785',1493.059
'0:11.789',1515.751
'0:11.793',1466.660
'0:11.797',1439.561
'0:11.801',1468.143
'0:11.805',1415.387
'0:11.809',1393.395
'0:11.813',1422.718
'0:11.816',1385.364
'0:11.820',1347.270
'0:11.824',1363.372
'0:11.828',1380.216
'0:11.832',1352.376
'0:11.836',1326.760
'0:11.840',1361.190
'0:11.844',1368.520
'0:11.848',1364.855
'0:11.852',1369.962
'0:11.855',1373.627
'0:11.859',1383.882
'0:11.863',1388.288
'0:11.867',1367.038
'0:11.871',1364.855
'0:11.875',1398.543
'0:11.879',1410.980
'0:11.883',1382.399
'0:11.887',1368.520
'0:11.891',1419.052
'0:11.895',1396.319
'0:11.898',1403.650
'0:11.902',1436.637
'0:11.906',1417.570
'0:11.910',1446.892
'0:11.914',1426.383
'0:11.918',1475.473
'0:11.922',1439.561
'0:11.926',1498.165
'0:11.930',1460.812
'0:11.934',1490.835
'0:11.938',1524.564
'0:11.941',1484.245
'0:11.945',1495.241
'0:11.949',1523.081
'0:11.953',1539.925
'0:11.957',1504.013
'0:11.961',1522.340
'0:11.965',1541.408
'0:11.969',1552.404
'0:11.973',1537.001
'0:11.977',1503.313
'0:11.980',1499.648
'0:11.984',1502.572
'0:11.988',1515.009
'0:11.992',1506.979
'0:11.996',1493.059
'0:12.000',1484.987
'0:12.004',1490.835
'0:12.008',1497.424
'0:12.012',1531.853
'0:12.016',1520.898
'0:12.020',1525.264
'0:12.023',1501.831
'0:12.027',1497.424
'0:12.031',1498.907
'0:12.035',1517.233
'0:12.039',1542.849
'0:12.043',1515.751
'0:12.047',1508.420
'0:12.051',1524.564
'0:12.055',1553.104
'0:12.059',1549.438
'0:12.063',1519.416
'0:12.066',1517.233
'0:12.070',1504.755
'0:12.074',1473.249
'0:12.078',1456.405
'0:12.082',1471.808
'0:12.086',1473.249
'0:12.090',1425.642
'0:12.094',1416.128
'0:12.098',1360.448
'0:12.102',1372.886
'0:12.105',1359.707
'0:12.109',1342.863
'0:12.113',1324.537
'0:12.117',1304.769
'0:12.121',1266.674
'0:12.125',1215.401
'0:12.129',1224.173
'0:12.133',1183.154
'0:12.137',1206.588
'0:12.141',1166.310
'0:12.145',1167.052
'0:12.148',1156.797
'0:12.152',1122.327
'0:12.156',1153.832
'0:12.160',1144.319
'0:12.164',1147.984
'0:12.168',1119.403
'0:12.172',1166.310
'0:12.176',1153.832
'0:12.180',1190.485
'0:12.184',1178.006
'0:12.188',1178.748
'0:12.191',1233.686
'0:12.195',1219.766
'0:12.199',1259.343
'0:12.203',1240.276
'0:12.207',1297.438
'0:12.211',1278.370
'0:12.215',1323.095
'0:12.219',1343.604
'0:12.223',1338.457
'0:12.227',1356.042
'0:12.230',1366.296
'0:12.234',1369.962
'0:12.238',1367.779
'0:12.242',1367.779
'0:12.246',1385.364
'0:12.250',1358.225
'0:12.254',1339.198
'0:12.258',1356.042
'0:12.262',1330.385
'0:12.266',1315.765
'0:12.270',1311.358
'0:12.273',1312.099
'0:12.277',1262.267
'0:12.281',1290.849
'0:12.285',1218.325
'0:12.289',1239.575
'0:12.293',1217.584
'0:12.297',1192.668
'0:12.301',1166.310
'0:12.305',1142.136
'0:12.309',1109.889
'0:12.313',1068.871
'0:12.316',1068.871
'0:12.320',1019.039
'0:12.324',987.534
'0:12.328',981.686
'0:12.332',990.458
'0:12.336',934.078
'0:12.340',968.507
'0:12.344',952.363
'0:12.348',953.105
'0:12.352',959.694
'0:12.355',942.109
'0:12.359',920.899
'0:12.363',973.614
'0:12.367',968.507
'0:12.371',961.918
'0:12.375',1015.374
'0:12.379',1010.267
'0:12.383',1029.294
'0:12.387',1076.201
'0:12.391',1060.799
'0:12.395',1073.978
'0:12.398',1101.817
'0:12.402',1132.623
'0:12.406',1214.660
'0:12.410',1208.070
'0:12.414',1258.602
'0:12.418',1296.697
'0:12.422',1321.613
'0:12.426',1387.547
'0:12.430',1380.216
'0:12.434',1462.995
'0:12.438',1479.139
'0:12.441',1495.983
'0:12.445',1534.818
'0:12.449',1569.948
'0:12.453',1597.088
'0:12.457',1617.597
'0:12.461',1691.562
'0:12.465',1665.946
'0:12.469',1716.478
'0:12.473',1697.451
'0:12.477',1746.542
'0:12.480',1704.782
'0:12.484',1731.880
'0:12.488',1746.542
'0:12.492',1739.911
'0:12.496',1700.375
'0:12.500',1725.991
'0:12.504',1730.398
'0:12.508',1698.151
'0:12.512',1676.201
'0:12.516',1668.870
'0:12.520',1669.611
'0:12.523',1699.634
'0:12.527',1703.299
'0:12.531',1688.638
'0:12.535',1673.977
'0:12.539',1660.057
'0:12.543',1668.129
'0:12.547',1710.630
'0:12.551',1678.383
'0:12.555',1687.197
'0:12.559',1722.367
'0:12.563',1695.227
'0:12.566',1750.166
'0:12.570',1718.702
'0:12.574',1755.314
'0:12.578',1727.474
'0:12.582',1727.474
'0:12.586',1764.086
'0:12.590',1719.402
'0:12.594',1761.903
'0:12.598',1725.291
'0:12.602',1698.151
'0:12.605',1706.223
'0:12.609',1677.642
'0:12.613',1654.209
'0:12.617',1633.699
'0:12.621',1600.012
'0:12.625',1577.278
'0:12.629',1571.430
'0:12.633',1551.662
'0:12.637',1543.590
'0:12.641',1495.241
'0:12.645',1453.481
'0:12.648',1457.888
'0:12.652',1435.896
'0:12.656',1394.136
'0:12.660',1358.966
'0:12.664',1358.966
'0:12.668',1357.524
'0:12.672',1344.305
'0:12.676',1326.019
'0:12.680',1274.746
'0:12.684',1314.282
'0:12.688',1266.674
'0:12.691',1287.183
'0:12.695',1311.358
'0:12.699',1268.857
'0:12.703',1268.115
'0:12.707',1283.518
'0:12.711',1303.286
'0:12.715',1297.438
'0:12.719',1341.381
'0:12.723',1348.711
'0:12.727',1353.118
'0:12.730',1374.368
'0:12.734',1375.110
'0:12.738',1386.806
'0:12.742',1392.695
'0:12.746',1399.984
'0:12.750',1416.128
'0:12.754',1476.915
'0:12.758',1485.728
'0:12.762',1479.139
'0:12.766',1472.549
'0:12.770',1467.401
'0:12.773',1508.420
'0:12.777',1528.929
'0:12.781',1503.313
'0:12.785',1485.728
'0:12.789',1507.679
'0:12.793',1503.313
'0:12.797',1535.519
'0:12.801',1488.652
'0:12.805',1484.987
'0:12.809',1523.081
'0:12.813',1471.808
'0:12.816',1468.143
'0:12.820',1482.804
'0:12.824',1446.892
'0:12.828',1490.835
'0:12.832',1466.660
'0:12.836',1449.075
'0:12.840',1472.549
'0:12.844',1435.155
'0:12.848',1478.397
'0:12.852',1443.968
'0:12.855',1479.839
'0:12.859',1484.245
'0:12.863',1439.561
'0:12.867',1491.576
'0:12.871',1479.839
'0:12.875',1456.405
'0:12.879',1446.151
'0:12.883',1490.093
'0:12.887',1464.477
'0:12.891',1443.968
'0:12.895',1447.633
'0:12.898',1449.816
'0:12.902',1439.561
'0:12.906',1436.637
'0:12.910',1426.383
'0:12.914',1419.052
'0:12.918',1443.227
'0:12.922',1453.481
'0:12.926',1451.999
'0:12.930',1445.410
'0:12.934',1443.968
'0:12.938',1423.459
'0:12.941',1390.471
'0:12.945',1385.364
'0:12.949',1375.810
'0:12.953',1384.623
'0:12.957',1398.543
'0:12.961',1377.292
'0:12.965',1356.783
'0:12.969',1324.537
'0:12.973',1326.760
'0:12.977',1314.282
'0:12.980',1296.697
'0:12.984',1306.951
'0:12.988',1238.093
'0:12.992',1255.678
'0:12.996',1227.097
'0:13.000',1235.910
'0:13.004',1252.754
'0:13.008',1201.481
'0:13.012',1235.910
'0:13.016',1236.651
'0:13.020',1224.173
'0:13.023',1274.746
'0:13.027',1294.514
'0:13.031',1316.506
'0:13.035',1323.095
'0:13.039',1322.354
'0:13.043',1349.452
'0:13.047',1385.364
'0:13.051',1453.481
'0:13.055',1473.991
'0:13.059',1471.808
'0:13.063',1467.401
'0:13.066',1484.245
'0:13.070',1470.325
'0:13.074',1521.599
'0:13.078',1476.915
'0:13.082',1462.253
'0:13.086',1490.093
'0:13.090',1468.884
'0:13.094',1435.896
'0:13.098',1439.561
'0:13.102',1410.980
'0:13.105',1416.128
'0:13.109',1364.114
'0:13.113',1324.537
'0:13.117',1295.255
'0:13.121',1313.541
'0:13.125',1255.678
'0:13.129',1290.107
'0:13.133',1263.009
'0:13.137',1208.812
'0:13.141',1244.682
'0:13.145',1238.093
'0:13.148',1200.740
'0:13.152',1179.489
'0:13.156',1196.333
'0:13.160',1196.333
'0:13.164',1236.651
'0:13.168',1241.017
'0:13.172',1247.606
'0:13.176',1225.656
'0:13.180',1225.656
'0:13.184',1238.093
'0:13.188',1276.929
'0:13.191',1309.175
'0:13.195',1314.282
'0:13.199',1314.282
'0:13.203',1367.038
'0:13.207',1391.954
'0:13.211',1380.216
'0:13.215',1428.566
'0:13.219',1461.553
'0:13.223',1467.401
'0:13.227',1457.147
'0:13.230',1452.740
'0:13.234',1509.903
'0:13.238',1467.401
'0:13.242',1500.348
'0:13.246',1493.759
'0:13.250',1528.929
'0:13.254',1502.572
'0:13.258',1489.393
'0:13.262',1533.336
'0:13.266',1485.728
'0:13.270',1510.644
'0:13.273',1509.903
'0:13.277',1494.500
'0:13.281',1527.488
'0:13.285',1523.081
'0:13.289',1474.732
'0:13.293',1520.157
'0:13.297',1480.580
'0:13.301',1477.656
'0:13.305',1477.656
'0:13.309',1455.664
'0:13.313',1466.660
'0:13.316',1460.071
'0:13.320',1453.481
'0:13.324',1488.652
'0:13.328',1454.964
'0:13.332',1506.979
'0:13.336',1485.728
'0:13.340',1519.416
'0:13.344',1528.929
'0:13.348',1515.751
'0:13.352',1486.469
'0:13.355',1487.911
'0:13.359',1513.568
'0:13.363',1527.488
'0:13.367',1479.839
'0:13.371',1473.991
'0:13.375',1502.572
'0:13.379',1435.896
'0:13.383',1450.557
'0:13.387',1399.284
'0:13.391',1425.642
'0:13.395',1377.292
'0:13.398',1326.760
'0:13.402',1304.027
'0:13.406',1276.929
'0:13.410',1276.187
'0:13.414',1263.750
'0:13.418',1183.154
'0:13.422',1191.926
'0:13.426',1132.623
'0:13.430',1161.904
'0:13.434',1087.197
'0:13.438',1064.464
'0:13.441',1076.943
'0:13.445',1029.294
'0:13.449',1010.267
'0:13.453',1032.218
'0:13.457',1015.374
'0:13.461',971.431
'0:13.465',1000.012
'0:13.469',983.869
'0:13.473',969.248
'0:13.477',961.177
'0:13.480',979.503
'0:13.484',923.082
'0:13.488',962.659
'0:13.492',940.667
'0:13.496',915.010
'0:13.500',937.002
'0:13.504',928.189
'0:13.508',920.899
'0:13.512',894.501
'0:13.516',917.934
'0:13.520',960.435
'0:13.523',945.074
'0:13.527',997.788
'0:13.531',1027.852
'0:13.535',1060.058
'0:13.539',1087.897
'0:13.543',1092.304
'0:13.547',1148.725
'0:13.551',1231.504
'0:13.555',1263.009
'0:13.559',1297.438
'0:13.563',1380.216
'0:13.566',1427.124
'0:13.570',1505.496
'0:13.574',1571.430
'0:13.578',1590.498
'0:13.582',1659.357
'0:13.586',1715.036
'0:13.590',1781.671
'0:13.594',1855.677
'0:13.598',1878.410
'0:13.602',1921.612
'0:13.605',1971.444
'0:13.609',2024.899
'0:13.613',2043.967
'0:13.617',2070.325
'0:13.621',2084.245
'0:13.625',2132.594
'0:13.629',2123.080
'0:13.633',2130.411
'0:13.637',2126.746
'0:13.641',2145.072
'0:13.645',2117.932
'0:13.648',2123.822
'0:13.652',2139.924
'0:13.656',2086.468
'0:13.660',2080.579
'0:13.664',2049.074
'0:13.668',2017.569
'0:13.672',1981.698
'0:13.676',1943.604
'0:13.680',1900.361
'0:13.684',1883.517
'0:13.688',1854.936
'0:13.691',1781.671
'0:13.695',1753.131
'0:13.699',1693.786
'0:13.703',1682.049
'0:13.707',1643.213
'0:13.711',1570.689
'0:13.715',1561.176
'0:13.719',1526.746
'0:13.723',1475.473
'0:13.727',1432.972
'0:13.730',1441.744
'0:13.734',1405.132
'0:13.738',1364.114
'0:13.742',1337.715
'0:13.746',1336.274
'0:13.750',1277.670
'0:13.754',1251.272
'0:13.758',1274.005
'0:13.762',1223.432
'0:13.766',1224.914
'0:13.770',1232.245
'0:13.773',1178.006
'0:13.777',1221.249
'0:13.781',1203.664
'0:13.785',1160.421
'0:13.789',1185.337
'0:13.793',1148.725
'0:13.797',1134.064
'0:13.801',1162.645
'0:13.805',1149.466
'0:13.809',1126.733
'0:13.813',1114.296
'0:13.816',1136.988
'0:13.820',1157.497
'0:13.824',1141.395
'0:13.828',1145.801
'0:13.832',1123.068
'0:13.836',1178.006
'0:13.840',1145.060
'0:13.844',1214.660
'0:13.848',1232.245
'0:13.852',1218.325
'0:13.855',1267.415
'0:13.859',1318.689
'0:13.863',1360.448
'0:13.867',1380.216
'0:13.871',1403.650
'0:13.875',1468.143
'0:13.879',1457.888
'0:13.883',1526.005
'0:13.887',1536.260
'0:13.891',1564.100
'0:13.895',1619.038
'0:13.898',1655.691
'0:13.902',1674.718
'0:13.906',1663.722
'0:13.910',1705.482
'0:13.914',1715.036
'0:13.918',1696.710
'0:13.922',1690.862
'0:13.926',1673.977
'0:13.930',1684.973
'0:13.934',1660.798
'0:13.938',1653.467
'0:13.941',1630.775
'0:13.945',1616.855
'0:13.949',1611.708
'0:13.953',1616.855
'0:13.957',1546.514
'0:13.961',1550.921
'0:13.965',1494.500
'0:13.969',1515.009
'0:13.973',1452.740
'0:13.977',1408.798
'0:13.980',1375.110
'0:13.984',1345.046
'0:13.988',1319.430
'0:13.992',1346.528
'0:13.996',1279.111
'0:14.000',1312.841
'0:14.004',1263.009
'0:14.008',1246.906
'0:14.012',1264.450
'0:14.016',1273.263
'0:14.020',1293.031
'0:14.023',1306.210
'0:14.027',1309.175
'0:14.031',1329.684
'0:14.035',1356.042
'0:14.039',1413.204
'0:14.043',1412.463
'0:14.047',1407.315
'0:14.051',1466.660
'0:14.055',1431.490
'0:14.059',1441.044
'0:14.063',1450.557
'0:14.066',1426.383
'0:14.070',1410.980
'0:14.074',1444.709
'0:14.078',1408.798
'0:14.082',1376.551
'0:14.086',1359.707
'0:14.090',1346.528
'0:14.094',1351.635
'0:14.098',1336.274
'0:14.102',1281.335
'0:14.105',1268.115
'0:14.109',1268.857
'0:14.113',1289.366
'0:14.117',1271.781
'0:14.121',1230.762
'0:14.125',1241.017
'0:14.129',1257.861
'0:14.133',1233.686
'0:14.137',1204.405
'0:14.141',1244.682
'0:14.145',1220.508
'0:14.148',1221.990
'0:14.152',1230.021
'0:14.156',1268.857
'0:14.160',1255.678
'0:14.164',1294.514
'0:14.168',1256.419
'0:14.172',1288.666
'0:14.176',1328.202
'0:14.180',1362.631
'0:14.184',1366.296
'0:14.188',1369.220
'0:14.191',1375.110
'0:14.195',1446.892
'0:14.199',1419.794
'0:14.203',1483.504
'0:14.207',1469.584
'0:14.211',1506.979
'0:14.215',1504.013
'0:14.219',1522.340
'0:14.223',1543.590
'0:14.227',1524.564
'0:14.230',1544.332
'0:14.234',1537.742
'0:14.238',1533.336
'0:14.242',1528.188
'0:14.246',1550.921
'0:14.250',1515.751
'0:14.254',1501.089
'0:14.258',1504.755
'0:14.262',1503.313
'0:14.266',1470.325
'0:14.270',1485.728
'0:14.273',1418.311
'0:14.277',1404.391
'0:14.281',1414.646
'0:14.285',1361.190
'0:14.289',1342.122
'0:14.293',1348.711
'0:14.297',1341.381
'0:14.301',1285.701
'0:14.305',1290.107
'0:14.309',1255.678
'0:14.313',1221.249
'0:14.316',1250.571
'0:14.320',1232.245
'0:14.324',1213.918
'0:14.328',1197.816
'0:14.332',1167.752
'0:14.336',1164.087
'0:14.340',1147.243
'0:14.344',1127.475
'0:14.348',1159.721
'0:14.352',1173.641
'0:14.355',1163.386
'0:14.359',1156.056
'0:14.363',1164.828
'0:14.367',1173.641
'0:14.371',1176.565
'0:14.375',1175.082
'0:14.379',1155.314
'0:14.383',1179.489
'0:14.387',1186.820
'0:14.391',1165.569
'0:14.395',1199.257
'0:14.398',1212.436
'0:14.402',1180.230
'0:14.406',1241.017
'0:14.410',1200.740
'0:14.414',1231.504
'0:14.418',1213.177
'0:14.422',1267.415
'0:14.426',1246.165
'0:14.430',1238.834
'0:14.434',1268.857
'0:14.438',1287.925
'0:14.441',1306.951
'0:14.445',1298.179
'0:14.449',1285.701
'0:14.453',1316.506
'0:14.457',1337.015
'0:14.461',1335.533
'0:14.465',1339.198
'0:14.469',1337.015
'0:14.473',1285.001
'0:14.477',1289.366
'0:14.480',1322.354
'0:14.484',1267.415
'0:14.488',1301.845
'0:14.492',1301.103
'0:14.496',1289.366
'0:14.500',1271.781
'0:14.504',1228.580
'0:14.508',1229.321
'0:14.512',1273.263
'0:14.516',1240.276
'0:14.520',1234.428
'0:14.523',1240.276
'0:14.527',1254.937
'0:14.531',1268.115
'0:14.535',1320.130
'0:14.539',1360.448
'0:14.543',1354.600
'0:14.547',1397.802
'0:14.551',1391.212
'0:14.555',1449.816
'0:14.559',1424.900
'0:14.563',1467.401
'0:14.566',1517.933
'0:14.570',1537.742
'0:14.574',1564.841
'0:14.578',1587.533
'0:14.582',1605.860
'0:14.586',1608.042
'0:14.590',1594.864
'0:14.594',1657.874
'0:14.598',1640.289
'0:14.602',1644.695
'0:14.605',1686.455
'0:14.609',1674.718
'0:14.613',1681.307
'0:14.617',1720.884
'0:14.621',1679.866
'0:14.625',1684.231
'0:14.629',1706.223
'0:14.633',1667.387
'0:14.637',1687.197
'0:14.641',1650.543
'0:14.645',1654.950
'0:14.648',1623.445
'0:14.652',1656.433
'0:14.656',1598.529
'0:14.660',1576.578
'0:14.664',1586.092
'0:14.668',1578.020
'0:14.672',1509.161
'0:14.676',1537.742
'0:14.680',1497.424
'0:14.684',1460.812
'0:14.688',1460.071
'0:14.691',1449.075
'0:14.695',1420.535
'0:14.699',1453.481
'0:14.703',1445.410
'0:14.707',1418.311
'0:14.711',1423.459
'0:14.715',1397.802
'0:14.719',1400.726
'0:14.723',1380.958
'0:14.727',1383.140
'0:14.730',1390.471
'0:14.734',1381.699
'0:14.738',1381.699
'0:14.742',1389.730
'0:14.746',1387.547
'0:14.750',1352.376
'0:14.754',1356.042
'0:14.758',1344.305
'0:14.762',1336.274
'0:14.766',1374.368
'0:14.770',1398.543
'0:14.773',1357.524
'0:14.777',1362.631
'0:14.781',1365.555
'0:14.785',1414.646
'0:14.789',1421.976
'0:14.793',1432.231
'0:14.797',1409.539
'0:14.801',1402.950
'0:14.805',1447.633
'0:14.809',1409.539
'0:14.813',1461.553
'0:14.816',1464.477
'0:14.820',1459.329
'0:14.824',1445.410
'0:14.828',1469.584
'0:14.832',1470.325
'0:14.836',1459.329
'0:14.840',1455.664
'0:14.844',1485.728
'0:14.848',1465.219
'0:14.852',1494.500
'0:14.855',1476.915
'0:14.859',1513.568
'0:14.863',1478.397
'0:14.867',1517.933
'0:14.871',1486.469
'0:14.875',1531.853
'0:14.879',1503.313
'0:14.883',1552.404
'0:14.887',1504.013
'0:14.891',1529.670
'0:14.895',1557.510
'0:14.898',1513.568
'0:14.902',1559.693
'0:14.906',1516.492
'0:14.910',1561.176
'0:14.914',1526.746
'0:14.918',1515.009
'0:14.922',1520.898
'0:14.926',1532.595
'0:14.930',1558.252
'0:14.934',1559.693
'0:14.938',1535.519
'0:14.941',1513.568
'0:14.945',1554.586
'0:14.949',1523.081
'0:14.953',1515.751
'0:14.957',1561.176
'0:14.961',1514.268
'0:14.965',1561.176
'0:14.969',1513.568
'0:14.973',1545.773
'0:14.977',1501.089
'0:14.980',1539.925
'0:14.984',1514.268
'0:14.988',1497.424
'0:14.992',1504.755
'0:14.996',1462.995
'0:15.000',1449.816
'0:15.004',1446.151
'0:15.008',1429.307
'0:15.012',1421.235
'0:15.016',1410.239
'0:15.020',1429.307
'0:15.023',1420.535
'0:15.027',1443.227
'0:15.031',1408.798
'0:15.035',1391.954
'0:15.039',1431.490
'0:15.043',1397.802
'0:15.047',1420.535
'0:15.051',1443.968
'0:15.055',1417.570
'0:15.059',1454.964
'0:15.063',1433.713
'0:15.066',1439.561
'0:15.070',1428.566
'0:15.074',1401.467
'0:15.078',1427.124
'0:15.082',1393.395
'0:15.086',1387.547
'0:15.090',1372.144
'0:15.094',1347.970
'0:15.098',1320.130
'0:15.102',1287.925
'0:15.105',1238.093
'0:15.109',1201.481
'0:15.113',1181.672
'0:15.117',1172.158
'0:15.121',1111.372
'0:15.125',1102.559
'0:15.129',1091.563
'0:15.133',1071.795
'0:15.137',1033.700
'0:15.141',1011.708
'0:15.145',997.088
'0:15.148',1024.187
'0:15.152',1032.959
'0:15.156',1023.446
'0:15.160',1020.522
'0:15.164',1004.378
'0:15.168',1035.883
'0:15.172',1082.791
'0:15.176',1104.783
'0:15.180',1117.961
'0:15.184',1134.064
'0:15.188',1139.912
'0:15.191',1159.721
'0:15.195',1210.253
'0:15.199',1265.933
'0:15.203',1301.845
'0:15.207',1332.609
'0:15.211',1345.787
'0:15.215',1347.270
'0:15.219',1408.798
'0:15.223',1449.075
'0:15.227',1435.896
'0:15.230',1512.085
'0:15.234',1484.987
'0:15.238',1533.336
'0:15.242',1569.248
'0:15.246',1590.498
'0:15.250',1578.020
'0:15.254',1619.038
'0:15.258',1611.708
'0:15.262',1611.007
'0:15.266',1610.266
'0:15.270',1595.605
'0:15.273',1613.190
'0:15.277',1640.289
'0:15.281',1635.882
'0:15.285',1614.673
'0:15.289',1586.092
'0:15.293',1574.354
'0:15.297',1568.506
'0:15.301',1577.278
'0:15.305',1569.248
'0:15.309',1511.344
'0:15.313',1504.013
'0:15.316',1509.903
'0:15.320',1451.299
'0:15.324',1466.660
'0:15.328',1429.307
'0:15.332',1389.730
'0:15.336',1383.140
'0:15.340',1340.680
'0:15.344',1334.050
'0:15.348',1309.875
'0:15.352',1275.446
'0:15.355',1290.849
'0:15.359',1270.339
'0:15.363',1249.830
'0:15.367',1233.686
'0:15.371',1238.093
'0:15.375',1228.580
'0:15.379',1194.150
'0:15.383',1169.976
'0:15.387',1159.721
'0:15.391',1162.645
'0:15.395',1127.475
'0:15.398',1095.228
'0:15.402',1095.228
'0:15.406',1114.296
'0:15.410',1099.635
'0:15.414',1101.817
'0:15.418',1101.117
'0:15.422',1095.969
'0:15.426',1093.787
'0:15.430',1090.121
'0:15.434',1082.791
'0:15.438',1068.871
'0:15.441',1066.688
'0:15.445',1078.384
'0:15.449',1063.723
'0:15.453',1093.045
'0:15.457',1136.988
'0:15.461',1116.479
'0:15.465',1116.479
'0:15.469',1178.006
'0:15.473',1163.386
'0:15.477',1160.421
'0:15.480',1212.436
'0:15.484',1198.557
'0:15.488',1191.226
'0:15.492',1249.830
'0:15.496',1253.495
'0:15.500',1241.017
'0:15.504',1274.005
'0:15.508',1282.035
'0:15.512',1284.259
'0:15.516',1276.929
'0:15.520',1274.746
'0:15.523',1291.590
'0:15.527',1317.947
'0:15.531',1337.015
'0:15.535',1315.765
'0:15.539',1364.855
'0:15.543',1384.623
'0:15.547',1406.615
'0:15.551',1416.869
'0:15.555',1480.580
'0:15.559',1493.059
'0:15.563',1493.759
'0:15.566',1525.264
'0:15.570',1554.586
'0:15.574',1570.689
'0:15.578',1621.262
'0:15.582',1645.437
'0:15.586',1641.030
'0:15.590',1682.790
'0:15.594',1654.209
'0:15.598',1689.379
'0:15.602',1711.371
'0:15.605',1670.353
'0:15.609',1708.447
'0:15.613',1681.307
'0:15.617',1650.543
'0:15.621',1682.790
'0:15.625',1645.437
'0:15.629',1628.593
'0:15.633',1619.038
'0:15.637',1594.122
'0:15.641',1564.100
'0:15.645',1539.925
'0:15.648',1467.401
'0:15.652',1482.804
'0:15.656',1422.718
'0:15.660',1423.459
'0:15.664',1405.132
'0:15.668',1383.882
'0:15.672',1361.190
'0:15.676',1294.514
'0:15.680',1325.278
'0:15.684',1260.826
'0:15.688',1303.286
'0:15.691',1260.826
'0:15.695',1241.017
'0:15.699',1275.446
'0:15.703',1247.606
'0:15.707',1252.754
'0:15.711',1286.442
'0:15.715',1319.430
'0:15.719',1332.609
'0:15.723',1308.434
'0:15.727',1350.935
'0:15.730',1378.775
'0:15.734',1360.448
'0:15.738',1394.878
'0:15.742',1408.056
'0:15.746',1408.056
'0:15.750',1415.387
'0:15.754',1419.794
'0:15.758',1482.804
'0:15.762',1482.063
'0:15.766',1473.991
'0:15.770',1481.321
'0:15.773',1478.397
'0:15.777',1484.245
'0:15.781',1519.416
'0:15.785',1507.679
'0:15.789',1509.903
'0:15.793',1529.670
'0:15.797',1525.264
'0:15.801',1520.898
'0:15.805',1489.393
'0:15.809',1499.648
'0:15.813',1526.005
'0:15.816',1497.424
'0:15.820',1470.325
'0:15.824',1483.504
'0:15.828',1494.500
'0:15.832',1457.888
'0:15.836',1504.013
'0:15.840',1462.995
'0:15.844',1463.736
'0:15.848',1463.736
'0:15.852',1501.831
'0:15.855',1510.644
'0:15.859',1519.416
'0:15.863',1492.317
'0:15.867',1482.063
'0:15.871',1519.416
'0:15.875',1538.484
'0:15.879',1493.059
'0:15.883',1515.751
'0:15.887',1523.822
'0:15.891',1513.568
'0:15.895',1540.666
'0:15.898',1490.093
'0:15.902',1487.169
'0:15.906',1493.059
'0:15.910',1504.755
'0:15.914',1514.268
'0:15.918',1498.165
'0:15.922',1501.831
'0:15.926',1543.590
'0:15.930',1503.313
'0:15.934',1557.510
'0:15.938',1523.822
'0:15.941',1539.925
'0:15.945',1579.502
'0:15.949',1561.176
'0:15.953',1565.582
'0:15.957',1572.913
'0:15.961',1578.020
'0:15.965',1583.168
'0:15.969',1601.453
'0:15.973',1558.252
'0:15.977',1561.917
'0:15.980',1591.940
'0:15.984',1539.184
'0:15.988',1577.278
'0:15.992',1537.001
'0:15.996',1498.165
'0:16.000',1520.898
'0:16.004',1502.572
'0:16.008',1451.299
'0:16.012',1432.972
'0:16.016',1435.896
'0:16.020',1423.459
'0:16.023',1445.410
'0:16.027',1403.650
'0:16.031',1391.954
'0:16.035',1428.566
'0:16.039',1412.463
'0:16.043',1409.539
'0:16.047',1387.547
'0:16.051',1385.364
'0:16.055',1374.368
'0:16.059',1381.699
'0:16.063',1393.395
'0:16.066',1358.966
'0:16.070',1338.457
'0:16.074',1368.520
'0:16.078',1351.635
'0:16.082',1326.019
'0:16.086',1278.370
'0:16.090',1240.276
'0:16.094',1242.499
'0:16.098',1215.401
'0:16.102',1191.926
'0:16.105',1134.805
'0:16.109',1111.372
'0:16.113',1082.049
'0:16.117',1056.392
'0:16.121',1033.700
'0:16.125',1007.343
'0:16.129',1002.195
'0:16.133',1011.008
'0:16.137',976.538
'0:16.141',922.341
'0:16.145',957.511
'0:16.148',936.261
'0:16.152',911.345
'0:16.156',899.649
'0:16.160',921.599
'0:16.164',919.417
'0:16.168',962.659
'0:16.172',999.271
'0:16.176',1028.552
'0:16.180',1054.210
'0:16.184',1109.148
'0:16.188',1142.136
'0:16.191',1178.006
'0:16.195',1271.081
'0:16.199',1308.434
'0:16.203',1345.046
'0:16.207',1446.151
'0:16.211',1463.736
'0:16.215',1508.420
'0:16.219',1559.693
'0:16.223',1616.855
'0:16.227',1665.205
'0:16.230',1682.049
'0:16.234',1731.880
'0:16.238',1709.889
'0:16.242',1756.796
'0:16.246',1736.246
'0:16.250',1764.827
'0:16.254',1733.322
'0:16.258',1701.817
'0:16.262',1701.817
'0:16.266',1707.706
'0:16.270',1660.798
'0:16.273',1597.788
'0:16.277',1583.168
'0:16.281',1574.354
'0:16.285',1509.161
'0:16.289',1451.999
'0:16.293',1418.311
'0:16.297',1429.307
'0:16.301',1386.806
'0:16.305',1349.452
'0:16.309',1323.095
'0:16.313',1249.830
'0:16.316',1268.115
'0:16.320',1199.257
'0:16.324',1224.914
'0:16.328',1189.744
'0:16.332',1167.052
'0:16.336',1147.984
'0:16.340',1134.805
'0:16.344',1137.729
'0:16.348',1140.653
'0:16.352',1134.064
'0:16.355',1114.296
'0:16.359',1101.117
'0:16.363',1116.479
'0:16.367',1124.551
'0:16.371',1131.140
'0:16.375',1102.559
'0:16.379',1100.376
'0:16.383',1110.631
'0:16.387',1137.729
'0:16.391',1178.748
'0:16.395',1172.158
'0:16.398',1163.386
'0:16.402',1212.436
'0:16.406',1196.333
'0:16.410',1221.249
'0:16.414',1257.861
'0:16.418',1247.606
'0:16.422',1221.249
'0:16.426',1237.352
'0:16.430',1260.085
'0:16.434',1274.746
'0:16.438',1288.666
'0:16.441',1289.366
'0:16.445',1285.001
'0:16.449',1303.286
'0:16.453',1282.035
'0:16.457',1288.666
'0:16.461',1301.845
'0:16.465',1306.210
'0:16.469',1306.210
'0:16.473',1303.286
'0:16.477',1309.175
'0:16.480',1310.617
'0:16.484',1308.434
'0:16.488',1314.282
'0:16.492',1315.023
'0:16.496',1320.871
'0:16.500',1315.765
'0:16.504',1330.385
'0:16.508',1317.206
'0:16.512',1326.019
'0:16.516',1315.023
'0:16.520',1302.586
'0:16.523',1358.966
'0:16.527',1345.046
'0:16.531',1323.795
'0:16.535',1354.600
'0:16.539',1397.802
'0:16.543',1385.364
'0:16.547',1374.368
'0:16.551',1397.060
'0:16.555',1458.629
'0:16.559',1469.584
'0:16.563',1452.740
'0:16.566',1526.005
'0:16.570',1520.157
'0:16.574',1574.354
'0:16.578',1545.773
'0:16.582',1580.944
'0:16.586',1619.038
'0:16.590',1627.851
'0:16.594',1654.950
'0:16.598',1652.767
'0:16.602',1643.954
'0:16.605',1679.125
'0:16.609',1704.782
'0:16.613',1680.607
'0:16.617',1676.201
'0:16.621',1654.950
'0:16.625',1649.802
'0:16.629',1636.623
'0:16.633',1627.851
'0:16.637',1621.262
'0:16.641',1566.282
'0:16.645',1569.248
'0:16.648',1550.921
'0:16.652',1499.648
'0:16.656',1462.253
'0:16.660',1433.713
'0:16.664',1408.056
'0:16.668',1379.475
'0:16.672',1353.118
'0:16.676',1337.715
'0:16.680',1337.015
'0:16.684',1332.609
'0:16.688',1276.929
'0:16.691',1254.937
'0:16.695',1283.518
'0:16.699',1243.241
'0:16.703',1210.253
'0:16.707',1258.602
'0:16.711',1224.914
'0:16.715',1219.066
'0:16.719',1238.093
'0:16.723',1263.009
'0:16.727',1224.914
'0:16.730',1241.758
'0:16.734',1266.674
'0:16.738',1299.621
'0:16.742',1309.875
'0:16.746',1338.457
'0:16.750',1331.126
'0:16.754',1348.711
'0:16.758',1397.060
'0:16.762',1383.140
'0:16.766',1409.539
'0:16.770',1446.151
'0:16.773',1495.241
'0:16.777',1480.580
'0:16.781',1511.344
'0:16.785',1504.755
'0:16.789',1537.001
'0:16.793',1563.358
'0:16.797',1589.016
'0:16.801',1570.689
'0:16.805',1564.841
'0:16.809',1575.837
'0:16.813',1583.868
'0:16.816',1602.194
'0:16.820',1618.297
'0:16.824',1591.940
'0:16.828',1580.202
'0:16.832',1596.346
'0:16.836',1625.628
'0:16.840',1592.681
'0:16.844',1565.582
'0:16.848',1562.658
'0:16.852',1597.088
'0:16.855',1558.252
'0:16.859',1542.849
'0:16.863',1535.519
'0:16.867',1533.336
'0:16.871',1563.358
'0:16.875',1529.670
'0:16.879',1507.679
'0:16.883',1513.568
'0:16.887',1515.009
'0:16.891',1499.648
'0:16.895',1522.340
'0:16.898',1517.233
'0:16.902',1465.919
'0:16.906',1462.253
'0:16.910',1485.728
'0:16.914',1501.831
'0:16.918',1501.831
'0:16.922',1475.473
'0:16.926',1457.888
'0:16.930',1478.397
'0:16.934',1463.736
'0:16.938',1490.093
'0:16.941',1513.568
'0:16.945',1497.424
'0:16.949',1495.983
'0:16.953',1504.013
'0:16.957',1533.336
'0:16.961',1486.469
'0:16.965',1495.241
'0:16.969',1517.233
'0:16.973',1518.675
'0:16.977',1531.853
'0:16.980',1511.344
'0:16.984',1485.728
'0:16.988',1490.093
'0:16.992',1520.157
'0:16.996',1495.983
'0:17.000',1495.983
'0:17.004',1491.576
'0:17.008',1456.405
'0:17.012',1490.835
'0:17.016',1442.485
'0:17.020',1465.919
'0:17.023',1403.650
'0:17.027',1405.132
'0:17.031',1422.718
'0:17.035',1405.132
'0:17.039',1382.399
'0:17.043',1351.635
'0:17.047',1344.305
'0:17.051',1343.604
'0:17.055',1340.680
'0:17.059',1330.385
'0:17.063',1328.202
'0:17.066',1330.385
'0:17.070',1322.354
'0:17.074',1323.795
'0:17.078',1323.795
'0:17.082',1319.430
'0:17.086',1330.385
'0:17.090',1357.524
'0:17.094',1345.787
'0:17.098',1313.541
'0:17.102',1326.019
'0:17.105',1327.461
'0:17.109',1305.510
'0:17.113',1281.335
'0:17.117',1245.424
'0:17.121',1230.021
'0:17.125',1239.575
'0:17.129',1245.424
'0:17.133',1175.082
'0:17.137',1189.744
'0:17.141',1162.645
'0:17.145',1142.877
'0:17.148',1130.399
'0:17.152',1125.292
'0:17.156',1084.232
'0:17.160',1082.049
'0:17.164',1062.281
'0:17.168',1059.357
'0:17.172',1071.795
'0:17.176',1087.197
'0:17.180',1095.969
'0:17.184',1098.893
'0:17.188',1101.817
'0:17.191',1112.813
'0:17.195',1120.144
'0:17.199',1134.064
'0:17.203',1157.497
'0:17.207',1171.417
'0:17.211',1172.158
'0:17.215',1167.052
'0:17.219',1227.838
'0:17.223',1229.321
'0:17.227',1249.830
'0:17.230',1292.290
'0:17.234',1316.506
'0:17.238',1339.198
'0:17.242',1375.810
'0:17.246',1384.623
'0:17.250',1455.664
'0:17.254',1438.820
'0:17.258',1489.393
'0:17.262',1471.808
'0:17.266',1506.237
'0:17.270',1524.564
'0:17.273',1520.898
'0:17.277',1489.393
'0:17.281',1515.751
'0:17.285',1480.580
'0:17.289',1504.013
'0:17.293',1502.572
'0:17.297',1459.329
'0:17.301',1461.553
'0:17.305',1466.660
'0:17.309',1413.204
'0:17.313',1432.972
'0:17.316',1421.976
'0:17.320',1406.615
'0:17.324',1360.448
'0:17.328',1310.617
'0:17.332',1292.290
'0:17.336',1298.179
'0:17.340',1267.415
'0:17.344',1221.249
'0:17.348',1225.656
'0:17.352',1180.972
'0:17.355',1136.988
'0:17.359',1169.234
'0:17.363',1137.729
'0:17.367',1125.992
'0:17.371',1104.041
'0:17.375',1055.692
'0:17.379',1026.370
'0:17.383',1044.696
'0:17.387',1008.784
'0:17.391',956.770
'0:17.395',997.088
'0:17.398',963.359
'0:17.402',926.006
'0:17.406',971.431
'0:17.410',920.899
'0:17.414',923.082
'0:17.418',975.096
'0:17.422',939.185
'0:17.426',988.275
'0:17.430',963.359
'0:17.434',992.682
'0:17.438',1011.008
'0:17.441',1031.518
'0:17.445',1065.947
'0:17.449',1120.885
'0:17.453',1122.327
'0:17.457',1126.733
'0:17.461',1197.816
'0:17.465',1216.842
'0:17.469',1235.169
'0:17.473',1287.925
'0:17.477',1306.210
'0:17.480',1321.613
'0:17.484',1366.296
'0:17.488',1402.950
'0:17.492',1398.543
'0:17.496',1460.812
'0:17.500',1463.736
'0:17.504',1523.822
'0:17.508',1507.679
'0:17.512',1580.944
'0:17.516',1558.252
'0:17.520',1602.194
'0:17.523',1632.958
'0:17.527',1675.459
'0:17.531',1698.893
'0:17.535',1682.790
'0:17.539',1709.147
'0:17.543',1733.322
'0:17.547',1783.154
'0:17.551',1797.074
'0:17.555',1808.069
'0:17.559',1829.320
'0:17.563',1846.905
'0:17.566',1862.267
'0:17.570',1876.187
'0:17.574',1886.441
'0:17.578',1905.509
'0:17.582',1897.437
'0:17.586',1901.844
'0:17.590',1898.920
'0:17.594',1903.285
'0:17.598',1901.844
'0:17.602',1915.022
'0:17.605',1858.601
'0:17.609',1857.860
'0:17.613',1832.985
'0:17.617',1808.069
'0:17.621',1736.987
'0:17.625',1731.880
'0:17.629',1668.129
'0:17.633',1616.855
'0:17.637',1594.864
'0:17.641',1506.237
'0:17.645',1462.995
'0:17.648',1398.543
'0:17.652',1348.711
'0:17.656',1317.947
'0:17.660',1304.027
'0:17.664',1241.758
'0:17.668',1190.485
'0:17.672',1164.828
'0:17.676',1150.167
'0:17.680',1125.292
'0:17.684',1096.711
'0:17.688',1097.452
'0:17.691',1054.210
'0:17.695',1054.951
'0:17.699',1076.201
'0:17.703',1098.893
'0:17.707',1106.965
'0:17.711',1113.555
'0:17.715',1126.733
'0:17.719',1125.992
'0:17.723',1138.471
'0:17.727',1164.087
'0:17.730',1184.637
'0:17.734',1183.154
'0:17.738',1205.846
'0:17.742',1242.499
'0:17.746',1227.838
'0:17.750',1255.678
'0:17.754',1312.841
'0:17.758',1359.707
'0:17.762',1370.703
'0:17.766',1364.114
'0:17.770',1390.471
'0:17.773',1450.557
'0:17.777',1426.383
'0:17.781',1477.656
'0:17.785',1486.469
'0:17.789',1482.804
'0:17.793',1508.420
'0:17.797',1539.925
'0:17.801',1556.028
'0:17.805',1519.416
'0:17.809',1523.081
'0:17.813',1550.180
'0:17.816',1573.613
'0:17.820',1586.833
'0:17.824',1545.073
'0:17.828',1550.921
'0:17.832',1550.921
'0:17.836',1550.921
'0:17.840',1569.248
'0:17.844',1570.689
'0:17.848',1575.837
'0:17.852',1580.202
'0:17.855',1594.864
'0:17.859',1595.605
'0:17.863',1589.757
'0:17.867',1592.681
'0:17.871',1632.958
'0:17.875',1641.030
'0:17.879',1617.597
'0:17.883',1599.270
'0:17.887',1614.673
'0:17.891',1640.289
'0:17.895',1601.453
'0:17.898',1609.525
'0:17.902',1638.106
'0:17.906',1621.262
'0:17.910',1624.927
'0:17.914',1643.954
'0:17.918',1613.190
'0:17.922',1608.784
'0:17.926',1611.007
'0:17.930',1611.007
'0:17.934',1608.784
'0:17.938',1625.628
'0:17.941',1635.182
'0:17.945',1627.851
'0:17.949',1632.217
'0:17.953',1625.628
'0:17.957',1610.266
'0:17.961',1596.346
'0:17.965',1606.601
'0:17.969',1607.342
'0:17.973',1602.936
'0:17.977',1576.578
'0:17.980',1568.506
'0:17.984',1512.085
'0:17.988',1501.831
'0:17.992',1512.085
'0:17.996',1467.401
'0:18.000',1450.557
'0:18.004',1463.736
'0:18.008',1467.401
'0:18.012',1431.490
'0:18.016',1459.329
'0:18.020',1425.642
'0:18.023',1418.311
'0:18.027',1396.319
'0:18.031',1441.744
'0:18.035',1419.052
'0:18.039',1435.896
'0:18.043',1409.539
'0:18.047',1402.950
'0:18.051',1400.726
'0:18.055',1405.874
'0:18.059',1394.136
'0:18.063',1389.730
'0:18.066',1359.707
'0:18.070',1320.130
'0:18.074',1340.680
'0:18.078',1287.925
'0:18.082',1287.183
'0:18.086',1249.830
'0:18.090',1230.762
'0:18.094',1226.356
'0:18.098',1180.230
'0:18.102',1192.668
'0:18.105',1160.421
'0:18.109',1126.733
'0:18.113',1096.711
'0:18.117',1084.973
'0:18.121',1083.532
'0:18.125',1065.205
'0:18.129',1049.803
'0:18.133',1024.187
'0:18.137',968.507
'0:18.141',983.168
'0:18.145',1011.008
'0:18.148',983.869
'0:18.152',965.583
'0:18.156',1018.298
'0:18.160',1027.852
'0:18.164',1047.620
'0:18.168',1063.023
'0:18.172',1079.125
'0:18.176',1095.228
'0:18.180',1110.631
'0:18.184',1113.555
'0:18.188',1139.212
'0:18.191',1136.988
'0:18.195',1152.390
'0:18.199',1184.637
'0:18.203',1187.561
'0:18.207',1197.074
'0:18.211',1181.672
'0:18.215',1241.017
'0:18.219',1209.512
'0:18.223',1234.428
'0:18.227',1263.009
'0:18.230',1292.290
'0:18.234',1339.198
'0:18.238',1365.555
'0:18.242',1389.730
'0:18.246',1399.984
'0:18.250',1441.044
'0:18.254',1476.173
'0:18.258',1508.420
'0:18.262',1527.488
'0:18.266',1581.685
'0:18.270',1607.342
'0:18.273',1632.217
'0:18.277',1665.205
'0:18.281',1734.063
'0:18.285',1720.143
'0:18.289',1754.572
'0:18.293',1770.716
'0:18.297',1775.082
'0:18.301',1778.747
'0:18.305',1784.636
'0:18.309',1780.230
'0:18.313',1772.899
'0:18.316',1762.644
'0:18.320',1742.876
'0:18.324',1755.314
'0:18.328',1696.710
'0:18.332',1693.045
'0:18.336',1652.026
'0:18.340',1601.453
'0:18.344',1569.248
'0:18.348',1526.005
'0:18.352',1509.903
'0:18.355',1501.831
'0:18.359',1440.303
'0:18.363',1390.471
'0:18.367',1369.220
'0:18.371',1339.939
'0:18.375',1326.019
'0:18.379',1279.853
'0:18.383',1252.754
'0:18.387',1257.861
'0:18.391',1212.436
'0:18.395',1183.896
'0:18.398',1196.333
'0:18.402',1137.729
'0:18.406',1147.984
'0:18.410',1116.479
'0:18.414',1099.635
'0:18.418',1097.452
'0:18.422',1086.456
'0:18.426',1076.943
'0:18.430',1060.799
'0:18.434',1010.267
'0:18.438',998.530
'0:18.441',1029.294
'0:18.445',987.534
'0:18.449',971.431
'0:18.453',1016.856
'0:18.457',1008.784
'0:18.461',971.431
'0:18.465',1002.936
'0:18.469',961.918
'0:18.473',1001.454
'0:18.477',956.029
'0:18.480',1002.195
'0:18.484',958.994
'0:18.488',1012.450
'0:18.492',972.914
'0:18.496',992.682
'0:18.500',1039.548
'0:18.504',1034.442
'0:18.508',1076.201
'0:18.512',1060.799
'0:18.516',1092.304
'0:18.520',1147.243
'0:18.523',1153.132
'0:18.527',1171.417
'0:18.531',1224.914
'0:18.535',1289.366
'0:18.539',1311.358
'0:18.543',1375.810
'0:18.547',1397.060
'0:18.551',1432.972
'0:18.555',1483.504
'0:18.559',1545.073
'0:18.563',1578.020
'0:18.566',1621.262
'0:18.570',1655.691
'0:18.574',1725.991
'0:18.578',1720.143
'0:18.582',1758.979
'0:18.586',1794.150
'0:18.590',1838.833
'0:18.594',1893.772
'0:18.598',1876.187
'0:18.602',1905.509
'0:18.605',1952.376
'0:18.609',1958.265
'0:18.613',1958.965
'0:18.617',1934.790
'0:18.621',1923.794
'0:18.625',1912.098
'0:18.629',1887.183
'0:18.633',1882.776
'0:18.637',1851.271
'0:18.641',1854.195
'0:18.645',1781.671
'0:18.648',1771.416
'0:18.652',1710.630
'0:18.656',1693.045
'0:18.660',1641.771
'0:18.664',1597.788
'0:18.668',1560.434
'0:18.672',1567.024
'0:18.676',1495.241
'0:18.680',1478.397
'0:18.684',1488.652
'0:18.688',1463.736
'0:18.691',1441.744
'0:18.695',1397.802
'0:18.699',1382.399
'0:18.703',1356.783
'0:18.707',1345.046
'0:18.711',1383.140
'0:18.715',1380.216
'0:18.719',1363.372
'0:18.723',1336.274
'0:18.727',1359.707
'0:18.730',1343.604
'0:18.734',1320.871
'0:18.738',1351.635
'0:18.742',1367.779
'0:18.746',1337.715
'0:18.750',1329.684
'0:18.754',1358.966
'0:18.758',1342.122
'0:18.762',1330.385
'0:18.766',1334.791
'0:18.770',1361.190
'0:18.773',1361.890
'0:18.777',1366.296
'0:18.781',1387.547
'0:18.785',1363.372
'0:18.789',1359.707
'0:18.793',1405.874
'0:18.797',1369.220
'0:18.801',1424.159
'0:18.805',1408.056
'0:18.809',1399.284
'0:18.813',1400.726
'0:18.816',1403.650
'0:18.820',1399.284
'0:18.824',1400.726
'0:18.828',1402.950
'0:18.832',1451.999
'0:18.836',1435.155
'0:18.840',1422.718
'0:18.844',1465.919
'0:18.848',1449.075
'0:18.852',1431.490
'0:18.855',1463.736
'0:18.859',1488.652
'0:18.863',1452.740
'0:18.867',1495.241
'0:18.871',1514.268
'0:18.875',1513.568
'0:18.879',1485.728
'0:18.883',1513.568
'0:18.887',1541.408
'0:18.891',1534.077
'0:18.895',1514.268
'0:18.898',1516.492
'0:18.902',1522.340
'0:18.906',1553.104
'0:18.910',1519.416
'0:18.914',1512.827
'0:18.918',1517.233
'0:18.922',1525.264
'0:18.926',1522.340
'0:18.930',1542.108
'0:18.934',1529.670
'0:18.938',1546.514
'0:18.941',1539.184
'0:18.945',1546.514
'0:18.949',1545.773
'0:18.953',1545.773
'0:18.957',1548.738
'0:18.961',1548.738
'0:18.965',1547.997
'0:18.969',1547.997
'0:18.973',1542.849
'0:18.977',1531.853
'0:18.980',1537.001
'0:18.984',1541.408
'0:18.988',1542.849
'0:18.992',1478.397
'0:18.996',1494.500
'0:19.000',1488.652
'0:19.004',1432.972
'0:19.008',1404.391
'0:19.012',1436.637
'0:19.016',1392.695
'0:19.020',1364.855
'0:19.023',1401.467
'0:19.027',1350.194
'0:19.031',1398.543
'0:19.035',1382.399
'0:19.039',1350.194
'0:19.043',1404.391
'0:19.047',1399.984
'0:19.051',1381.699
'0:19.055',1399.984
'0:19.059',1408.798
'0:19.063',1413.904
'0:19.066',1399.284
'0:19.070',1448.334
'0:19.074',1423.459
'0:19.078',1402.208
'0:19.082',1389.030
'0:19.086',1408.056
'0:19.090',1405.132
'0:19.094',1403.650
'0:19.098',1356.042
'0:19.102',1332.609
'0:19.105',1307.693
'0:19.109',1285.701
'0:19.113',1275.446
'0:19.117',1258.602
'0:19.121',1273.263
'0:19.125',1268.115
'0:19.129',1209.512
'0:19.133',1231.504
'0:19.137',1241.017
'0:19.141',1202.181
'0:19.145',1224.914
'0:19.148',1178.006
'0:19.152',1184.637
'0:19.156',1214.660
'0:19.160',1194.150
'0:19.164',1194.892
'0:19.168',1176.565
'0:19.172',1226.356
'0:19.176',1194.150
'0:19.180',1239.575
'0:19.184',1242.499
'0:19.188',1231.504
'0:19.191',1255.678
'0:19.195',1275.446
'0:19.199',1246.906
'0:19.203',1279.853
'0:19.207',1323.795
'0:19.211',1333.350
'0:19.215',1364.114
'0:19.219',1383.140
'0:19.223',1394.878
'0:19.227',1380.216
'0:19.230',1443.968
'0:19.234',1454.223
'0:19.238',1460.812
'0:19.242',1503.313
'0:19.246',1488.652
'0:19.250',1558.252
'0:19.254',1529.670
'0:19.258',1550.921
'0:19.262',1590.498
'0:19.266',1614.673
'0:19.270',1630.775
'0:19.273',1638.847
'0:19.277',1624.927
'0:19.281',1608.042
'0:19.285',1596.346
'0:19.289',1587.533
'0:19.293',1583.868
'0:19.297',1575.096
'0:19.301',1570.689
'0:19.305',1547.256
'0:19.309',1535.519
'0:19.313',1539.925
'0:19.316',1528.929
'0:19.320',1539.184
'0:19.324',1478.397
'0:19.328',1498.165
'0:19.332',1484.245
'0:19.336',1434.455
'0:19.340',1434.455
'0:19.344',1399.284
'0:19.348',1392.695
'0:19.352',1369.220
'0:19.355',1353.118
'0:19.359',1354.600
'0:19.363',1347.970
'0:19.367',1326.019
'0:19.371',1263.009
'0:19.375',1288.666
'0:19.379',1253.495
'0:19.383',1219.766
'0:19.387',1259.343
'0:19.391',1229.321
'0:19.395',1185.337
'0:19.398',1199.257
'0:19.402',1210.253
'0:19.406',1203.664
'0:19.410',1181.672
'0:19.414',1180.230
'0:19.418',1161.904
'0:19.422',1159.721
'0:19.426',1155.314
'0:19.430',1111.372
'0:19.434',1129.657
'0:19.438',1118.703
'0:19.441',1118.703
'0:19.445',1115.737
'0:19.449',1117.961
'0:19.453',1116.479
'0:19.457',1115.737
'0:19.461',1119.403
'0:19.465',1123.809
'0:19.469',1121.627
'0:19.473',1120.885
'0:19.477',1134.805
'0:19.480',1109.148
'0:19.484',1120.885
'0:19.488',1168.493
'0:19.492',1168.493
'0:19.496',1157.497
'0:19.500',1131.881
'0:19.504',1159.721
'0:19.508',1165.569
'0:19.512',1139.212
'0:19.516',1177.306
'0:19.520',1133.323
'0:19.523',1167.052
'0:19.527',1128.216
'0:19.531',1169.234
'0:19.535',1166.310
'0:19.539',1155.314
'0:19.543',1178.748
'0:19.547',1222.732
'0:19.551',1255.678
'0:19.555',1300.362
'0:19.559',1345.787
'0:19.563',1400.726
'0:19.566',1405.132
'0:19.570',1499.648
'0:19.574',1542.849
'0:19.578',1553.104
'0:19.582',1648.361
'0:19.586',1701.116
'0:19.590',1741.394
'0:19.594',1798.556
'0:19.598',1791.926
'0:19.602',1866.673
'0:19.605',1870.339
'0:19.609',1897.437
'0:19.613',1933.349
'0:19.617',1960.448
'0:19.621',1968.520
'0:19.625',1972.144
'0:19.629',1975.809
'0:19.633',2006.614
'0:19.637',1979.474
'0:19.641',1950.934
'0:19.645',1920.870
'0:19.648',1915.764
'0:19.652',1854.195
'0:19.656',1830.020
'0:19.660',1793.408
'0:19.664',1747.983
'0:19.668',1709.889
'0:19.672',1627.110
'0:19.676',1594.122
'0:19.680',1560.434
'0:19.684',1498.907
'0:19.688',1448.334
'0:19.691',1402.208
'0:19.695',1398.543
'0:19.699',1326.019
'0:19.703',1323.095
'0:19.707',1274.746
'0:19.711',1237.352
'0:19.715',1264.450
'0:19.719',1203.664
'0:19.723',1227.838
'0:19.727',1197.074
'0:19.730',1222.732
'0:19.734',1254.937
'0:19.738',1262.267
'0:19.742',1254.196
'0:19.746',1243.941
'0:19.750',1263.009
'0:19.754',1286.442
'0:19.758',1315.023
'0:19.762',1374.368
'0:19.766',1385.364
'0:19.770',1374.368
'0:19.773',1387.547
'0:19.777',1441.744
'0:19.781',1428.566
'0:19.785',1460.812
'0:19.789',1446.151
'0:19.793',1501.831
'0:19.797',1520.898
'0:19.801',1478.397
'0:19.805',1500.348
'0:19.809',1519.416
'0:19.813',1543.590
'0:19.816',1539.925
'0:19.820',1504.013
'0:19.824',1501.831
'0:19.828',1523.822
'0:19.832',1529.670
'0:19.836',1503.313
'0:19.840',1479.839
'0:19.844',1459.329
'0:19.848',1474.732
'0:19.852',1461.553
'0:19.855',1475.473
'0:19.859',1465.219
'0:19.863',1440.303
'0:19.867',1394.136
'0:19.871',1391.212
'0:19.875',1391.954
'0:19.879',1380.958
'0:19.883',1400.726
'0:19.887',1403.650
'0:19.891',1402.950
'0:19.895',1410.980
'0:19.898',1369.962
'0:19.902',1370.703
'0:19.906',1380.958
'0:19.910',1392.695
'0:19.914',1384.623
'0:19.918',1378.034
'0:19.922',1416.128
'0:19.926',1402.950
'0:19.930',1396.319
'0:19.934',1382.399
'0:19.938',1402.208
'0:19.941',1389.030
'0:19.945',1388.288
'0:19.949',1416.869
'0:19.953',1419.052
'0:19.957',1397.060
'0:19.961',1449.816
'0:19.965',1449.075
'0:19.969',1419.052
'0:19.973',1418.311
'0:19.977',1456.405
'0:19.980',1478.397
'0:19.984',1440.303
'0:19.988',1477.656
'0:19.992',1446.151
'0:19.996',1468.143
'0:20.000',1484.245
'0:20.004',1456.405
'0:20.008',1433.713
'0:20.012',1476.173
'0:20.016',1440.303
'0:20.020',1405.874
'0:20.023',1412.463
'0:20.027',1424.900
'0:20.031',1394.136
'0:20.035',1374.368
'0:20.039',1359.707
'0:20.043',1356.783
'0:20.047',1366.296
'0:20.051',1398.543
'0:20.055',1430.048
'0:20.059',1441.744
'0:20.063',1460.071
'0:20.066',1435.155
'0:20.070',1451.299
'0:20.074',1474.732
'0:20.078',1501.831
'0:20.082',1545.073
'0:20.086',1537.001
'0:20.090',1568.506
'0:20.094',1542.108
'0:20.098',1591.940
'0:20.102',1564.100
'0:20.105',1531.153
'0:20.109',1539.184
'0:20.113',1549.438
'0:20.117',1512.085
'0:20.121',1505.496
'0:20.125',1451.999
'0:20.129',1427.824
'0:20.133',1437.379
'0:20.137',1357.524
'0:20.141',1369.220
'0:20.145',1308.434
'0:20.148',1326.019
'0:20.152',1257.861
'0:20.156',1241.758
'0:20.160',1250.571
'0:20.164',1229.321
'0:20.168',1161.163
'0:20.172',1172.900
'0:20.176',1180.972
'0:20.180',1175.082
'0:20.184',1164.087
'0:20.188',1167.752
'0:20.191',1162.645
'0:20.195',1172.158
'0:20.199',1161.163
'0:20.203',1183.896
'0:20.207',1199.257
'0:20.211',1216.101
'0:20.215',1218.325
'0:20.219',1209.512
'0:20.223',1259.343
'0:20.227',1287.183
'0:20.230',1304.027
'0:20.234',1326.760
'0:20.238',1361.890
'0:20.242',1410.980
'0:20.246',1424.159
'0:20.250',1467.401
'0:20.254',1479.139
'0:20.258',1482.804
'0:20.262',1547.256
'0:20.266',1526.005
'0:20.270',1586.833
'0:20.273',1563.358
'0:20.277',1607.342
'0:20.281',1595.605
'0:20.285',1616.855
'0:20.289',1633.699
'0:20.293',1652.767
'0:20.297',1643.954
'0:20.301',1607.342
'0:20.305',1611.007
'0:20.309',1627.110
'0:20.313',1587.533
'0:20.316',1615.373
'0:20.320',1566.282
'0:20.324',1579.502
'0:20.328',1580.944
'0:20.332',1517.933
'0:20.336',1506.979
'0:20.340',1518.675
'0:20.344',1491.576
'0:20.348',1481.321
'0:20.352',1426.383
'0:20.355',1414.646
'0:20.359',1368.520
'0:20.363',1367.779
'0:20.367',1342.863
'0:20.371',1284.259
'0:20.375',1293.773
'0:20.379',1245.424
'0:20.383',1263.009
'0:20.387',1212.436
'0:20.391',1175.824
'0:20.395',1177.306
'0:20.398',1143.577
'0:20.402',1142.136
'0:20.406',1158.980
'0:20.410',1156.797
'0:20.414',1147.984
'0:20.418',1139.212
'0:20.422',1125.992
'0:20.426',1128.216
'0:20.430',1125.292
'0:20.434',1120.144
'0:20.438',1125.292
'0:20.441',1126.733
'0:20.445',1130.399
'0:20.449',1132.623
'0:20.453',1139.912
'0:20.457',1144.319
'0:20.461',1142.136
'0:20.465',1159.721
'0:20.469',1166.310
'0:20.473',1156.056
'0:20.477',1224.914
'0:20.480',1209.512
'0:20.484',1259.343
'0:20.488',1235.910
'0:20.492',1280.594
'0:20.496',1303.286
'0:20.500',1331.126
'0:20.504',1329.684
'0:20.508',1354.600
'0:20.512',1355.300
'0:20.516',1360.448
'0:20.520',1356.783
'0:20.523',1353.118
'0:20.527',1323.795
'0:20.531',1292.290
'0:20.535',1286.442
'0:20.539',1283.518
'0:20.543',1307.693
'0:20.547',1333.350
'0:20.551',1290.107
'0:20.555',1328.202
'0:20.559',1369.962
'0:20.563',1344.305
'0:20.566',1377.292
'0:20.570',1438.820
'0:20.574',1473.991
'0:20.578',1488.652
'0:20.582',1550.921
'0:20.586',1537.742
'0:20.590',1576.578
'0:20.594',1622.704
'0:20.598',1673.277
'0:20.602',1709.889
'0:20.605',1718.702
'0:20.609',1717.960
'0:20.613',1753.131
'0:20.617',1772.899
'0:20.621',1761.162
'0:20.625',1739.211
'0:20.629',1780.230
'0:20.633',1772.899
'0:20.637',1744.318
'0:20.641',1706.965
'0:20.645',1689.379
'0:20.648',1687.897
'0:20.652',1644.695
'0:20.656',1614.673
'0:20.660',1629.293
'0:20.664',1558.252
'0:20.668',1534.818
'0:20.672',1517.233
'0:20.676',1468.884
'0:20.680',1413.204
'0:20.684',1405.874
'0:20.688',1368.520
'0:20.691',1323.095
'0:20.695',1304.027
'0:20.699',1312.841
'0:20.703',1285.001
'0:20.707',1275.446
'0:20.711',1248.348
'0:20.715',1287.183
'0:20.719',1272.522
'0:20.723',1265.933
'0:20.727',1315.023
'0:20.730',1304.769
'0:20.734',1306.210
'0:20.738',1331.126
'0:20.742',1345.787
'0:20.746',1373.627
'0:20.750',1394.136
'0:20.754',1410.980
'0:20.758',1430.048
'0:20.762',1450.557
'0:20.766',1475.473
'0:20.770',1496.724
'0:20.773',1486.469
'0:20.777',1540.666
'0:20.781',1517.233
'0:20.785',1569.248
'0:20.789',1531.853
'0:20.793',1545.073
'0:20.797',1583.868
'0:20.801',1550.180
'0:20.805',1537.001
'0:20.809',1555.328
'0:20.813',1566.282
'0:20.816',1528.929
'0:20.820',1557.510
'0:20.824',1515.009
'0:20.828',1548.738
'0:20.832',1534.077
'0:20.836',1492.317
'0:20.840',1490.093
'0:20.844',1512.085
'0:20.848',1455.664
'0:20.852',1475.473
'0:20.855',1459.329
'0:20.859',1451.299
'0:20.863',1441.044
'0:20.867',1414.646
'0:20.871',1399.984
'0:20.875',1408.798
'0:20.879',1355.300
'0:20.883',1356.042
'0:20.887',1382.399
'0:20.891',1353.859
'0:20.895',1345.046
'0:20.898',1386.064
'0:20.902',1389.030
'0:20.906',1350.935
'0:20.910',1357.524
'0:20.914',1399.984
'0:20.918',1408.798
'0:20.922',1369.220
'0:20.926',1368.520
'0:20.930',1375.110
'0:20.934',1389.030
'0:20.938',1400.726
'0:20.941',1394.136
'0:20.945',1390.471
'0:20.949',1390.471
'0:20.953',1394.878
'0:20.957',1397.060
'0:20.961',1425.642
'0:20.965',1462.253
'0:20.969',1438.820
'0:20.973',1441.744
'0:20.977',1430.789
'0:20.980',1437.379
'0:20.984',1456.405
'0:20.988',1472.549
'0:20.992',1449.075
'0:20.996',1480.580
'0:21.000',1460.071
'0:21.004',1448.334
'0:21.008',1414.646
'0:21.012',1395.619
'0:21.016',1375.810
'0:21.020',1374.368
'0:21.023',1364.855
'0:21.027',1334.050
'0:21.031',1288.666
'0:21.035',1303.286
'0:21.039',1299.621
'0:21.043',1276.187
'0:21.047',1256.419
'0:21.051',1284.259
'0:21.055',1248.348
'0:21.059',1247.606
'0:21.063',1293.773
'0:21.066',1264.450
'0:21.070',1299.621
'0:21.074',1347.270
'0:21.078',1349.452
'0:21.082',1358.225
'0:21.086',1356.783
'0:21.090',1372.144
'0:21.094',1389.030
'0:21.098',1424.900
'0:21.102',1447.633
'0:21.105',1454.964
'0:21.109',1446.151
'0:21.113',1436.637
'0:21.117',1418.311
'0:21.121',1436.637
'0:21.125',1425.642
'0:21.129',1409.539
'0:21.133',1394.136
'0:21.137',1372.144
'0:21.141',1334.050
'0:21.145',1319.430
'0:21.148',1315.023
'0:21.152',1271.081
'0:21.156',1289.366
'0:21.160',1263.750
'0:21.164',1219.066
'0:21.168',1250.571
'0:21.172',1225.656
'0:21.176',1199.257
'0:21.180',1245.424
'0:21.184',1206.588
'0:21.188',1256.419
'0:21.191',1230.021
'0:21.195',1233.686
'0:21.199',1274.746
'0:21.203',1294.514
'0:21.207',1290.107
'0:21.211',1309.875
'0:21.215',1314.282
'0:21.219',1376.551
'0:21.223',1401.467
'0:21.227',1411.722
'0:21.230',1446.151
'0:21.234',1511.344
'0:21.238',1549.438
'0:21.242',1547.256
'0:21.246',1595.605
'0:21.250',1647.619
'0:21.254',1643.213
'0:21.258',1708.447
'0:21.262',1694.527
'0:21.266',1746.542
'0:21.270',1764.086
'0:21.273',1809.511
'0:21.277',1781.671
'0:21.281',1794.891
'0:21.285',1816.841
'0:21.289',1840.316
'0:21.293',1808.069
'0:21.297',1789.002
'0:21.301',1778.006
'0:21.305',1779.488
'0:21.309',1769.975
'0:21.313',1771.416
'0:21.316',1732.622
'0:21.320',1695.969
'0:21.324',1657.874
'0:21.328',1675.459
'0:21.332',1642.513
'0:21.336',1568.506
'0:21.340',1563.358
'0:21.344',1537.001
'0:21.348',1459.329
'0:21.352',1468.143
'0:21.355',1405.132
'0:21.359',1339.198
'0:21.363',1351.635
'0:21.367',1309.175
'0:21.371',1234.428
'0:21.375',1235.910
'0:21.379',1221.249
'0:21.383',1184.637
'0:21.387',1169.234
'0:21.391',1152.390
'0:21.395',1147.243
'0:21.398',1084.232
'0:21.402',1070.312
'0:21.406',1084.232
'0:21.410',1106.224
'0:21.414',1100.376
'0:21.418',1055.692
'0:21.422',1081.308
'0:21.426',1090.863
'0:21.430',1102.559
'0:21.434',1057.134
'0:21.438',1093.045
'0:21.441',1106.965
'0:21.445',1075.460
'0:21.449',1072.536
'0:21.453',1102.559
'0:21.457',1100.376
'0:21.461',1061.540
'0:21.465',1091.563
'0:21.469',1101.817
'0:21.473',1104.783
'0:21.477',1106.965
'0:21.480',1120.885
'0:21.484',1131.140
'0:21.488',1115.037
'0:21.492',1109.889
'0:21.496',1119.403
'0:21.500',1183.896
'0:21.504',1186.078
'0:21.508',1188.261
'0:21.512',1161.904
'0:21.516',1216.101
'0:21.520',1177.306
'0:21.523',1232.245
'0:21.527',1198.557
'0:21.531',1245.424
'0:21.535',1248.348
'0:21.539',1232.986
'0:21.543',1231.504
'0:21.547',1262.267
'0:21.551',1298.179
'0:21.555',1285.701
'0:21.559',1338.457
'0:21.563',1347.970
'0:21.566',1354.600
'0:21.570',1391.954
'0:21.574',1458.629
'0:21.578',1515.009
'0:21.582',1525.264
'0:21.586',1561.917
'0:21.590',1595.605
'0:21.594',1643.954
'0:21.598',1691.562
'0:21.602',1758.238
'0:21.605',1747.242
'0:21.609',1818.324
'0:21.613',1841.757
'0:21.617',1821.248
'0:21.621',1856.419
'0:21.625',1860.084
'0:21.629',1868.115
'0:21.633',1882.035
'0:21.637',1889.365
'0:21.641',1859.343
'0:21.645',1890.107
'0:21.648',1846.905
'0:21.652',1851.271
'0:21.656',1804.404
'0:21.660',1756.055
'0:21.664',1724.550
'0:21.668',1696.710
'0:21.672',1674.718
'0:21.676',1637.365
'0:21.680',1614.673
'0:21.684',1553.845
'0:21.688',1512.085
'0:21.691',1460.812
'0:21.695',1435.896
'0:21.699',1399.984
'0:21.703',1353.118
'0:21.707',1374.368
'0:21.711',1305.510
'0:21.715',1323.095
'0:21.719',1276.929
'0:21.723',1312.841
'0:21.727',1282.777
'0:21.730',1302.586
'0:21.734',1260.085
'0:21.738',1304.027
'0:21.742',1273.263
'0:21.746',1312.099
'0:21.750',1270.339
'0:21.754',1314.282
'0:21.758',1308.434
'0:21.762',1327.461
'0:21.766',1361.190
'0:21.770',1334.050
'0:21.773',1382.399
'0:21.777',1395.619
'0:21.781',1407.315
'0:21.785',1403.650
'0:21.789',1421.235
'0:21.793',1413.904
'0:21.797',1387.547
'0:21.801',1396.319
'0:21.805',1389.030
'0:21.809',1394.136
'0:21.813',1412.463
'0:21.816',1391.212
'0:21.820',1407.315
'0:21.824',1415.387
'0:21.828',1432.231
'0:21.832',1424.900
'0:21.836',1416.128
'0:21.840',1430.789
'0:21.844',1422.718
'0:21.848',1417.570
'0:21.852',1375.110
'0:21.855',1380.216
'0:21.859',1413.204
'0:21.863',1384.623
'0:21.867',1349.452
'0:21.871',1391.954
'0:21.875',1391.212
'0:21.879',1391.954
'0:21.883',1384.623
'0:21.887',1344.305
'0:21.891',1331.867
'0:21.895',1365.555
'0:21.898',1374.368
'0:21.902',1337.015
'0:21.906',1334.791
'0:21.910',1350.935
'0:21.914',1373.627
'0:21.918',1386.806
'0:21.922',1391.212
'0:21.926',1375.810
'0:21.930',1368.520
'0:21.934',1387.547
'0:21.938',1385.364
'0:21.941',1414.646
'0:21.945',1442.485
'0:21.949',1418.311
'0:21.953',1402.950
'0:21.957',1452.740
'0:21.961',1438.820
'0:21.965',1428.566
'0:21.969',1420.535
'0:21.973',1430.789
'0:21.977',1430.789
'0:21.980',1432.972
'0:21.984',1459.329
'0:21.988',1463.736
'0:21.992',1449.075
'0:21.996',1503.313
'0:22.000',1481.321
'0:22.004',1490.835
'0:22.008',1488.652
'0:22.012',1467.401
'0:22.016',1465.919
'0:22.020',1494.500
'0:22.023',1492.317
'0:22.027',1481.321
'0:22.031',1465.219
'0:22.035',1443.968
'0:22.039',1391.212
'0:22.043',1367.779
'0:22.047',1358.225
'0:22.051',1362.631
'0:22.055',1377.292
'0:22.059',1378.775
'0:22.063',1384.623
'0:22.066',1379.475
'0:22.070',1348.711
'0:22.074',1353.118
'0:22.078',1367.779
'0:22.082',1380.958
'0:22.086',1428.566
'0:22.090',1459.329
'0:22.094',1465.219
'0:22.098',1458.629
'0:22.102',1462.995
'0:22.105',1515.751
'0:22.109',1511.344
'0:22.113',1487.169
'0:22.117',1512.085
'0:22.121',1484.987
'0:22.125',1528.929
'0:22.129',1495.241
'0:22.133',1464.477
'0:22.137',1446.151
'0:22.141',1479.139
'0:22.145',1438.820
'0:22.148',1397.802
'0:22.152',1428.566
'0:22.156',1389.730
'0:22.160',1346.528
'0:22.164',1362.631
'0:22.168',1348.711
'0:22.172',1309.875
'0:22.176',1328.943
'0:22.180',1281.335
'0:22.184',1286.442
'0:22.188',1299.621
'0:22.191',1295.955
'0:22.195',1247.606
'0:22.199',1247.606
'0:22.203',1247.606
'0:22.207',1283.518
'0:22.211',1287.183
'0:22.215',1304.769
'0:22.219',1328.943
'0:22.223',1329.684
'0:22.227',1341.381
'0:22.230',1375.810
'0:22.234',1380.958
'0:22.238',1401.467
'0:22.242',1405.874
'0:22.246',1452.740
'0:22.250',1462.253
'0:22.254',1458.629
'0:22.258',1493.059
'0:22.262',1535.519
'0:22.266',1522.340
'0:22.270',1536.260
'0:22.273',1578.020
'0:22.277',1587.533
'0:22.281',1589.757
'0:22.285',1591.198
'0:22.289',1598.529
'0:22.293',1615.373
'0:22.297',1625.628
'0:22.301',1631.517
'0:22.305',1668.870
'0:22.309',1646.137
'0:22.313',1628.593
'0:22.316',1631.517
'0:22.320',1616.855
'0:22.324',1599.270
'0:22.328',1589.757
'0:22.332',1566.282
'0:22.336',1554.586
'0:22.340',1557.510
'0:22.344',1561.176
'0:22.348',1525.264
'0:22.352',1505.496
'0:22.355',1548.738
'0:22.359',1495.983
'0:22.363',1506.979
'0:22.367',1505.496
'0:22.371',1489.393
'0:22.375',1447.633
'0:22.379',1429.307
'0:22.383',1451.299
'0:22.387',1422.718
'0:22.391',1386.064
'0:22.395',1385.364
'0:22.398',1371.444
'0:22.402',1361.890
'0:22.406',1345.046
'0:22.410',1344.305
'0:22.414',1327.461
'0:22.418',1263.009
'0:22.422',1252.754
'0:22.426',1271.781
'0:22.430',1231.504
'0:22.434',1232.986
'0:22.438',1194.150
'0:22.441',1180.230
'0:22.445',1171.417
'0:22.449',1172.900
'0:22.453',1166.310
'0:22.457',1144.319
'0:22.461',1083.532
'0:22.465',1122.327
'0:22.469',1060.799
'0:22.473',1084.232
'0:22.477',1039.548
'0:22.480',1076.943
'0:22.484',1051.286
'0:22.488',1016.856
'0:22.492',1058.616
'0:22.496',1022.704
'0:22.500',1051.286
'0:22.504',1032.218
'0:22.508',1061.540
'0:22.512',1018.298
'0:22.516',1045.438
'0:22.520',1053.468
'0:22.523',1015.374
'0:22.527',1063.023
'0:22.531',1038.848
'0:22.535',1059.357
'0:22.539',1048.362
'0:22.543',1068.129
'0:22.547',1044.696
'0:22.551',1061.540
'0:22.555',1104.041
'0:22.559',1113.555
'0:22.563',1120.885
'0:22.566',1153.832
'0:22.570',1145.060
'0:22.574',1193.409
'0:22.578',1197.074
'0:22.582',1278.370
'0:22.586',1313.541
'0:22.590',1359.707
'0:22.594',1371.444
'0:22.598',1395.619
'0:22.602',1488.652
'0:22.605',1482.063
'0:22.609',1542.108
'0:22.613',1593.422
'0:22.617',1600.753
'0:22.621',1643.954
'0:22.625',1673.277
'0:22.629',1719.402
'0:22.633',1753.131
'0:22.637',1728.215
'0:22.641',1736.987
'0:22.645',1779.488
'0:22.648',1756.055
'0:22.652',1782.412
'0:22.656',1761.903
'0:22.660',1739.911
'0:22.664',1766.310
'0:22.668',1706.965
'0:22.672',1697.451
'0:22.676',1682.790
'0:22.680',1676.942
'0:22.684',1626.369
'0:22.688',1567.765
'0:22.691',1557.510
'0:22.695',1546.514
'0:22.699',1476.915
'0:22.703',1496.724
'0:22.707',1429.307
'0:22.711',1397.060
'0:22.715',1427.824
'0:22.719',1391.954
'0:22.723',1351.635
'0:22.727',1390.471
'0:22.730',1369.962
'0:22.734',1364.114
'0:22.738',1350.935
'0:22.742',1408.798
'0:22.746',1375.110
'0:22.750',1424.159
'0:22.754',1435.155
'0:22.758',1439.561
'0:22.762',1461.553
'0:22.766',1466.660
'0:22.770',1524.564
'0:22.773',1510.644
'0:22.777',1538.484
'0:22.781',1528.929
'0:22.785',1580.944
'0:22.789',1541.408
'0:22.793',1596.346
'0:22.797',1547.997
'0:22.801',1555.328
'0:22.805',1593.422
'0:22.809',1545.073
'0:22.813',1581.685
'0:22.816',1542.108
'0:22.820',1578.020
'0:22.824',1534.077
'0:22.828',1517.233
'0:22.832',1552.404
'0:22.836',1528.929
'0:22.840',1530.412
'0:22.844',1512.827
'0:22.848',1496.724
'0:22.852',1487.911
'0:22.855',1467.401
'0:22.859',1448.334
'0:22.863',1452.740
'0:22.867',1438.079
'0:22.871',1376.551
'0:22.875',1378.034
'0:22.879',1403.650
'0:22.883',1399.984
'0:22.887',1356.042
'0:22.891',1367.779
'0:22.895',1372.144
'0:22.898',1381.699
'0:22.902',1408.056
'0:22.906',1406.615
'0:22.910',1379.475
'0:22.914',1385.364
'0:22.918',1416.128
'0:22.922',1446.892
'0:22.926',1417.570
'0:22.930',1413.204
'0:22.934',1437.379
'0:22.938',1435.896
'0:22.941',1442.485
'0:22.945',1441.744
'0:22.949',1441.044
'0:22.953',1448.334
'0:22.957',1497.424
'0:22.961',1474.732
'0:22.965',1468.884
'0:22.969',1504.013
'0:22.973',1476.173
'0:22.977',1533.336
'0:22.980',1495.241
'0:22.984',1556.769
'0:22.988',1516.492
'0:22.992',1573.613
'0:22.996',1547.997
'0:23.000',1589.757
'0:23.004',1580.202
'0:23.008',1584.609
'0:23.012',1632.217
'0:23.016',1592.681
'0:23.020',1616.114
'0:23.023',1621.962
'0:23.027',1605.860
'0:23.031',1584.609
'0:23.035',1621.262
'0:23.039',1575.096
'0:23.043',1580.202
'0:23.047',1547.256
'0:23.051',1518.675
'0:23.055',1498.165
'0:23.059',1528.188
'0:23.063',1517.233
'0:23.066',1493.059
'0:23.070',1481.321
'0:23.074',1463.736
'0:23.078',1459.329
'0:23.082',1451.999
'0:23.086',1461.553
'0:23.090',1480.580
'0:23.094',1505.496
'0:23.098',1487.169
'0:23.102',1473.991
'0:23.105',1522.340
'0:23.109',1471.067
'0:23.113',1517.933
'0:23.117',1511.344
'0:23.121',1500.348
'0:23.125',1482.804
'0:23.129',1449.816
'0:23.133',1447.633
'0:23.137',1435.155
'0:23.141',1430.048
'0:23.145',1408.056
'0:23.148',1387.547
'0:23.152',1315.765
'0:23.156',1319.430
'0:23.160',1274.005
'0:23.164',1267.415
'0:23.168',1212.436
'0:23.172',1244.682
'0:23.176',1218.325
'0:23.180',1195.592
'0:23.184',1174.341
'0:23.188',1155.314
'0:23.191',1147.243
'0:23.195',1145.801
'0:23.199',1092.304
'0:23.203',1077.643
'0:23.207',1102.559
'0:23.211',1121.627
'0:23.215',1092.304
'0:23.219',1122.327
'0:23.223',1099.635
'0:23.227',1092.304
'0:23.230',1147.243
'0:23.234',1158.239
'0:23.238',1173.641
'0:23.242',1150.908
'0:23.246',1197.816
'0:23.250',1216.842
'0:23.254',1230.762
'0:23.258',1252.754
'0:23.262',1263.009
'0:23.266',1256.419
'0:23.270',1304.769
'0:23.273',1330.385
'0:23.277',1316.506
'0:23.281',1328.202
'0:23.285',1354.600
'0:23.289',1397.802
'0:23.293',1413.904
'0:23.297',1402.950
'0:23.301',1398.543
'0:23.305',1462.995
'0:23.309',1462.995
'0:23.313',1476.173
'0:23.316',1497.424
'0:23.320',1490.835
'0:23.324',1506.979
'0:23.328',1517.933
'0:23.332',1520.157
'0:23.336',1504.755
'0:23.340',1487.169
'0:23.344',1472.549
'0:23.348',1515.751
'0:23.352',1500.348
'0:23.355',1483.504
'0:23.359',1459.329
'0:23.363',1457.147
'0:23.367',1430.789
'0:23.371',1419.794
'0:23.375',1419.052
'0:23.379',1411.722
'0:23.383',1423.459
'0:23.387',1407.315
'0:23.391',1399.284
'0:23.395',1372.886
'0:23.398',1335.533
'0:23.402',1299.621
'0:23.406',1300.362
'0:23.410',1325.278
'0:23.414',1277.670
'0:23.418',1298.179
'0:23.422',1295.955
'0:23.426',1260.826
'0:23.430',1225.656
'0:23.434',1269.598
