'sample interval','wrist_ppg'
'0.00390625 sec','mV'
0,1133.339
1,1135.529
2,1142.133
3,1146.512
4,1147.995
5,1163.357
6,1170.702
7,1174.375
8,1179.495
9,1166.288
10,1225.651
11,1233.702
12,1212.443
13,1238.081
14,1240.306
15,1299.634
16,1273.996
17,1320.893
18,1353.841
19,1358.962
20,1383.152
21,1392.687
22,1430.756
23,1438.101
24,1441.739
25,1458.619
26,1468.118
27,1469.602
28,1491.567
29,1515.016
30,1550.189
31,1525.998
32,1573.637
33,1531.119
34,1584.620
35,1538.464
36,1565.550
37,1535.533
38,1575.085
39,1527.482
40,1544.326
41,1512.826
42,1529.671
43,1537.723
44,1491.567
45,1531.860
46,1478.395
47,1516.499
48,1496.688
49,1469.602
50,1455.688
51,1438.843
52,1416.100
53,1424.894
54,1417.584
55,1397.066
56,1393.393
57,1397.066
58,1396.324
59,1391.204
60,1336.255
61,1341.376
62,1343.600
63,1336.255
64,1345.790
65,1343.600
66,1327.462
67,1280.600
68,1275.444
69,1295.961
70,1316.479
71,1312.100
72,1282.048
73,1320.893
74,1285.720
75,1266.651
76,1298.151
77,1315.031
78,1312.100
79,1290.099
80,1267.392
81,1276.185
82,1324.531
83,1295.961
84,1290.841
85,1306.238
86,1343.600
87,1302.565
88,1301.824
89,1325.272
90,1314.290
91,1335.513
92,1333.324
93,1347.238
94,1368.497
95,1396.324
96,1399.256
97,1378.032
98,1376.549
99,1376.549
100,1421.963
101,1413.911
102,1417.584
103,1378.032
104,1399.997
105,1402.928
106,1372.170
107,1362.635
108,1361.893
109,1357.514
110,1353.841
111,1335.513
112,1338.444
113,1312.100
114,1271.807
115,1301.082
116,1294.514
117,1246.875
118,1243.944
119,1271.807
120,1264.461
121,1241.013
122,1211.737
123,1243.944
124,1248.358
125,1219.789
126,1232.961
127,1280.600
128,1279.117
129,1309.875
130,1331.134
131,1334.807
132,1417.584
133,1404.376
134,1493.756
135,1489.377
136,1556.051
137,1562.619
138,1599.275
139,1630.034
140,1664.465
141,1702.569
142,1760.449
143,1753.104
144,1818.329
145,1797.812
146,1810.243
147,1827.829
148,1827.087
149,1827.087
150,1824.898
151,1815.398
152,1801.449
153,1789.019
154,1775.105
155,1767.018
156,1761.897
157,1724.535
158,1700.380
159,1655.672
160,1638.827
161,1634.413
162,1577.275
163,1566.292
164,1570.706
165,1510.637
166,1490.119
167,1493.756
168,1440.291
169,1445.411
170,1392.687
171,1396.324
172,1392.687
173,1358.256
174,1338.444
175,1306.944
176,1295.961
177,1318.669
178,1326.014
179,1316.479
180,1298.151
181,1296.703
182,1281.306
183,1258.599
184,1233.702
185,1220.495
186,1238.823
187,1214.633
188,1209.512
189,1204.392
190,1204.392
191,1201.461
192,1217.564
193,1261.530
194,1266.651
195,1276.927
196,1279.117
197,1263.720
198,1265.944
199,1280.600
200,1294.514
201,1291.583
202,1306.238
203,1341.376
204,1378.738
205,1355.325
206,1402.928
207,1424.894
208,1421.963
209,1402.187
210,1453.463
211,1420.515
212,1430.756
213,1448.342
214,1450.532
215,1455.688
216,1486.446
217,1450.532
218,1487.188
219,1438.101
220,1452.015
221,1452.757
222,1453.463
223,1479.136
224,1477.653
225,1427.119
226,1466.670
227,1450.532
228,1412.463
229,1430.050
230,1405.859
231,1402.928
232,1384.600
233,1407.307
234,1393.393
235,1360.445
236,1336.255
237,1346.531
238,1367.755
239,1370.686
240,1362.635
241,1363.376
242,1361.893
243,1358.962
244,1357.514
245,1316.479
246,1311.358
247,1341.376
248,1317.962
249,1313.548
250,1313.548
251,1328.203
252,1329.651
253,1336.255
254,1332.582
255,1342.859
256,1323.083
257,1342.117
258,1348.721
259,1358.962
260,1335.513
261,1360.445
262,1341.376
263,1330.393
264,1376.549
265,1325.272
266,1370.686
267,1324.531
268,1375.101
269,1364.824
270,1327.462
271,1367.014
272,1353.841
273,1320.893
274,1349.463
275,1372.170
276,1350.169
277,1335.513
278,1347.979
279,1369.945
280,1369.945
281,1365.566
282,1361.893
283,1345.790
284,1325.272
285,1371.428
286,1358.256
287,1342.117
288,1336.255
289,1327.462
290,1324.531
291,1333.324
292,1339.186
293,1347.238
294,1305.496
295,1304.755
296,1346.531
297,1347.238
298,1342.859
299,1331.134
300,1315.031
301,1294.514
302,1301.824
303,1293.772
304,1323.824
305,1334.807
306,1315.737
307,1311.358
308,1310.617
309,1309.169
310,1309.875
311,1321.600
312,1310.617
313,1328.945
314,1309.169
315,1320.893
316,1331.134
317,1328.945
318,1300.376
319,1298.151
320,1318.669
321,1308.427
322,1313.548
323,1307.686
324,1325.272
325,1316.479
326,1317.962
327,1355.325
328,1382.411
329,1354.583
330,1403.670
331,1367.014
332,1414.653
333,1402.928
334,1393.393
335,1410.238
336,1467.412
337,1432.981
338,1489.377
339,1465.929
340,1509.153
341,1484.963
342,1520.136
343,1484.963
344,1508.412
345,1530.413
346,1506.964
347,1502.550
348,1539.912
349,1496.688
350,1540.654
351,1488.636
352,1506.222
353,1506.964
354,1488.636
355,1515.016
356,1480.584
357,1493.756
358,1476.912
359,1466.670
360,1498.912
361,1454.205
362,1490.119
363,1436.618
364,1468.860
365,1438.843
366,1450.532
367,1443.222
368,1406.601
369,1449.084
370,1424.187
371,1398.549
372,1397.066
373,1380.963
374,1361.893
375,1348.721
376,1367.014
377,1378.738
378,1358.962
379,1326.755
380,1305.496
381,1298.151
382,1298.151
383,1290.841
384,1292.289
385,1293.030
386,1283.531
387,1293.772
388,1320.152
389,1339.186
390,1319.410
391,1312.100
392,1295.220
393,1350.169
394,1323.083
395,1304.755
396,1344.307
397,1361.187
398,1315.737
399,1369.238
400,1341.376
401,1375.101
402,1365.566
403,1392.687
404,1353.841
405,1396.324
406,1396.324
407,1387.531
408,1426.377
409,1386.825
410,1397.808
411,1425.635
412,1391.946
413,1402.187
414,1391.204
415,1440.291
416,1389.756
417,1424.187
418,1380.221
419,1406.601
420,1373.617
421,1380.963
422,1410.980
423,1360.445
424,1364.824
425,1383.152
426,1356.031
427,1346.531
428,1345.790
429,1356.031
430,1315.031
431,1323.824
432,1356.773
433,1350.910
434,1322.341
435,1326.014
436,1326.014
437,1304.755
438,1312.100
439,1331.134
440,1343.600
441,1342.117
442,1321.600
443,1294.514
444,1313.548
445,1349.463
446,1336.255
447,1308.427
448,1314.290
449,1320.152
450,1353.841
451,1364.118
452,1393.393
453,1402.187
454,1398.549
455,1388.273
456,1405.118
457,1399.997
458,1428.566
459,1427.825
460,1433.687
461,1446.153
462,1419.773
463,1466.670
464,1445.411
465,1453.463
466,1443.963
467,1413.169
468,1445.411
469,1395.618
470,1397.066
471,1388.273
472,1401.480
473,1362.635
474,1336.255
475,1345.790
476,1306.238
477,1282.048
478,1290.841
479,1221.978
480,1206.581
481,1210.995
482,1216.116
483,1205.133
484,1156.047
485,1163.357
486,1180.201
487,1159.719
488,1114.270
489,1161.167
490,1109.149
491,1147.253
492,1167.771
493,1174.375
494,1181.685
495,1149.443
496,1194.857
497,1196.340
498,1227.840
499,1242.496
500,1249.099
501,1274.738
502,1289.393
503,1293.772
504,1307.686
505,1287.168
506,1352.394
507,1352.394
508,1336.255
509,1371.428
510,1420.515
511,1437.360
512,1449.084
513,1466.670
514,1462.256
515,1456.394
516,1457.136
517,1473.980
518,1520.136
519,1531.860
520,1526.740
521,1515.757
522,1510.637
523,1552.378
524,1536.275
525,1530.413
526,1530.413
527,1578.016
528,1558.240
529,1556.051
530,1591.930
531,1553.120
532,1561.171
533,1564.102
534,1561.171
535,1572.154
536,1567.775
537,1584.620
538,1563.361
539,1556.757
540,1555.309
541,1576.568
542,1541.395
543,1535.533
544,1565.550
545,1521.619
546,1512.085
547,1524.550
548,1498.912
549,1473.980
550,1476.205
551,1489.377
552,1441.739
553,1418.325
554,1416.100
555,1411.721
556,1432.239
557,1369.945
558,1401.480
559,1344.307
560,1355.325
561,1326.014
562,1364.824
563,1323.824
564,1317.221
565,1334.066
566,1298.893
567,1287.910
568,1334.066
569,1301.824
570,1279.858
571,1276.185
572,1323.824
573,1315.737
574,1328.203
575,1309.875
576,1298.893
577,1297.445
578,1282.789
579,1283.531
580,1290.099
581,1322.341
582,1271.807
583,1320.152
584,1303.307
585,1268.134
586,1318.669
587,1303.307
588,1277.669
589,1324.531
590,1320.152
591,1320.152
592,1305.496
593,1356.773
594,1329.651
595,1360.445
596,1343.600
597,1337.738
598,1336.997
599,1361.893
600,1326.755
601,1383.152
602,1337.738
603,1394.135
604,1352.394
605,1406.601
606,1365.566
607,1416.100
608,1399.256
609,1401.480
610,1457.136
611,1465.187
612,1432.239
613,1460.067
614,1485.705
615,1508.412
616,1465.187
617,1476.205
618,1474.722
619,1484.257
620,1487.188
621,1495.981
622,1503.291
623,1523.809
624,1477.653
625,1462.998
626,1457.136
627,1456.394
628,1455.688
629,1476.205
630,1412.463
631,1431.497
632,1421.963
633,1430.050
634,1417.584
635,1361.187
636,1364.118
637,1368.497
638,1378.032
639,1373.617
640,1333.324
641,1375.807
642,1334.807
643,1368.497
644,1367.014
645,1324.531
646,1347.238
647,1373.617
648,1343.600
649,1334.807
650,1347.238
651,1319.410
652,1333.324
653,1297.445
654,1335.513
655,1286.462
656,1323.083
657,1273.996
658,1301.082
659,1265.203
660,1251.289
661,1273.254
662,1245.427
663,1216.116
664,1262.272
665,1253.478
666,1231.513
667,1205.133
668,1205.875
669,1257.857
670,1245.427
671,1255.668
672,1238.823
673,1229.288
674,1284.979
675,1266.651
676,1260.082
677,1320.893
678,1298.893
679,1320.152
680,1320.152
681,1369.238
682,1334.807
683,1389.756
684,1373.617
685,1392.687
686,1416.100
687,1395.618
688,1435.912
689,1397.066
690,1430.756
691,1446.894
692,1399.256
693,1423.446
694,1447.601
695,1414.653
696,1397.808
697,1437.360
698,1434.429
699,1378.738
700,1389.014
701,1420.515
702,1373.617
703,1365.566
704,1373.617
705,1355.325
706,1352.394
707,1365.566
708,1373.617
709,1383.152
710,1353.100
711,1399.256
712,1356.773
713,1406.601
714,1378.032
715,1360.445
716,1388.273
717,1397.066
718,1416.842
719,1387.531
720,1410.980
721,1442.480
722,1445.411
723,1444.670
724,1443.222
725,1467.412
726,1481.326
727,1490.825
728,1486.446
729,1479.843
730,1492.309
731,1491.567
732,1497.429
733,1506.964
734,1520.136
735,1556.757
736,1539.206
737,1511.343
738,1541.395
739,1524.550
740,1498.912
741,1537.723
742,1506.222
743,1499.619
744,1526.740
745,1517.205
746,1478.395
747,1455.688
748,1447.601
749,1441.739
750,1430.756
751,1423.446
752,1416.842
753,1416.842
754,1427.119
755,1434.429
756,1415.394
757,1399.256
758,1430.756
759,1384.600
760,1419.773
761,1390.462
762,1380.221
763,1378.738
764,1385.342
765,1397.066
766,1358.962
767,1382.411
768,1396.324
769,1402.187
770,1357.514
771,1381.669
772,1402.187
773,1367.014
774,1350.910
775,1372.170
776,1365.566
777,1386.083
778,1357.514
779,1335.513
780,1354.583
781,1360.445
782,1344.307
783,1324.531
784,1368.497
785,1346.531
786,1315.737
787,1336.255
788,1353.841
789,1334.807
790,1309.169
791,1305.496
792,1356.031
793,1310.617
794,1336.997
795,1330.393
796,1345.048
797,1337.738
798,1328.945
799,1317.221
800,1369.945
801,1352.394
802,1338.444
803,1368.497
804,1341.376
805,1362.635
806,1352.394
807,1383.152
808,1358.256
809,1349.463
810,1373.617
811,1382.411
812,1367.755
813,1348.721
814,1367.014
815,1375.807
816,1328.203
817,1345.790
818,1317.221
819,1364.824
820,1337.738
821,1311.358
822,1346.531
823,1309.875
824,1347.238
825,1309.169
826,1361.187
827,1324.531
828,1364.824
829,1314.290
830,1363.376
831,1317.962
832,1363.376
833,1366.307
834,1342.117
835,1362.635
836,1370.686
837,1342.117
838,1367.755
839,1353.100
840,1336.997
841,1379.480
842,1368.497
843,1334.066
844,1368.497
845,1356.031
846,1350.169
847,1334.807
848,1364.118
849,1369.945
850,1383.152
851,1329.651
852,1348.721
853,1368.497
854,1339.186
855,1368.497
856,1332.582
857,1322.341
858,1345.790
859,1326.755
860,1347.238
861,1336.997
862,1319.410
863,1333.324
864,1315.737
865,1350.169
866,1322.341
867,1341.376
868,1330.393
869,1306.944
870,1306.944
871,1348.721
872,1327.462
873,1317.221
874,1355.325
875,1331.876
876,1312.806
877,1326.755
878,1364.118
879,1339.186
880,1322.341
881,1361.187
882,1327.462
883,1347.979
884,1361.187
885,1328.945
886,1356.031
887,1340.669
888,1342.859
889,1354.583
890,1311.358
891,1323.083
892,1357.514
893,1316.479
894,1348.721
895,1320.152
896,1342.859
897,1327.462
898,1300.376
899,1336.255
900,1300.376
901,1332.582
902,1354.583
903,1306.238
904,1330.393
905,1362.635
906,1312.806
907,1350.910
908,1342.117
909,1337.738
910,1364.824
911,1333.324
912,1353.841
913,1386.825
914,1349.463
915,1387.531
916,1391.946
917,1350.169
918,1389.014
919,1401.480
920,1401.480
921,1375.101
922,1386.083
923,1413.911
924,1417.584
925,1427.119
926,1438.101
927,1438.843
928,1452.015
929,1469.602
930,1471.791
931,1462.256
932,1482.774
933,1525.998
934,1527.482
935,1543.585
936,1547.257
937,1536.981
938,1526.740
939,1526.740
940,1529.671
941,1563.361
942,1570.706
943,1574.344
944,1599.982
945,1599.275
946,1577.275
947,1572.154
948,1547.999
949,1559.688
950,1579.499
951,1564.102
952,1517.947
953,1493.050
954,1482.774
955,1444.670
956,1433.687
957,1449.084
958,1375.101
959,1391.204
960,1350.169
961,1306.238
962,1323.824
963,1294.514
964,1256.410
965,1211.737
966,1202.944
967,1174.375
968,1178.012
969,1158.236
970,1148.701
971,1147.995
972,1131.150
973,1104.029
974,1106.960
975,1135.529
976,1134.081
977,1154.563
978,1158.978
979,1167.771
980,1176.564
981,1161.167
982,1210.254
983,1210.254
984,1224.168
985,1274.738
986,1284.237
987,1322.341
988,1333.324
989,1332.582
990,1346.531
991,1369.238
992,1394.877
993,1432.239
994,1457.136
995,1475.464
996,1468.118
997,1473.274
998,1484.257
999,1463.739
1000,1473.980
1001,1482.032
1002,1503.291
1003,1517.947
1004,1495.981
1005,1510.637
1006,1512.826
1007,1493.050
1008,1492.309
1009,1489.377
1010,1465.929
1011,1445.411
1012,1437.360
1013,1430.050
1014,1441.739
1015,1432.981
1016,1408.790
1017,1402.187
1018,1411.721
1019,1415.394
1020,1416.100
1021,1427.825
1022,1434.429
1023,1380.963
1024,1394.135
1025,1428.566
1026,1379.480
1027,1380.221
1028,1375.807
1029,1395.618
1030,1422.704
1031,1392.687
1032,1419.032
1033,1421.256
1034,1410.980
1035,1430.756
1036,1397.808
1037,1377.290
1038,1389.014
1039,1419.773
1040,1391.946
1041,1367.755
1042,1394.135
1043,1401.480
1044,1396.324
1045,1367.755
1046,1369.238
1047,1395.618
1048,1390.462
1049,1343.600
1050,1336.997
1051,1356.773
1052,1358.256
1053,1364.118
1054,1314.290
1055,1336.255
1056,1296.703
1057,1336.997
1058,1278.375
1059,1312.806
1060,1300.376
1061,1267.392
1062,1238.823
1063,1259.341
1064,1252.737
1065,1239.565
1066,1220.495
1067,1198.530
1068,1182.426
1069,1183.874
1070,1183.874
1071,1143.581
1072,1155.305
1073,1098.166
1074,1134.787
1075,1102.545
1076,1095.235
1077,1060.804
1078,1092.304
1079,1113.563
1080,1109.891
1081,1112.822
1082,1143.581
1083,1154.563
1084,1159.719
1085,1178.754
1086,1206.581
1087,1280.600
1088,1273.996
1089,1356.031
1090,1360.445
1091,1423.446
1092,1467.412
1093,1485.705
1094,1505.481
1095,1565.550
1096,1615.379
1097,1624.172
1098,1668.138
1099,1669.586
1100,1682.793
1101,1707.690
1102,1704.017
1103,1745.052
1104,1723.087
1105,1772.174
1106,1760.449
1107,1727.466
1108,1751.656
1109,1706.242
1110,1689.362
1111,1660.086
1112,1638.086
1113,1615.379
1114,1598.534
1115,1575.085
1116,1522.326
1117,1536.275
1118,1484.257
1119,1463.739
1120,1428.566
1121,1347.979
1122,1323.083
1123,1318.669
1124,1265.203
1125,1279.858
1126,1223.426
1127,1242.496
1128,1208.806
1129,1183.133
1130,1188.288
1131,1176.564
1132,1190.478
1133,1161.909
1134,1192.667
1135,1179.495
1136,1210.995
1137,1221.978
1138,1232.961
1139,1216.858
1140,1246.875
1141,1262.272
1142,1264.461
1143,1261.530
1144,1268.875
1145,1330.393
1146,1301.082
1147,1355.325
1148,1384.600
1149,1376.549
1150,1397.808
1151,1380.221
1152,1387.531
1153,1401.480
1154,1421.963
1155,1427.119
1156,1432.981
1157,1443.963
1158,1476.205
1159,1495.981
1160,1509.153
1161,1487.894
1162,1473.980
1163,1498.171
1164,1504.774
1165,1477.653
1166,1513.568
1167,1477.653
1168,1528.929
1169,1523.809
1170,1483.515
1171,1511.343
1172,1509.895
1173,1503.291
1174,1487.188
1175,1482.774
1176,1460.808
1177,1496.688
1178,1490.119
1179,1442.480
1180,1460.808
1181,1461.550
1182,1427.119
1183,1460.808
1184,1411.721
1185,1447.601
1186,1390.462
1187,1428.566
1188,1383.894
1189,1389.756
1190,1386.083
1191,1375.101
1192,1403.670
1193,1347.979
1194,1394.135
1195,1338.444
1196,1380.963
1197,1330.393
1198,1349.463
1199,1325.272
1200,1361.187
1201,1319.410
1202,1364.118
1203,1320.893
1204,1314.290
1205,1345.790
1206,1349.463
1207,1313.548
1208,1348.721
1209,1315.031
1210,1338.444
1211,1331.134
1212,1342.859
1213,1312.100
1214,1357.514
1215,1320.152
1216,1324.531
1217,1357.514
1218,1326.014
1219,1357.514
1220,1325.272
1221,1337.738
1222,1315.737
1223,1352.394
1224,1314.290
1225,1350.169
1226,1315.737
1227,1354.583
1228,1323.083
1229,1305.496
1230,1358.256
1231,1322.341
1232,1332.582
1233,1351.652
1234,1327.462
1235,1309.875
1236,1358.256
1237,1336.255
1238,1312.100
1239,1312.100
1240,1358.256
1241,1317.221
1242,1330.393
1243,1353.100
1244,1320.893
1245,1303.307
1246,1297.445
1247,1299.634
1248,1282.789
1249,1283.531
1250,1283.531
1251,1331.134
1252,1320.152
1253,1300.376
1254,1289.393
1255,1329.651
1256,1328.945
1257,1315.031
1258,1301.082
1259,1323.824
1260,1335.513
1261,1323.083
1262,1328.203
1263,1309.169
1264,1315.737
1265,1322.341
1266,1323.824
1267,1337.738
1268,1335.513
1269,1312.806
1270,1296.703
1271,1301.824
1272,1344.307
1273,1347.238
1274,1343.600
1275,1340.669
1276,1331.876
1277,1348.721
1278,1336.997
1279,1342.859
1280,1357.514
1281,1354.583
1282,1350.910
1283,1338.444
1284,1341.376
1285,1344.307
1286,1335.513
1287,1339.928
1288,1342.117
1289,1342.117
1290,1328.203
1291,1337.738
1292,1345.048
1293,1355.325
1294,1350.169
1295,1347.979
1296,1343.600
1297,1400.739
1298,1381.669
1299,1427.119
1300,1405.859
1301,1455.688
1302,1467.412
1303,1463.739
1304,1503.291
1305,1537.723
1306,1520.878
1307,1556.051
1308,1586.809
1309,1614.637
1310,1638.086
1311,1650.552
1312,1652.741
1313,1676.190
1314,1679.862
1315,1675.448
1316,1697.449
1317,1737.742
1318,1704.017
1319,1724.535
1320,1750.173
1321,1726.018
1322,1691.587
1323,1695.224
1324,1690.845
1325,1685.725
1326,1664.465
1327,1635.155
1328,1563.361
1329,1531.119
1330,1522.326
1331,1490.825
1332,1427.825
1333,1368.497
1334,1371.428
1335,1337.738
1336,1298.151
1337,1259.341
1338,1191.219
1339,1142.839
1340,1160.425
1341,1081.322
1342,1111.339
1343,1079.132
1344,1040.286
1345,1068.114
1346,1044.701
1347,1043.959
1348,1022.700
1349,1082.063
1350,1041.770
1351,1100.356
1352,1090.115
1353,1115.011
1354,1112.822
1355,1146.512
1356,1189.736
1357,1208.806
1358,1223.426
1359,1224.168
1360,1282.048
1361,1305.496
1362,1317.221
1363,1326.014
1364,1399.997
1365,1404.376
1366,1425.635
1367,1424.894
1368,1455.688
1369,1494.498
1370,1496.688
1371,1506.964
1372,1553.861
1373,1579.499
1374,1555.309
1375,1594.861
1376,1573.637
1377,1561.913
1378,1580.206
1379,1588.999
1380,1599.275
1381,1592.672
1382,1582.430
1383,1558.982
1384,1550.189
1385,1550.930
1386,1531.860
1387,1521.619
1388,1479.136
1389,1484.257
1390,1487.894
1391,1497.429
1392,1444.670
1393,1451.273
1394,1438.101
1395,1419.773
1396,1389.756
1397,1425.635
1398,1364.118
1399,1386.083
1400,1345.048
1401,1385.342
1402,1377.290
1403,1368.497
1404,1315.737
1405,1305.496
1406,1312.100
1407,1330.393
1408,1339.186
1409,1290.099
1410,1317.962
1411,1329.651
1412,1308.427
1413,1323.083
1414,1334.066
1415,1319.410
1416,1317.962
1417,1364.824
1418,1341.376
1419,1388.273
1420,1358.256
1421,1365.566
1422,1420.515
1423,1406.601
1424,1398.549
1425,1408.049
1426,1427.825
1427,1424.187
1428,1439.549
1429,1470.343
1430,1476.912
1431,1473.274
1432,1479.136
1433,1433.687
1434,1427.119
1435,1424.187
1436,1438.843
1437,1462.256
1438,1454.946
1439,1449.084
1440,1441.032
1441,1430.756
1442,1402.187
1443,1372.170
1444,1394.135
1445,1365.566
1446,1383.894
1447,1367.014
1448,1378.738
1449,1365.566
1450,1384.600
1451,1377.290
1452,1345.790
1453,1323.083
1454,1321.600
1455,1324.531
1456,1367.014
1457,1364.118
1458,1351.652
1459,1334.807
1460,1311.358
1461,1309.169
1462,1335.513
1463,1335.513
1464,1332.582
1465,1333.324
1466,1324.531
1467,1315.737
1468,1295.961
1469,1292.289
1470,1278.375
1471,1257.857
1472,1243.237
1473,1246.875
1474,1186.805
1475,1209.512
1476,1216.116
1477,1175.081
1478,1168.512
1479,1199.271
1480,1212.443
1481,1167.771
1482,1216.858
1483,1188.995
1484,1209.512
1485,1217.564
1486,1220.495
1487,1268.875
1488,1265.203
1489,1268.134
1490,1309.875
1491,1331.876
1492,1335.513
1493,1416.842
1494,1399.256
1495,1469.602
1496,1500.360
1497,1510.637
1498,1548.705
1499,1588.999
1500,1621.982
1501,1704.759
1502,1707.690
1503,1756.777
1504,1742.863
1505,1802.932
1506,1786.088
1507,1791.950
1508,1809.536
1509,1841.037
1510,1846.899
1511,1802.191
1512,1805.864
1513,1818.329
1514,1824.156
1515,1762.639
1516,1774.363
1517,1734.070
1518,1727.466
1519,1731.880
1520,1691.587
1521,1630.776
1522,1597.051
1523,1572.896
1524,1525.257
1525,1511.343
1526,1495.240
1527,1405.118
1528,1409.532
1529,1362.635
1530,1320.893
1531,1276.927
1532,1241.013
1533,1177.270
1534,1129.667
1535,1138.460
1536,1095.977
1537,1049.821
1538,1022.700
1539,1005.113
1540,994.872
1541,1019.769
1542,1010.976
1543,1026.373
1544,996.320
1545,998.545
1546,1038.839
1547,1060.804
1548,1038.839
1549,1055.683
1550,1094.494
1551,1128.219
1552,1132.598
1553,1140.649
1554,1191.219
1555,1236.634
1556,1235.150
1557,1282.048
1558,1323.083
1559,1363.376
1560,1369.238
1561,1381.669
1562,1417.584
1563,1471.791
1564,1498.912
1565,1506.964
1566,1561.913
1567,1544.326
1568,1583.878
1569,1566.292
1570,1613.931
1571,1617.568
1572,1611.000
1573,1614.637
1574,1608.775
1575,1551.636
1576,1551.636
1577,1581.689
1578,1528.929
1579,1516.499
1580,1520.136
1581,1476.205
1582,1493.050
1583,1459.325
1584,1418.325
1585,1451.273
1586,1426.377
1587,1418.325
1588,1383.152
1589,1353.100
1590,1361.187
1591,1372.170
1592,1314.290
1593,1339.928
1594,1345.048
1595,1336.997
1596,1296.703
1597,1325.272
1598,1312.100
1599,1297.445
1600,1324.531
1601,1312.806
1602,1289.393
1603,1312.806
1604,1339.928
1605,1350.910
1606,1303.307
1607,1315.737
1608,1323.824
1609,1350.169
1610,1369.238
1611,1356.031
1612,1361.893
1613,1356.773
1614,1339.928
1615,1335.513
1616,1340.669
1617,1356.031
1618,1382.411
1619,1399.997
1620,1391.204
1621,1389.014
1622,1361.893
1623,1398.549
1624,1415.394
1625,1383.152
1626,1366.307
1627,1419.773
1628,1389.014
1629,1375.101
1630,1404.376
1631,1429.308
1632,1424.187
1633,1404.376
1634,1394.135
1635,1382.411
1636,1421.256
1637,1427.825
1638,1389.756
1639,1409.532
1640,1381.669
1641,1422.704
1642,1381.669
1643,1403.670
1644,1367.014
1645,1388.273
1646,1358.962
1647,1407.307
1648,1361.893
1649,1398.549
1650,1367.014
1651,1342.859
1652,1384.600
1653,1366.307
1654,1328.945
1655,1347.238
1656,1342.859
1657,1356.031
1658,1356.773
1659,1350.169
1660,1333.324
1661,1308.427
1662,1293.030
1663,1323.083
1664,1326.014
1665,1282.048
1666,1287.168
1667,1276.185
1668,1276.927
1669,1274.738
1670,1302.565
1671,1298.151
1672,1305.496
1673,1282.789
1674,1259.341
1675,1293.030
1676,1319.410
1677,1282.789
1678,1303.307
1679,1347.979
1680,1339.186
1681,1346.531
1682,1385.342
1683,1370.686
1684,1369.945
1685,1414.653
1686,1453.463
1687,1420.515
1688,1485.705
1689,1457.877
1690,1498.171
1691,1517.205
1692,1547.999
1693,1567.033
1694,1608.069
1695,1602.913
1696,1613.931
1697,1650.552
1698,1661.534
1699,1689.362
1700,1728.949
1701,1763.381
1702,1745.794
1703,1743.605
1704,1770.691
1705,1759.708
1706,1808.795
1707,1777.294
1708,1804.380
1709,1764.087
1710,1784.604
1711,1729.655
1712,1741.380
1713,1676.931
1714,1654.931
1715,1624.913
1716,1589.741
1717,1522.326
1718,1497.429
1719,1487.188
1720,1419.032
1721,1369.238
1722,1331.876
1723,1297.445
1724,1251.289
1725,1219.789
1726,1186.805
1727,1156.047
1728,1117.201
1729,1066.666
1730,1071.045
1731,1049.080
1732,1024.889
1733,1041.028
1734,993.389
1735,1047.632
1736,1007.338
1737,1054.200
1738,1025.631
1739,1065.183
1740,1027.821
1741,1090.856
1742,1065.925
1743,1080.580
1744,1139.908
1745,1146.512
1746,1177.270
1747,1221.237
1748,1243.237
1749,1264.461
1750,1274.738
1751,1313.548
1752,1312.100
1753,1360.445
1754,1380.221
1755,1380.221
1756,1409.532
1757,1411.721
1758,1447.601
1759,1489.377
1760,1495.240
1761,1506.222
1762,1517.205
1763,1509.895
1764,1505.481
1765,1488.636
1766,1495.240
1767,1488.636
1768,1490.119
1769,1484.963
1770,1484.257
1771,1496.688
1772,1495.981
1773,1511.343
1774,1479.843
1775,1515.757
1776,1468.860
1777,1484.257
1778,1503.291
1779,1448.342
1780,1475.464
1781,1442.480
1782,1474.722
1783,1424.187
1784,1455.688
1785,1412.463
1786,1448.342
1787,1413.911
1788,1412.463
1789,1400.739
1790,1402.187
1791,1359.704
1792,1400.739
1793,1396.324
1794,1362.635
1795,1358.256
1796,1336.255
1797,1364.824
1798,1327.462
1799,1354.583
1800,1372.170
1801,1364.824
1802,1349.463
1803,1361.187
1804,1356.031
1805,1354.583
1806,1341.376
1807,1302.565
1808,1300.376
1809,1290.099
1810,1298.151
1811,1288.651
1812,1277.669
1813,1281.306
1814,1278.375
1815,1287.168
1816,1283.531
1817,1270.323
1818,1295.961
1819,1247.616
1820,1264.461
1821,1269.582
1822,1288.651
1823,1298.893
1824,1301.082
1825,1300.376
1826,1298.151
1827,1295.961
1828,1290.099
1829,1301.082
1830,1298.893
1831,1288.651
1832,1337.738
1833,1342.117
1834,1320.152
1835,1317.962
1836,1369.238
1837,1353.841
1838,1386.083
1839,1361.187
1840,1391.204
1841,1361.187
1842,1404.376
1843,1355.325
1844,1404.376
1845,1365.566
1846,1399.256
1847,1378.032
1848,1346.531
1849,1397.808
1850,1359.704
1851,1378.738
1852,1371.428
1853,1352.394
1854,1400.739
1855,1372.876
1856,1368.497
1857,1406.601
1858,1396.324
1859,1375.807
1860,1416.842
1861,1424.187
1862,1412.463
1863,1404.376
1864,1443.222
1865,1432.239
1866,1494.498
1867,1461.550
1868,1520.878
1869,1522.326
1870,1517.947
1871,1546.516
1872,1564.102
1873,1597.792
1874,1608.775
1875,1643.206
1876,1651.293
1877,1668.880
1878,1696.707
1879,1715.742
1880,1745.052
1881,1761.156
1882,1747.242
1883,1759.708
1884,1808.053
1885,1809.536
1886,1804.380
1887,1771.432
1888,1783.863
1889,1720.862
1890,1714.294
1891,1714.294
1892,1652.741
1893,1640.275
1894,1569.965
1895,1556.757
1896,1492.309
1897,1478.395
1898,1446.153
1899,1384.600
1900,1336.997
1901,1315.737
1902,1268.875
1903,1188.995
1904,1194.151
1905,1122.357
1906,1142.839
1907,1093.046
1908,1064.477
1909,1046.149
1910,1030.752
1911,1034.424
1912,1045.407
1913,1055.683
1914,1049.821
1915,1057.873
1916,1084.253
1917,1065.925
1918,1135.529
1919,1151.632
1920,1148.701
1921,1191.926
1922,1234.444
1923,1294.514
1924,1316.479
1925,1340.669
1926,1373.617
1927,1385.342
1928,1433.687
1929,1484.963
1930,1479.843
1931,1506.222
1932,1537.723
1933,1555.309
1934,1572.154
1935,1570.706
1936,1562.619
1937,1563.361
1938,1608.775
1939,1570.706
1940,1567.033
1941,1552.378
1942,1547.999
1943,1559.688
1944,1558.982
1945,1542.843
1946,1537.723
1947,1520.878
1948,1465.187
1949,1469.602
1950,1493.050
1951,1454.205
1952,1424.187
1953,1458.619
1954,1444.670
1955,1408.049
1956,1443.222
1957,1437.360
1958,1426.377
1959,1394.877
1960,1387.531
1961,1379.480
1962,1394.135
1963,1401.480
1964,1403.670
1965,1389.014
1966,1376.549
1967,1364.824
1968,1416.842
1969,1415.394
1970,1389.014
1971,1379.480
1972,1419.032
1973,1409.532
1974,1412.463
1975,1396.324
1976,1417.584
1977,1436.618
1978,1439.549
1979,1443.963
1980,1413.911
1981,1399.256
1982,1405.859
1983,1432.981
1984,1417.584
1985,1392.687
1986,1414.653
1987,1419.032
1988,1405.118
1989,1404.376
1990,1372.876
1991,1380.221
1992,1395.618
1993,1356.773
1994,1332.582
1995,1345.790
1996,1357.514
1997,1363.376
1998,1314.290
1999,1324.531
2000,1334.066
2001,1336.255
2002,1290.099
2003,1314.290
2004,1281.306
2005,1285.720
2006,1305.496
2007,1269.582
2008,1286.462
2009,1301.082
2010,1247.616
2011,1272.513
2012,1288.651
2013,1237.375
2014,1282.048
2015,1249.099
2016,1272.513
2017,1289.393
2018,1292.289
2019,1256.410
2020,1265.944
2021,1293.772
2022,1278.375
2023,1295.220
2024,1260.788
2025,1267.392
2026,1315.737
2027,1310.617
2028,1292.289
2029,1295.220
2030,1322.341
2031,1323.824
2032,1340.669
2033,1347.238
2034,1409.532
2035,1383.152
2036,1410.980
2037,1451.273
2038,1443.222
2039,1484.963
2040,1500.360
2041,1506.964
2042,1550.930
2043,1565.550
2044,1590.482
2045,1597.051
2046,1621.241
2047,1670.328
2048,1714.294
2049,1701.086
2050,1756.777
2051,1730.397
2052,1799.260
2053,1772.880
2054,1800.743
2055,1853.467
2056,1842.484
2057,1836.622
2058,1849.830
2059,1857.140
2060,1843.226
2061,1848.347
2062,1857.140
2063,1793.398
2064,1774.363
2065,1750.915
2066,1679.121
2067,1628.586
2068,1572.896
2069,1523.067
2070,1460.067
2071,1439.549
2072,1363.376
2073,1315.737
2074,1223.426
2075,1202.944
2076,1137.718
2077,1097.425
2078,1068.114
2079,1015.390
2080,962.630
2081,967.045
2082,925.268
2083,909.906
2084,931.130
2085,886.458
2086,939.923
2087,918.664
2088,915.733
2089,976.544
2090,1008.786
2091,1037.355
2092,1045.407
2093,1067.408
2094,1084.253
2095,1164.840
2096,1186.064
2097,1204.392
2098,1266.651
2099,1331.876
2100,1373.617
2101,1411.721
2102,1427.119
2103,1447.601
2104,1495.240
2105,1528.929
2106,1586.809
2107,1576.568
2108,1612.448
2109,1627.845
2110,1651.999
2111,1673.259
2112,1663.724
2113,1673.259
2114,1716.483
2115,1701.086
2116,1695.966
2117,1690.104
2118,1691.587
2119,1663.724
2120,1639.569
2121,1627.103
2122,1609.516
2123,1631.482
2124,1578.016
2125,1594.119
2126,1550.930
2127,1539.912
2128,1559.688
2129,1508.412
2130,1487.894
2131,1516.499
2132,1492.309
2133,1468.860
2134,1435.170
2135,1400.739
2136,1427.825
2137,1411.721
2138,1360.445
2139,1380.963
2140,1337.738
2141,1327.462
2142,1279.858
2143,1316.479
2144,1255.668
2145,1283.531
2146,1241.013
2147,1282.789
2148,1235.892
2149,1275.444
2150,1291.583
2151,1254.220
2152,1290.841
2153,1315.031
2154,1325.272
2155,1352.394
2156,1355.325
2157,1427.119
2158,1468.860
2159,1457.877
2160,1502.550
2161,1539.206
2162,1561.171
2163,1600.723
2164,1647.621
2165,1679.862
2166,1680.569
2167,1749.431
2168,1726.018
2169,1775.811
2170,1789.019
2171,1799.260
2172,1797.812
2173,1790.467
2174,1782.415
2175,1786.088
2176,1789.725
2177,1783.863
2178,1796.329
2179,1807.311
2180,1768.501
2181,1771.432
2182,1738.449
2183,1753.104
2184,1708.432
2185,1690.845
2186,1719.414
2187,1683.500
2188,1646.137
2189,1624.172
2190,1597.792
2191,1590.482
2192,1584.620
2193,1506.964
2194,1525.257
2195,1464.481
2196,1413.169
2197,1373.617
2198,1342.117
2199,1304.013
2200,1276.185
2201,1265.203
2202,1215.374
2203,1167.771
2204,1167.029
2205,1147.995
2206,1087.925
2207,1035.908
2208,1050.563
2209,986.821
2210,1008.786
2211,955.320
2212,978.769
2213,922.337
2214,965.562
2215,965.562
2216,969.234
2217,963.372
2218,964.114
2219,990.458
2220,995.614
2221,989.752
2222,1056.425
2223,1093.046
2224,1134.081
2225,1159.719
2226,1204.392
2227,1222.720
2228,1281.306
2229,1273.996
2230,1340.669
2231,1393.393
2232,1430.050
2233,1458.619
2234,1467.412
2235,1489.377
2236,1559.688
2237,1550.189
2238,1604.396
2239,1641.017
2240,1611.000
2241,1638.086
2242,1657.155
2243,1666.655
2244,1671.069
2245,1693.035
2246,1687.914
2247,1624.913
2248,1609.516
2249,1626.361
2250,1567.033
2251,1552.378
2252,1525.998
2253,1469.602
2254,1430.050
2255,1393.393
2256,1372.876
2257,1336.997
2258,1322.341
2259,1269.582
2260,1249.099
2261,1229.288
2262,1160.425
2263,1185.357
2264,1120.874
2265,1137.718
2266,1119.426
2267,1073.270
2268,1063.735
2269,1075.459
2270,1078.391
2271,1103.287
2272,1115.753
2273,1106.960
2274,1123.805
2275,1165.581
2276,1154.563
2277,1151.632
2278,1171.444
2279,1208.806
2280,1247.616
2281,1297.445
2282,1293.772
2283,1318.669
2284,1323.083
2285,1393.393
2286,1378.032
2287,1433.687
2288,1408.790
2289,1446.894
2290,1481.326
2291,1451.273
2292,1479.136
2293,1467.412
2294,1483.515
2295,1468.860
2296,1514.274
2297,1487.894
2298,1460.067
2299,1455.688
2300,1495.981
2301,1477.653
2302,1457.877
2303,1447.601
2304,1422.704
2305,1420.515
2306,1453.463
2307,1447.601
2308,1440.291
2309,1410.238
2310,1386.825
2311,1400.739
2312,1387.531
2313,1408.790
2314,1399.997
2315,1377.290
2316,1386.825
2317,1378.738
2318,1372.170
2319,1377.290
2320,1344.307
2321,1333.324
2322,1325.272
2323,1342.117
2324,1358.256
2325,1377.290
2326,1375.807
2327,1369.945
2328,1382.411
2329,1338.444
2330,1343.600
2331,1350.169
2332,1380.221
2333,1375.807
2334,1370.686
2335,1385.342
2336,1372.876
2337,1375.807
2338,1386.083
2339,1381.669
2340,1372.170
2341,1422.704
2342,1402.928
2343,1383.152
2344,1378.032
2345,1378.738
2346,1411.721
2347,1411.721
2348,1408.049
2349,1396.324
2350,1357.514
2351,1339.928
2352,1342.859
2353,1331.876
2354,1361.187
2355,1358.962
2356,1334.807
2357,1340.669
2358,1326.755
2359,1321.600
2360,1312.100
2361,1292.289
2362,1254.926
2363,1250.547
2364,1287.910
2365,1290.841
2366,1287.168
2367,1268.875
2368,1280.600
2369,1283.531
2370,1282.789
2371,1236.634
2372,1278.375
2373,1288.651
2374,1262.272
2375,1242.496
2376,1293.772
2377,1276.185
2378,1280.600
2379,1284.979
2380,1282.048
2381,1275.444
2382,1276.927
2383,1267.392
2384,1245.427
2385,1241.013
2386,1271.065
2387,1281.306
2388,1298.151
2389,1294.514
2390,1293.030
2391,1282.048
2392,1342.117
2393,1334.066
2394,1337.738
2395,1354.583
2396,1400.739
2397,1410.238
2398,1405.118
2399,1427.825
2400,1452.757
2401,1479.136
2402,1504.033
2403,1552.378
2404,1601.465
2405,1591.930
2406,1649.068
2407,1653.483
2408,1656.414
2409,1693.035
2410,1740.674
2411,1723.793
2412,1775.811
2413,1797.070
2414,1808.795
2415,1829.312
2416,1802.932
2417,1810.243
2418,1821.225
2419,1827.087
2420,1824.156
2421,1852.761
2422,1812.467
2423,1778.742
2424,1770.691
2425,1778.036
2426,1698.897
2427,1713.552
2428,1643.948
2429,1597.051
2430,1564.844
2431,1515.016
2432,1445.411
2433,1436.618
2434,1361.893
2435,1299.634
2436,1259.341
2437,1232.219
2438,1151.632
2439,1154.563
2440,1104.029
2441,1071.045
2442,1081.322
2443,1043.959
2444,1029.304
2445,1000.735
2446,989.010
2447,993.389
2448,1037.355
2449,1023.442
2450,1013.907
2451,1073.270
2452,1077.649
2453,1075.459
2454,1088.632
2455,1133.339
2456,1182.426
2457,1218.305
2458,1246.875
2459,1268.134
2460,1337.738
2461,1329.651
2462,1410.238
2463,1442.480
2464,1478.395
2465,1512.826
2466,1516.499
2467,1533.344
2468,1570.706
2469,1619.793
2470,1586.809
2471,1607.327
2472,1624.172
2473,1660.793
2474,1635.896
2475,1651.293
2476,1669.586
2477,1662.276
2478,1636.638
2479,1650.552
2480,1666.655
2481,1609.516
2482,1632.965
2483,1631.482
2484,1580.206
2485,1603.654
2486,1551.636
2487,1529.671
2488,1519.395
2489,1527.482
2490,1474.722
2491,1477.653
2492,1488.636
2493,1421.256
2494,1421.256
2495,1441.032
2496,1378.032
2497,1413.911
2498,1390.462
2499,1358.256
2500,1359.704
2501,1361.187
2502,1343.600
2503,1315.031
2504,1287.168
2505,1289.393
2506,1300.376
2507,1290.841
2508,1272.513
2509,1249.806
2510,1244.685
2511,1231.513
2512,1231.513
2513,1252.737
2514,1268.875
2515,1263.013
2516,1253.478
2517,1257.857
2518,1258.599
2519,1235.150
2520,1261.530
2521,1263.720
2522,1260.788
2523,1267.392
2524,1260.082
2525,1224.168
2526,1225.651
2527,1230.030
2528,1235.150
2529,1258.599
2530,1277.669
2531,1284.979
2532,1280.600
2533,1291.583
2534,1276.927
2535,1291.583
2536,1298.151
2537,1298.893
2538,1301.082
2539,1303.307
2540,1284.979
2541,1282.789
2542,1268.134
2543,1286.462
2544,1331.876
2545,1315.031
2546,1304.755
2547,1295.220
2548,1293.772
2549,1325.272
2550,1340.669
2551,1323.083
2552,1289.393
2553,1333.324
2554,1288.651
2555,1295.961
2556,1318.669
2557,1286.462
2558,1274.738
2559,1321.600
2560,1282.048
2561,1335.513
2562,1298.893
2563,1335.513
2564,1312.806
2565,1333.324
2566,1386.083
2567,1353.100
2568,1386.825
2569,1425.635
2570,1456.394
2571,1489.377
2572,1489.377
2573,1506.964
2574,1590.482
2575,1585.362
2576,1648.362
2577,1690.845
2578,1696.707
2579,1736.259
2580,1810.243
2581,1810.984
2582,1872.537
2583,1873.985
2584,1895.985
2585,1922.330
2586,1942.106
2587,1958.986
2588,1964.107
2589,1956.761
2590,1946.520
2591,1934.054
2592,1924.555
2593,1922.330
2594,1850.536
2595,1804.380
2596,1775.105
2597,1713.552
2598,1668.880
2599,1647.621
2600,1564.102
2601,1490.119
2602,1432.981
2603,1400.739
2604,1359.704
2605,1306.238
2606,1251.289
2607,1200.719
2608,1188.288
2609,1114.270
2610,1112.822
2611,1045.407
2612,1073.270
2613,1044.701
2614,1035.908
2615,1022.700
2616,1025.631
2617,1005.113
2618,1040.286
2619,1064.477
2620,1101.098
2621,1088.632
2622,1153.115
2623,1183.874
2624,1219.047
2625,1243.944
2626,1251.995
2627,1298.151
2628,1356.773
2629,1360.445
2630,1403.670
2631,1469.602
2632,1495.240
2633,1479.136
2634,1515.757
2635,1534.050
2636,1553.861
2637,1558.240
2638,1619.793
2639,1628.586
2640,1622.724
2641,1613.189
2642,1588.293
2643,1633.707
2644,1603.654
2645,1591.224
2646,1595.603
2647,1599.275
2648,1578.016
2649,1608.069
2650,1596.344
2651,1596.344
2652,1580.206
2653,1580.206
2654,1590.482
2655,1584.620
2656,1572.154
2657,1560.430
2658,1578.016
2659,1563.361
2660,1540.654
2661,1558.240
2662,1594.861
2663,1596.344
2664,1585.362
2665,1596.344
2666,1605.138
2667,1561.171
2668,1561.171
2669,1594.119
2670,1605.844
2671,1586.809
2672,1571.412
2673,1623.430
2674,1588.293
2675,1607.327
2676,1628.586
2677,1587.551
2678,1628.586
2679,1578.758
2680,1590.482
2681,1595.603
2682,1586.068
2683,1575.827
2684,1554.568
2685,1578.758
2686,1569.965
2687,1556.051
2688,1536.981
2689,1523.809
2690,1504.033
2691,1493.756
2692,1461.550
2693,1422.704
2694,1421.256
2695,1375.101
2696,1390.462
2697,1348.721
2698,1324.531
2699,1349.463
2700,1328.945
2701,1323.083
2702,1295.220
2703,1279.117
2704,1268.134
2705,1284.979
2706,1274.738
2707,1271.065
2708,1245.427
2709,1250.547
2710,1235.892
2711,1235.150
2712,1232.219
2713,1186.805
2714,1211.737
2715,1158.236
2716,1186.805
2717,1153.115
2718,1167.029
2719,1124.546
2720,1098.166
2721,1127.477
2722,1102.545
2723,1063.735
2724,1062.994
2725,1094.494
2726,1079.132
2727,1062.287
2728,1069.597
2729,1052.752
2730,1103.287
2731,1112.822
2732,1117.942
2733,1149.443
2734,1146.512
2735,1205.133
2736,1219.047
2737,1273.996
2738,1289.393
2739,1302.565
2740,1383.894
2741,1378.738
2742,1458.619
2743,1501.843
2744,1551.636
2745,1588.999
2746,1608.775
2747,1624.172
2748,1646.137
2749,1673.259
2750,1688.656
2751,1710.621
2752,1734.811
2753,1741.380
2754,1719.414
2755,1709.138
2756,1683.500
2757,1677.638
2758,1633.707
2759,1650.552
2760,1585.362
2761,1539.912
2762,1501.843
2763,1473.274
2764,1430.756
2765,1429.308
2766,1355.325
2767,1369.238
2768,1317.962
2769,1285.720
2770,1259.341
2771,1254.220
2772,1191.219
2773,1163.357
2774,1200.719
2775,1160.425
2776,1174.375
2777,1158.978
2778,1139.202
2779,1168.512
2780,1192.667
2781,1177.270
2782,1221.237
2783,1222.720
2784,1209.512
2785,1252.737
2786,1291.583
2787,1328.203
2788,1352.394
2789,1381.669
2790,1383.152
2791,1395.618
2792,1445.411
2793,1487.188
2794,1506.222
2795,1512.085
2796,1567.775
2797,1558.240
2798,1583.878
2799,1614.637
2800,1606.585
2801,1651.999
2802,1621.241
2803,1650.552
2804,1646.137
2805,1676.931
2806,1640.275
2807,1684.241
2808,1632.224
2809,1646.879
2810,1638.827
2811,1608.775
2812,1639.569
2813,1619.051
2814,1569.223
2815,1592.672
2816,1564.102
2817,1521.619
2818,1501.843
2819,1492.309
2820,1476.912
2821,1476.205
2822,1484.963
2823,1427.825
2824,1405.118
2825,1428.566
2826,1416.842
2827,1399.256
2828,1365.566
2829,1353.100
2830,1334.807
2831,1328.203
2832,1359.704
2833,1342.117
2834,1323.083
2835,1309.169
2836,1284.237
2837,1325.272
2838,1322.341
2839,1290.099
2840,1279.858
2841,1262.272
2842,1249.099
2843,1249.099
2844,1282.789
2845,1286.462
2846,1281.306
2847,1261.530
2848,1221.237
2849,1237.375
2850,1254.926
2851,1246.875
2852,1218.305
2853,1250.547
2854,1247.616
2855,1237.375
2856,1256.410
2857,1254.926
2858,1279.117
2859,1271.807
2860,1280.600
2861,1292.289
2862,1294.514
2863,1278.375
2864,1331.134
2865,1306.944
2866,1345.048
2867,1312.806
2868,1360.445
2869,1328.945
2870,1381.669
2871,1344.307
2872,1396.324
2873,1410.238
2874,1372.876
2875,1379.480
2876,1386.083
2877,1439.549
2878,1397.808
2879,1443.963
2880,1390.462
2881,1394.877
2882,1430.050
2883,1423.446
2884,1412.463
2885,1391.946
2886,1372.170
2887,1356.773
2888,1301.082
2889,1298.151
2890,1300.376
2891,1264.461
2892,1202.202
2893,1217.564
2894,1158.236
2895,1172.891
2896,1148.701
2897,1134.787
2898,1087.925
2899,1083.511
2900,1076.201
2901,1060.062
2902,1046.890
2903,1020.511
2904,1028.562
2905,1023.442
2906,1046.890
2907,1101.839
2908,1114.270
2909,1102.545
2910,1177.270
2911,1197.082
2912,1241.013
2913,1269.582
2914,1329.651
2915,1421.963
2916,1427.119
2917,1476.205
2918,1526.740
2919,1581.689
2920,1650.552
2921,1657.862
2922,1710.621
2923,1731.880
2924,1725.277
2925,1769.243
2926,1729.655
2927,1758.966
2928,1711.363
2929,1676.190
2930,1690.845
2931,1611.000
2932,1576.568
2933,1529.671
2934,1494.498
2935,1462.998
2936,1401.480
2937,1350.169
2938,1317.962
2939,1243.944
2940,1194.151
2941,1188.288
2942,1115.011
2943,1123.063
2944,1094.494
2945,1059.356
2946,1056.425
2947,1041.770
2948,1027.821
2949,1038.839
2950,1038.097
2951,1059.356
2952,1059.356
2953,1068.856
2954,1120.132
2955,1170.702
2956,1197.082
2957,1228.582
2958,1293.030
2959,1349.463
2960,1420.515
2961,1484.963
2962,1533.344
2963,1573.637
2964,1616.120
2965,1682.052
2966,1742.863
2967,1769.243
2968,1806.605
2969,1830.760
2970,1878.399
2971,1919.399
2972,1922.330
2973,1938.468
2974,1961.176
2975,1945.779
2976,1967.779
2977,1947.968
2978,1950.193
2979,1912.089
2980,1892.313
2981,1868.864
2982,1845.416
2983,1815.398
2984,1785.346
2985,1758.966
2986,1748.725
2987,1706.948
2988,1667.396
2989,1666.655
2990,1599.275
2991,1600.723
2992,1558.982
2993,1551.636
2994,1492.309
2995,1478.395
2996,1470.343
2997,1470.343
2998,1465.187
2999,1413.911
3000,1438.101
3001,1383.152
3002,1416.100
3003,1381.669
3004,1370.686
3005,1407.307
3006,1356.773
3007,1409.532
3008,1378.032
3009,1402.187
3010,1396.324
3011,1376.549
3012,1402.187
3013,1399.997
3014,1391.204
3015,1397.066
3016,1390.462
3017,1433.687
3018,1405.859
3019,1429.308
3020,1447.601
3021,1455.688
3022,1450.532
3023,1449.826
3024,1434.429
3025,1422.704
3026,1410.238
3027,1420.515
3028,1433.687
3029,1377.290
3030,1399.256
3031,1383.894
3032,1375.807
3033,1342.859
3034,1364.824
3035,1339.186
3036,1313.548
3037,1323.824
3038,1345.790
3039,1335.513
3040,1304.755
3041,1274.738
3042,1261.530
3043,1251.995
3044,1238.081
3045,1223.426
3046,1219.047
3047,1221.237
3048,1179.495
3049,1191.219
3050,1148.701
3051,1181.685
3052,1121.615
3053,1158.236
3054,1098.166
3055,1138.460
3056,1115.011
3057,1119.426
3058,1095.977
3059,1079.838
3060,1118.684
3061,1091.563
3062,1135.529
3063,1166.288
3064,1139.908
3065,1191.926
3066,1238.081
3067,1246.168
3068,1293.030
3069,1303.307
3070,1306.238
3071,1384.600
3072,1383.152
3073,1447.601
3074,1480.584
3075,1469.602
3076,1520.878
3077,1545.068
3078,1565.550
3079,1577.275
3080,1621.982
3081,1663.018
3082,1630.034
3083,1683.500
3084,1649.068
3085,1644.689
3086,1633.707
3087,1619.051
3088,1627.103
3089,1594.119
3090,1511.343
3091,1489.377
3092,1428.566
3093,1407.307
3094,1361.893
3095,1309.169
3096,1209.512
3097,1212.443
3098,1131.856
3099,1077.649
3100,1094.494
3101,1062.994
3102,1032.235
3103,988.269
3104,978.027
3105,947.269
3106,957.510
3107,971.424
3108,952.389
3109,963.372
3110,929.682
3111,941.407
3112,976.544
3113,1018.321
3114,1019.063
3115,1040.286
3116,1076.907
3117,1105.477
3118,1093.046
3119,1165.581
3120,1210.254
3121,1245.427
3122,1280.600
3123,1300.376
3124,1306.238
3125,1387.531
3126,1380.963
3127,1397.066
3128,1421.963
3129,1459.325
3130,1478.395
3131,1486.446
3132,1492.309
3133,1528.929
3134,1560.430
3135,1565.550
3136,1551.636
3137,1569.223
3138,1558.240
3139,1570.706
3140,1558.982
3141,1584.620
3142,1580.947
3143,1562.619
3144,1536.981
3145,1520.136
3146,1523.067
3147,1502.550
3148,1530.413
3149,1501.843
3150,1471.791
3151,1484.963
3152,1484.257
3153,1473.274
3154,1472.533
3155,1469.602
3156,1485.705
3157,1437.360
3158,1429.308
3159,1460.067
3160,1430.756
3161,1443.222
3162,1451.273
3163,1423.446
3164,1422.704
3165,1420.515
3166,1424.187
3167,1421.963
3168,1421.256
3169,1448.342
3170,1440.291
3171,1476.205
3172,1473.274
3173,1457.877
3174,1441.739
3175,1438.101
3176,1441.032
3177,1430.050
3178,1426.377
3179,1422.704
3180,1434.429
3181,1457.136
3182,1440.291
3183,1432.981
3184,1430.050
3185,1430.050
3186,1426.377
3187,1427.119
3188,1424.894
3189,1399.256
3190,1375.101
3191,1381.669
3192,1397.066
3193,1394.877
3194,1414.653
3195,1394.877
3196,1392.687
3197,1413.911
3198,1440.291
3199,1408.049
3200,1394.135
3201,1414.653
3202,1434.429
3203,1424.187
3204,1446.153
3205,1397.808
3206,1424.187
3207,1419.773
3208,1417.584
3209,1428.566
3210,1391.946
3211,1435.912
3212,1382.411
3213,1405.859
3214,1352.394
3215,1391.204
3216,1358.962
3217,1341.376
3218,1299.634
3219,1292.289
3220,1301.824
3221,1287.910
3222,1279.858
3223,1255.668
3224,1242.496
3225,1222.720
3226,1220.495
3227,1191.219
3228,1172.150
3229,1202.202
3230,1217.564
3231,1188.288
3232,1223.426
3233,1195.598
3234,1204.392
3235,1239.565
3236,1271.807
3237,1295.961
3238,1305.496
3239,1347.238
3240,1352.394
3241,1380.963
3242,1409.532
3243,1481.326
3244,1468.118
3245,1513.568
3246,1583.137
3247,1605.844
3248,1619.793
3249,1666.655
3250,1723.087
3251,1706.948
3252,1761.156
3253,1748.725
3254,1743.605
3255,1746.500
3256,1737.742
3257,1739.932
3258,1750.173
3259,1679.121
3260,1675.448
3261,1612.448
3262,1567.033
3263,1523.809
3264,1495.981
3265,1434.429
3266,1388.273
3267,1364.824
3268,1346.531
3269,1282.789
3270,1219.789
3271,1215.374
3272,1168.512
3273,1161.909
3274,1099.650
3275,1100.356
3276,1109.149
3277,1088.632
3278,1076.907
3279,1046.890
3280,1090.856
3281,1081.322
3282,1068.114
3283,1123.063
3284,1091.563
3285,1166.288
3286,1161.167
3287,1212.443
3288,1254.220
3289,1276.185
3290,1290.099
3291,1339.928
3292,1352.394
3293,1394.135
3294,1438.101
3295,1463.739
3296,1468.860
3297,1497.429
3298,1548.705
3299,1527.482
3300,1569.965
3301,1569.965
3302,1608.775
3303,1585.362
3304,1583.878
3305,1592.672
3306,1621.241
3307,1601.465
3308,1570.706
3309,1553.120
3310,1544.326
3311,1550.189
3312,1572.896
3313,1558.982
3314,1549.447
3315,1535.533
3316,1522.326
3317,1476.912
3318,1444.670
3319,1452.757
3320,1457.136
3321,1469.602
3322,1411.721
3323,1424.187
3324,1435.912
3325,1391.946
3326,1391.946
3327,1416.842
3328,1389.756
3329,1356.031
3330,1402.928
3331,1364.824
3332,1380.963
3333,1366.307
3334,1391.946
3335,1370.686
3336,1346.531
3337,1399.997
3338,1386.083
3339,1372.170
3340,1370.686
3341,1366.307
3342,1386.083
3343,1402.928
3344,1433.687
3345,1387.531
3346,1406.601
3347,1438.843
3348,1404.376
3349,1445.411
3350,1465.929
3351,1438.101
3352,1428.566
3353,1444.670
3354,1476.205
3355,1463.739
3356,1439.549
3357,1451.273
3358,1468.118
3359,1487.188
3360,1470.343
3361,1440.291
3362,1466.670
3363,1429.308
3364,1451.273
3365,1433.687
3366,1435.912
3367,1455.688
3368,1402.187
3369,1408.049
3370,1419.773
3371,1396.324
3372,1399.256
3373,1412.463
3374,1354.583
3375,1347.238
3376,1378.032
3377,1322.341
3378,1334.066
3379,1319.410
3380,1300.376
3381,1277.669
3382,1288.651
3383,1247.616
3384,1282.789
3385,1243.237
3386,1264.461
3387,1256.410
3388,1219.789
3389,1232.219
3390,1282.048
3391,1278.375
3392,1258.599
3393,1307.686
3394,1288.651
3395,1330.393
3396,1354.583
3397,1348.721
3398,1402.928
3399,1435.912
3400,1446.894
3401,1449.084
3402,1517.205
3403,1502.550
3404,1560.430
3405,1575.085
3406,1624.172
3407,1675.448
3408,1674.000
3409,1692.293
3410,1722.345
3411,1741.380
3412,1758.225
3413,1778.742
3414,1784.604
3415,1780.967
3416,1769.949
3417,1800.001
3418,1756.035
3419,1719.414
3420,1684.983
3421,1671.069
3422,1576.568
3423,1566.292
3424,1482.032
3425,1408.790
3426,1349.463
3427,1306.944
3428,1253.478
3429,1201.461
3430,1173.633
3431,1093.788
3432,1068.856
3433,1031.493
3434,989.752
3435,945.044
3436,931.872
3437,943.596
3438,939.923
3439,899.630
3440,879.112
3441,909.906
3442,943.596
3443,954.579
3444,950.906
3445,942.113
3446,995.614
3447,1007.338
3448,1062.287
3449,1049.080
3450,1096.719
3451,1151.632
3452,1180.201
3453,1219.789
3454,1254.220
3455,1284.979
3456,1284.237
3457,1368.497
3458,1400.739
3459,1413.169
3460,1426.377
3461,1495.240
3462,1525.998
3463,1556.051
3464,1557.499
3465,1556.757
3466,1586.809
3467,1619.793
3468,1583.878
3469,1617.568
3470,1636.638
3471,1598.534
3472,1615.379
3473,1593.413
3474,1637.344
3475,1629.292
3476,1597.051
3477,1590.482
3478,1632.965
3479,1602.913
3480,1583.137
3481,1572.154
3482,1574.344
3483,1593.413
3484,1602.913
3485,1594.861
3486,1556.757
3487,1537.723
3488,1520.136
3489,1508.412
3490,1494.498
3491,1480.584
3492,1486.446
3493,1468.118
3494,1452.757
3495,1408.049
3496,1419.773
3497,1356.031
3498,1363.376
3499,1313.548
3500,1332.582
3501,1280.600
3502,1252.737
3503,1227.840
3504,1224.168
3505,1232.219
3506,1212.443
3507,1148.701
3508,1170.702
3509,1116.495
3510,1148.701
3511,1097.425
3512,1091.563
3513,1121.615
3514,1104.029
3515,1056.425
3516,1102.545
3517,1073.976
3518,1044.701
3519,1092.304
3520,1065.183
3521,1033.683
3522,1086.442
3523,1053.494
3524,1083.511
3525,1065.183
3526,1093.788
3527,1094.494
3528,1084.994
3529,1121.615
3530,1150.184
3531,1119.426
3532,1123.805
3533,1149.443
3534,1173.633
3535,1198.530
3536,1219.047
3537,1227.840
3538,1243.237
3539,1252.737
3540,1258.599
3541,1268.134
3542,1269.582
3543,1257.151
3544,1242.496
3545,1291.583
3546,1307.686
3547,1296.703
3548,1276.927
3549,1326.014
3550,1331.876
3551,1322.341
3552,1359.704
3553,1361.893
3554,1411.721
3555,1456.394
3556,1453.463
3557,1464.481
3558,1495.981
3559,1536.981
3560,1605.844
3561,1635.896
3562,1624.913
3563,1668.138
3564,1683.500
3565,1702.569
3566,1711.363
3567,1737.742
3568,1715.742
3569,1702.569
3570,1720.156
3571,1665.949
3572,1656.414
3573,1640.275
3574,1591.930
3575,1540.654
3576,1503.291
3577,1468.118
3578,1401.480
3579,1340.669
3580,1301.824
3581,1276.185
3582,1256.410
3583,1179.495
3584,1187.547
3585,1114.270
3586,1135.529
3587,1081.322
3588,1043.959
3589,1051.269
3590,1073.976
3591,1073.976
3592,1063.735
3593,1068.114
3594,1084.994
3595,1084.253
3596,1148.701
3597,1159.719
3598,1183.874
3599,1254.926
3600,1307.686
3601,1315.031
3602,1394.877
3603,1418.325
3604,1471.049
3605,1489.377
3606,1527.482
3607,1575.085
3608,1645.431
3609,1661.534
3610,1676.190
3611,1709.880
3612,1736.259
3613,1761.897
3614,1790.467
3615,1843.226
3616,1819.777
3617,1816.105
3618,1832.950
3619,1817.588
3620,1808.795
3621,1813.915
3622,1795.587
3623,1780.225
3624,1765.570
3625,1755.294
3626,1728.949
3627,1747.984
3628,1732.587
3629,1663.724
3630,1684.983
3631,1624.913
3632,1622.724
3633,1594.119
3634,1589.741
3635,1551.636
3636,1523.809
3637,1504.774
3638,1523.809
3639,1457.877
3640,1465.929
3641,1454.205
3642,1438.843
3643,1410.980
3644,1430.756
3645,1398.549
3646,1450.532
3647,1399.997
3648,1453.463
3649,1406.601
3650,1450.532
3651,1408.049
3652,1462.256
3653,1427.119
3654,1465.929
3655,1462.256
3656,1424.187
3657,1436.618
3658,1430.756
3659,1435.170
3660,1441.032
3661,1435.912
3662,1438.843
3663,1446.153
3664,1487.894
3665,1484.963
3666,1484.257
3667,1484.963
3668,1471.049
3669,1469.602
3670,1444.670
3671,1415.394
3672,1405.118
3673,1398.549
3674,1416.842
3675,1373.617
3676,1385.342
3677,1400.739
3678,1361.187
3679,1339.186
3680,1359.704
3681,1337.738
3682,1306.238
3683,1281.306
3684,1279.858
3685,1258.599
3686,1257.857
3687,1220.495
3688,1233.702
3689,1238.823
3690,1221.978
3691,1185.357
3692,1152.374
3693,1152.374
3694,1170.702
3695,1150.926
3696,1125.994
3697,1149.443
3698,1105.477
3699,1147.253
3700,1125.994
3701,1131.856
3702,1168.512
3703,1183.874
3704,1175.081
3705,1209.512
3706,1224.168
3707,1238.081
3708,1257.151
3709,1276.927
3710,1282.048
3711,1264.461
3712,1331.134
3713,1315.737
3714,1369.945
3715,1375.101
3716,1366.307
3717,1392.687
3718,1416.100
3719,1443.222
3720,1465.929
3721,1484.963
3722,1517.947
3723,1530.413
3724,1558.240
3725,1550.930
3726,1602.206
3727,1575.085
3728,1607.327
3729,1576.568
3730,1591.930
3731,1553.120
3732,1577.275
3733,1531.119
3734,1490.825
3735,1462.256
3736,1467.412
3737,1439.549
3738,1351.652
3739,1370.686
3740,1287.910
3741,1297.445
3742,1238.823
3743,1209.512
3744,1189.736
3745,1169.219
3746,1151.632
3747,1141.391
3748,1142.839
3749,1099.650
3750,1098.166
3751,1069.597
3752,1036.614
3753,1082.063
3754,1030.045
3755,1076.907
3756,1060.062
3757,1034.424
3758,1078.391
3759,1078.391
3760,1123.063
3761,1102.545
3762,1163.357
3763,1139.202
3764,1166.288
3765,1192.667
3766,1249.806
3767,1271.065
3768,1289.393
3769,1326.755
3770,1384.600
3771,1395.618
3772,1435.170
3773,1489.377
3774,1473.274
3775,1517.205
3776,1546.516
3777,1550.189
3778,1557.499
3779,1611.706
3780,1598.534
3781,1614.637
3782,1627.103
3783,1669.586
3784,1638.827
3785,1664.465
3786,1650.552
3787,1627.103
3788,1654.224
3789,1627.103
3790,1600.723
3791,1639.569
3792,1601.465
3793,1568.481
3794,1550.930
3795,1559.688
3796,1536.981
3797,1519.395
3798,1488.636
3799,1473.980
3800,1473.274
3801,1487.188
3802,1459.325
3803,1438.101
3804,1397.808
3805,1414.653
3806,1369.945
3807,1402.928
3808,1363.376
3809,1367.755
3810,1370.686
3811,1347.979
3812,1323.083
3813,1353.841
3814,1316.479
3815,1351.652
3816,1330.393
3817,1300.376
3818,1338.444
3819,1339.186
3820,1302.565
3821,1300.376
3822,1335.513
3823,1335.513
3824,1294.514
3825,1341.376
3826,1322.341
3827,1316.479
3828,1316.479
3829,1341.376
3830,1345.790
3831,1350.169
3832,1312.806
3833,1337.738
3834,1358.256
3835,1333.324
3836,1341.376
3837,1375.807
3838,1352.394
3839,1359.704
3840,1385.342
3841,1405.859
3842,1376.549
3843,1367.014
3844,1394.135
3845,1428.566
3846,1402.928
3847,1397.066
3848,1434.429
3849,1383.894
3850,1432.239
3851,1389.014
3852,1424.187
3853,1372.170
3854,1405.118
3855,1369.945
3856,1376.549
3857,1381.669
3858,1337.738
3859,1359.704
3860,1342.117
3861,1294.514
3862,1307.686
3863,1303.307
3864,1307.686
3865,1306.238
3866,1299.634
3867,1258.599
3868,1268.875
3869,1293.772
3870,1279.117
3871,1266.651
3872,1254.220
3873,1315.031
3874,1301.082
3875,1291.583
3876,1355.325
3877,1334.807
3878,1375.807
3879,1422.704
3880,1427.825
3881,1455.688
3882,1536.275
3883,1527.482
3884,1591.224
3885,1620.499
3886,1643.206
3887,1668.880
3888,1672.517
3889,1707.690
3890,1751.656
3891,1714.294
3892,1729.655
3893,1751.656
3894,1691.587
3895,1701.828
3896,1657.155
3897,1645.431
3898,1657.862
3899,1598.534
3900,1547.999
3901,1509.895
3902,1477.653
3903,1466.670
3904,1427.119
3905,1385.342
3906,1364.118
3907,1357.514
3908,1313.548
3909,1296.703
3910,1267.392
3911,1211.737
3912,1191.926
3913,1193.409
3914,1172.150
3915,1157.494
3916,1131.150
3917,1116.495
3918,1101.098
3919,1093.788
3920,1101.839
3921,1113.563
3922,1120.132
3923,1150.926
3924,1166.288
3925,1208.806
3926,1227.099
3927,1286.462
3928,1287.168
3929,1349.463
3930,1364.824
3931,1365.566
3932,1419.773
3933,1447.601
3934,1454.205
3935,1531.860
3936,1507.706
3937,1536.275
3938,1545.068
3939,1557.499
3940,1565.550
3941,1575.827
3942,1584.620
3943,1593.413
3944,1593.413
3945,1595.603
3946,1594.861
3947,1598.534
3948,1596.344
3949,1579.499
3950,1575.085
3951,1547.999
3952,1553.120
3953,1569.965
3954,1513.568
3955,1536.981
3956,1474.722
3957,1497.429
3958,1442.480
3959,1432.981
3960,1460.808
3961,1437.360
3962,1443.222
3963,1435.912
3964,1395.618
3965,1370.686
3966,1380.221
3967,1406.601
3968,1402.187
3969,1410.238
3970,1361.187
3971,1364.118
3972,1363.376
3973,1358.962
3974,1361.187
3975,1365.566
3976,1370.686
3977,1377.290
3978,1402.187
3979,1401.480
3980,1416.100
3981,1424.894
3982,1439.549
3983,1444.670
3984,1445.411
3985,1438.101
3986,1430.756
3987,1427.119
3988,1437.360
3989,1422.704
3990,1427.825
3991,1440.291
3992,1386.083
3993,1377.290
3994,1345.790
3995,1368.497
3996,1335.513
3997,1288.651
3998,1274.738
3999,1277.669
4000,1263.720
4001,1194.151
4002,1193.409
4003,1209.512
4004,1165.581
4005,1158.978
4006,1125.994
4007,1153.115
4008,1121.615
4009,1092.304
4010,1118.684
4011,1078.391
4012,1114.270
4013,1071.787
4014,1047.632
4015,1096.719
4016,1073.976
4017,1043.959
4018,1097.425
4019,1090.115
4020,1076.201
4021,1110.632
4022,1106.960
4023,1129.667
4024,1140.649
4025,1150.184
4026,1158.236
4027,1194.857
4028,1241.013
4029,1263.720
4030,1288.651
4031,1309.875
4032,1320.152
4033,1326.755
4034,1334.807
4035,1408.049
4036,1386.825
4037,1465.929
4038,1452.015
4039,1495.240
4040,1562.619
4041,1582.430
4042,1604.396
4043,1671.775
4044,1660.793
4045,1714.294
4046,1761.897
4047,1774.363
4048,1792.656
4049,1838.812
4050,1869.606
4051,1855.692
4052,1848.347
4053,1849.088
4054,1833.691
4055,1846.157
4056,1810.243
4057,1778.036
4058,1761.156
4059,1768.501
4060,1684.241
4061,1682.052
4062,1643.948
4063,1577.275
4064,1544.326
4065,1525.257
4066,1484.963
4067,1425.635
4068,1369.238
4069,1306.944
4070,1298.151
4071,1268.875
4072,1248.358
4073,1170.702
4074,1142.839
4075,1151.632
4076,1156.047
4077,1100.356
4078,1131.150
4079,1117.942
4080,1098.908
4081,1147.253
4082,1161.909
4083,1180.201
4084,1151.632
4085,1175.081
4086,1196.340
4087,1235.892
4088,1268.134
4089,1285.720
4090,1301.082
4091,1330.393
4092,1371.428
4093,1423.446
4094,1410.980
4095,1435.170
4096,1483.515
4097,1484.257
4098,1482.032
4099,1525.257
4100,1525.257
4101,1520.878
4102,1510.637
4103,1518.688
4104,1548.705
4105,1542.843
4106,1534.050
4107,1528.929
4108,1471.791
4109,1483.515
4110,1499.619
4111,1439.549
4112,1476.912
4113,1416.100
4114,1453.463
4115,1393.393
4116,1432.239
4117,1396.324
4118,1379.480
4119,1407.307
4120,1361.893
4121,1394.135
4122,1372.876
4123,1391.946
4124,1348.721
4125,1391.204
4126,1339.186
4127,1379.480
4128,1390.462
4129,1355.325
4130,1404.376
4131,1364.118
4132,1388.273
4133,1387.531
4134,1409.532
4135,1382.411
4136,1374.359
4137,1402.928
4138,1367.755
4139,1412.463
4140,1377.290
4141,1392.687
4142,1367.014
4143,1383.894
4144,1369.238
4145,1361.187
4146,1361.893
4147,1337.738
4148,1342.859
4149,1342.117
4150,1321.600
4151,1282.789
4152,1306.944
4153,1312.806
4154,1287.910
4155,1288.651
4156,1286.462
4157,1297.445
4158,1276.927
4159,1270.323
4160,1253.478
4161,1254.926
4162,1265.203
4163,1313.548
4164,1272.513
4165,1288.651
4166,1313.548
4167,1300.376
4168,1283.531
4169,1323.083
4170,1283.531
4171,1292.289
4172,1305.496
4173,1278.375
4174,1257.857
4175,1290.099
4176,1280.600
4177,1242.496
4178,1216.858
4179,1259.341
4180,1232.219
4181,1235.892
4182,1232.219
4183,1216.116
4184,1210.995
4185,1239.565
4186,1243.944
4187,1247.616
4188,1248.358
4189,1261.530
4190,1265.203
4191,1299.634
4192,1298.893
4193,1285.720
4194,1355.325
4195,1345.048
4196,1382.411
4197,1410.238
4198,1429.308
4199,1441.739
4200,1484.963
4201,1500.360
4202,1504.774
4203,1519.395
4204,1542.843
4205,1557.499
4206,1561.171
4207,1567.033
4208,1568.481
4209,1565.550
4210,1553.861
4211,1575.085
4212,1550.930
4213,1520.878
4214,1529.671
4215,1474.722
4216,1463.739
4217,1410.238
4218,1406.601
4219,1369.238
4220,1358.256
4221,1320.152
4222,1288.651
4223,1276.185
4224,1273.996
4225,1243.944
4226,1194.151
4227,1183.874
4228,1164.098
4229,1193.409
4230,1182.426
4231,1137.012
4232,1132.598
4233,1169.960
4234,1179.495
4235,1137.012
4236,1191.926
4237,1188.995
4238,1227.840
4239,1245.427
4240,1249.099
4241,1238.081
4242,1312.100
4243,1287.168
4244,1335.513
4245,1386.825
4246,1400.739
4247,1382.411
4248,1403.670
4249,1426.377
4250,1444.670
4251,1444.670
4252,1449.826
4253,1454.946
4254,1461.550
4255,1468.118
4256,1510.637
4257,1500.360
4258,1468.118
4259,1458.619
4260,1473.980
4261,1498.912
4262,1479.136
4263,1441.032
4264,1452.015
4265,1452.015
4266,1479.136
4267,1449.826
4268,1454.205
4269,1435.170
4270,1457.136
4271,1415.394
4272,1461.550
4273,1414.653
4274,1430.050
4275,1438.843
4276,1424.894
4277,1458.619
4278,1424.187
4279,1432.981
4280,1441.032
4281,1442.480
4282,1468.860
4283,1460.808
4284,1512.826
4285,1493.050
4286,1491.567
4287,1515.757
4288,1550.189
4289,1540.654
4290,1546.516
4291,1594.861
4292,1567.775
4293,1607.327
4294,1573.637
4295,1627.103
4296,1589.741
4297,1599.982
4298,1631.482
4299,1603.654
4300,1615.379
4301,1633.707
4302,1592.672
4303,1598.534
4304,1586.068
4305,1556.051
4306,1564.844
4307,1514.274
4308,1489.377
4309,1473.274
4310,1445.411
4311,1425.635
4312,1399.256
4313,1409.532
4314,1358.962
4315,1353.100
4316,1312.100
4317,1320.893
4318,1253.478
4319,1224.168
4320,1217.564
4321,1202.944
4322,1176.564
4323,1112.822
4324,1134.081
4325,1065.925
4326,1093.046
4327,1029.304
4328,1068.114
4329,1022.700
4330,1003.666
4331,1010.976
4332,1008.045
4333,1058.615
4334,1079.838
4335,1068.856
4336,1122.357
4337,1117.201
4338,1130.408
4339,1180.201
4340,1220.495
4341,1257.857
4342,1289.393
4343,1345.048
4344,1338.444
4345,1413.169
4346,1446.894
4347,1473.274
4348,1500.360
4349,1552.378
4350,1622.724
4351,1649.068
4352,1690.104
4353,1717.225
4354,1753.846
4355,1795.587
4356,1835.881
4357,1849.088
4358,1873.243
4359,1867.381
4360,1868.123
4361,1865.191
4362,1841.037
4363,1821.967
4364,1797.070
4365,1758.966
4366,1730.397
4367,1700.380
4368,1677.638
4369,1584.620
4370,1535.533
4371,1498.912
4372,1475.464
4373,1385.342
4374,1365.566
4375,1301.082
4376,1260.788
4377,1243.944
4378,1195.598
4379,1163.357
4380,1104.770
4381,1051.269
4382,1067.408
4383,1000.735
4384,1032.235
4385,1001.476
4386,971.424
4387,960.441
4388,983.890
4389,997.803
4390,977.286
4391,983.890
4392,1038.839
4393,1071.045
4394,1084.994
4395,1090.856
4396,1153.857
4397,1198.530
4398,1217.564
4399,1240.306
4400,1282.789
4401,1321.600
4402,1355.325
4403,1357.514
4404,1430.756
4405,1449.084
4406,1476.205
4407,1503.291
4408,1501.102
4409,1558.982
4410,1588.293
4411,1551.636
4412,1579.499
4413,1623.430
4414,1586.809
4415,1617.568
4416,1594.119
4417,1633.707
4418,1583.878
4419,1622.724
4420,1580.947
4421,1603.654
4422,1558.982
4423,1551.636
4424,1569.965
4425,1552.378
4426,1531.119
4427,1512.085
4428,1443.963
4429,1452.015
4430,1444.670
4431,1376.549
4432,1405.118
4433,1350.169
4434,1335.513
4435,1334.807
4436,1304.013
4437,1269.582
4438,1290.841
4439,1281.306
4440,1278.375
4441,1282.789
4442,1271.807
4443,1271.807
4444,1275.444
4445,1273.996
4446,1274.738
4447,1247.616
4448,1230.030
4449,1229.288
4450,1269.582
4451,1284.237
4452,1263.013
4453,1254.220
4454,1238.823
4455,1287.910
4456,1277.669
4457,1271.807
4458,1251.995
4459,1243.944
4460,1234.444
4461,1276.185
4462,1282.789
4463,1279.858
4464,1268.134
4465,1248.358
4466,1235.892
4467,1235.892
4468,1220.495
4469,1231.513
4470,1232.961
4471,1243.944
4472,1258.599
4473,1254.926
4474,1239.565
4475,1247.616
4476,1191.219
4477,1179.495
4478,1191.219
4479,1212.443
4480,1150.926
4481,1183.133
4482,1137.012
4483,1116.495
4484,1139.908
4485,1119.426
4486,1106.960
4487,1065.925
4488,1094.494
4489,1072.528
4490,1066.666
4491,1027.821
4492,1082.063
4493,1043.218
4494,1101.098
4495,1120.874
4496,1115.753
4497,1159.719
4498,1193.409
4499,1235.150
4500,1249.099
4501,1328.203
4502,1334.807
4503,1393.393
4504,1461.550
4505,1495.240
4506,1593.413
4507,1598.534
4508,1680.569
4509,1723.087
4510,1751.656
4511,1781.673
4512,1858.623
4513,1872.537
4514,1858.623
4515,1865.933
4516,1898.175
4517,1855.692
4518,1879.847
4519,1853.467
4520,1798.518
4521,1761.156
4522,1731.880
4523,1712.069
4524,1668.880
4525,1632.965
4526,1573.637
4527,1523.067
4528,1518.688
4529,1451.273
4530,1397.808
4531,1363.376
4532,1358.256
4533,1345.048
4534,1295.220
4535,1257.857
4536,1287.910
4537,1235.892
4538,1262.272
4539,1226.357
4540,1220.495
4541,1257.151
4542,1265.944
4543,1245.427
4544,1282.789
4545,1301.824
4546,1284.979
4547,1332.582
4548,1310.617
4549,1350.910
4550,1381.669
4551,1369.238
4552,1416.100
4553,1437.360
4554,1476.912
4555,1472.533
4556,1475.464
4557,1507.706
4558,1516.499
4559,1554.568
4560,1535.533
4561,1587.551
4562,1567.775
4563,1582.430
4564,1567.033
4565,1599.275
4566,1586.068
4567,1557.499
4568,1591.224
4569,1565.550
4570,1541.395
4571,1522.326
4572,1564.102
4573,1530.413
4574,1502.550
4575,1494.498
4576,1491.567
4577,1485.705
4578,1501.843
4579,1482.774
4580,1473.980
4581,1457.136
4582,1462.998
4583,1453.463
4584,1443.963
4585,1403.670
4586,1385.342
4587,1400.739
4588,1420.515
4589,1367.014
4590,1377.290
4591,1390.462
4592,1375.101
4593,1386.083
4594,1386.083
4595,1403.670
4596,1417.584
4597,1408.049
4598,1406.601
4599,1426.377
4600,1430.050
4601,1406.601
4602,1436.618
4603,1441.032
4604,1452.015
4605,1448.342
4606,1430.050
4607,1423.446
4608,1404.376
4609,1403.670
4610,1412.463
4611,1413.911
4612,1394.877
4613,1382.411
4614,1376.549
4615,1369.238
4616,1368.497
4617,1364.824
4618,1377.290
4619,1369.238
4620,1368.497
4621,1315.031
4622,1306.944
4623,1327.462
4624,1335.513
4625,1278.375
4626,1286.462
4627,1304.755
4628,1264.461
4629,1298.151
4630,1250.547
4631,1283.531
4632,1262.272
4633,1233.702
4634,1251.995
4635,1282.048
4636,1263.013
4637,1274.738
4638,1272.513
4639,1273.996
4640,1270.323
4641,1263.013
4642,1248.358
4643,1217.564
4644,1229.288
4645,1209.512
4646,1207.323
4647,1206.581
4648,1207.323
4649,1211.737
4650,1219.047
4651,1216.116
4652,1221.237
4653,1263.013
4654,1278.375
4655,1289.393
4656,1259.341
4657,1318.669
4658,1285.720
4659,1352.394
4660,1343.600
4661,1343.600
4662,1388.273
4663,1438.101
4664,1438.101
4665,1464.481
4666,1493.050
4667,1567.033
4668,1591.224
4669,1595.603
4670,1598.534
4671,1664.465
4672,1640.275
4673,1677.638
4674,1678.379
4675,1660.793
4676,1639.569
4677,1651.999
4678,1611.000
4679,1630.776
4680,1595.603
4681,1556.757
4682,1544.326
4683,1513.568
4684,1427.119
4685,1406.601
4686,1354.583
4687,1316.479
4688,1317.221
4689,1237.375
4690,1194.857
4691,1167.771
4692,1164.840
4693,1114.270
4694,1120.874
4695,1058.615
4696,1090.856
4697,1022.700
4698,1062.994
4699,1029.304
4700,1024.889
4701,1025.631
4702,1002.924
4703,1015.390
4704,1039.545
4705,1042.476
4706,1020.511
4707,1076.201
4708,1046.890
4709,1102.545
4710,1119.426
4711,1167.771
4712,1194.151
4713,1221.237
4714,1230.771
4715,1281.306
4716,1304.013
4717,1334.807
4718,1349.463
4719,1377.290
4720,1419.032
4721,1417.584
4722,1487.894
4723,1470.343
4724,1519.395
4725,1493.756
4726,1536.275
4727,1525.257
4728,1534.792
4729,1566.292
4730,1575.827
4731,1602.206
4732,1583.878
4733,1591.224
4734,1597.792
4735,1616.862
4736,1623.430
4737,1605.138
4738,1613.189
4739,1621.982
4740,1621.241
4741,1597.792
4742,1638.086
4743,1627.845
4744,1594.119
4745,1600.723
4746,1638.086
4747,1631.482
4748,1623.430
4749,1602.913
4750,1586.809
4751,1588.293
4752,1603.654
4753,1583.137
4754,1561.171
4755,1563.361
4756,1574.344
4757,1567.033
4758,1556.051
4759,1506.964
4760,1529.671
4761,1540.654
4762,1496.688
4763,1491.567
4764,1495.981
4765,1506.964
4766,1520.878
4767,1481.326
4768,1459.325
4769,1486.446
4770,1459.325
4771,1443.222
4772,1430.050
4773,1452.757
4774,1432.981
4775,1424.894
4776,1416.842
4777,1401.480
4778,1362.635
4779,1374.359
4780,1359.704
4781,1356.773
4782,1350.169
4783,1342.859
4784,1331.134
4785,1328.945
4786,1320.893
4787,1323.083
4788,1304.013
4789,1301.824
4790,1285.720
4791,1273.254
4792,1322.341
4793,1312.100
4794,1289.393
4795,1280.600
4796,1278.375
4797,1271.065
4798,1274.738
4799,1212.443
4800,1230.030
4801,1216.116
4802,1170.702
4803,1205.133
4804,1139.908
4805,1165.581
4806,1122.357
4807,1163.357
4808,1117.201
4809,1149.443
4810,1130.408
4811,1109.891
4812,1121.615
4813,1109.891
4814,1119.426
4815,1165.581
4816,1123.805
4817,1163.357
4818,1207.323
4819,1212.443
4820,1245.427
4821,1251.289
4822,1321.600
4823,1333.324
4824,1369.238
4825,1419.773
4826,1448.342
4827,1475.464
4828,1517.947
4829,1558.240
4830,1605.138
4831,1651.293
4832,1671.775
4833,1684.241
4834,1737.001
4835,1704.017
4836,1734.070
4837,1726.018
4838,1684.241
4839,1663.018
4840,1649.068
4841,1619.051
4842,1561.913
4843,1523.809
4844,1501.843
4845,1491.567
4846,1398.549
4847,1393.393
4848,1327.462
4849,1283.531
4850,1232.961
4851,1199.271
4852,1167.029
4853,1156.788
4854,1166.288
4855,1094.494
4856,1074.718
4857,1115.011
4858,1079.132
4859,1087.184
4860,1088.632
4861,1084.994
4862,1062.994
4863,1117.942
4864,1136.271
4865,1137.012
4866,1178.754
4867,1173.633
4868,1237.375
4869,1256.410
4870,1301.824
4871,1323.083
4872,1339.928
4873,1401.480
4874,1443.222
4875,1429.308
4876,1467.412
4877,1525.998
4878,1529.671
4879,1591.224
4880,1599.275
4881,1584.620
4882,1616.862
4883,1620.499
4884,1638.086
4885,1640.275
4886,1638.827
4887,1635.155
4888,1656.414
4889,1621.982
4890,1627.845
4891,1615.379
4892,1637.344
4893,1591.224
4894,1569.223
4895,1600.723
4896,1570.706
4897,1530.413
4898,1511.343
4899,1495.981
4900,1499.619
4901,1501.102
4902,1490.825
4903,1477.653
4904,1428.566
4905,1413.169
4906,1400.739
4907,1392.687
4908,1399.997
4909,1375.101
4910,1350.169
4911,1378.738
4912,1369.945
4913,1324.531
4914,1324.531
4915,1355.325
4916,1312.100
4917,1347.979
4918,1331.876
4919,1334.807
4920,1370.686
4921,1337.738
4922,1340.669
4923,1380.221
4924,1397.066
4925,1399.997
4926,1378.738
4927,1372.170
4928,1391.204
4929,1426.377
4930,1393.393
4931,1378.738
4932,1387.531
4933,1391.946
4934,1407.307
4935,1410.980
4936,1411.721
4937,1386.083
4938,1353.841
4939,1358.962
4940,1397.066
4941,1347.238
4942,1358.962
4943,1362.635
4944,1381.669
4945,1326.755
4946,1349.463
4947,1379.480
4948,1345.790
4949,1370.686
4950,1344.307
4951,1379.480
4952,1347.979
4953,1325.272
4954,1331.134
4955,1369.945
4956,1315.031
4957,1361.187
4958,1344.307
4959,1325.272
4960,1335.513
4961,1324.531
4962,1306.944
4963,1332.582
4964,1336.997
4965,1308.427
4966,1345.048
4967,1353.100
4968,1341.376
4969,1341.376
4970,1383.152
4971,1412.463
4972,1430.756
4973,1430.756
4974,1416.100
4975,1465.187
4976,1494.498
4977,1474.722
4978,1506.964
4979,1523.067
4980,1545.774
4981,1568.481
4982,1597.792
4983,1590.482
4984,1607.327
4985,1638.827
4986,1649.068
4987,1666.655
4988,1684.983
4989,1739.932
4990,1764.828
4991,1737.001
4992,1748.725
4993,1783.863
4994,1746.500
4995,1751.656
4996,1762.639
4997,1743.605
4998,1734.070
4999,1709.880
5000,1649.810
5001,1627.103
5002,1578.016
5003,1574.344
5004,1485.705
5005,1462.998
5006,1437.360
5007,1369.945
5008,1328.945
5009,1260.788
5010,1260.788
5011,1181.685
5012,1180.943
5013,1166.288
5014,1137.012
5015,1111.339
5016,1038.097
5017,1031.493
5018,1052.011
5019,1046.149
5020,988.269
5021,1032.976
5022,990.458
5023,1028.562
5024,1030.752
5025,1051.269
5026,1024.183
5027,1076.907
5028,1109.149
5029,1131.150
5030,1153.857
5031,1162.650
5032,1191.219
5033,1225.651
5034,1251.995
5035,1249.099
5036,1259.341
5037,1317.962
5038,1360.445
5039,1379.480
5040,1383.894
5041,1399.997
5042,1453.463
5043,1457.877
5044,1463.739
5045,1476.912
5046,1479.136
5047,1484.257
5048,1500.360
5049,1524.550
5050,1550.930
5051,1531.860
5052,1523.809
5053,1517.947
5054,1535.533
5055,1535.533
5056,1524.550
5057,1531.860
5058,1534.792
5059,1507.706
5060,1498.912
5061,1497.429
5062,1470.343
5063,1447.601
5064,1457.877
5065,1471.049
5066,1471.791
5067,1467.412
5068,1463.739
5069,1449.826
5070,1454.946
5071,1410.238
5072,1402.928
5073,1438.101
5074,1417.584
5075,1393.393
5076,1407.307
5077,1426.377
5078,1441.032
5079,1437.360
5080,1435.170
5081,1405.118
5082,1373.617
5083,1372.170
5084,1363.376
5085,1372.170
5086,1389.756
5087,1376.549
5088,1347.238
5089,1311.358
5090,1323.824
5091,1331.876
5092,1284.979
5093,1254.926
5094,1290.099
5095,1257.857
5096,1213.185
5097,1209.512
5098,1211.737
5099,1219.047
5100,1193.409
5101,1192.667
5102,1186.805
5103,1180.201
5104,1122.357
5105,1118.684
5106,1134.787
5107,1128.219
5108,1125.994
5109,1125.994
5110,1150.184
5111,1149.443
5112,1147.995
5113,1110.632
5114,1144.322
5115,1137.012
5116,1139.908
5117,1121.615
5118,1129.667
5119,1112.822
5120,1110.632
5121,1091.563
5122,1093.788
5123,1097.425
5124,1147.995
5125,1162.650
5126,1153.857
5127,1175.081
5128,1185.357
5129,1169.960
5130,1187.547
5131,1198.530
5132,1196.340
5133,1257.151
5134,1250.547
5135,1284.237
5136,1283.531
5137,1326.755
5138,1373.617
5139,1401.480
5140,1425.635
5141,1460.067
5142,1456.394
5143,1527.482
5144,1538.464
5145,1576.568
5146,1620.499
5147,1659.345
5148,1702.569
5149,1751.656
5150,1769.243
5151,1827.087
5152,1819.777
5153,1832.950
5154,1868.864
5155,1824.898
5156,1838.105
5157,1824.898
5158,1805.122
5159,1776.553
5160,1749.431
5161,1757.518
5162,1721.604
5163,1644.689
5164,1651.293
5165,1590.482
5166,1527.482
5167,1482.774
5168,1438.843
5169,1426.377
5170,1387.531
5171,1358.962
5172,1301.824
5173,1251.289
5174,1230.030
5175,1224.168
5176,1223.426
5177,1180.943
5178,1202.202
5179,1150.184
5180,1194.857
5181,1195.598
5182,1188.995
5183,1212.443
5184,1231.513
5185,1243.944
5186,1264.461
5187,1298.151
5188,1324.531
5189,1303.307
5190,1331.876
5191,1359.704
5192,1389.756
5193,1443.963
5194,1491.567
5195,1508.412
5196,1492.309
5197,1535.533
5198,1564.102
5199,1552.378
5200,1576.568
5201,1585.362
5202,1604.396
5203,1634.413
5204,1663.018
5205,1666.655
5206,1651.999
5207,1660.793
5208,1644.689
5209,1631.482
5210,1634.413
5211,1625.655
5212,1633.707
5213,1643.948
5214,1586.809
5215,1591.930
5216,1600.723
5217,1539.912
5218,1530.413
5219,1544.326
5220,1500.360
5221,1468.118
5222,1500.360
5223,1480.584
5224,1457.136
5225,1408.790
5226,1398.549
5227,1427.825
5228,1382.411
5229,1386.083
5230,1410.980
5231,1359.704
5232,1379.480
5233,1373.617
5234,1406.601
5235,1361.893
5236,1383.894
5237,1375.101
5238,1410.980
5239,1373.617
5240,1398.549
5241,1432.981
5242,1397.066
5243,1406.601
5244,1407.307
5245,1425.635
5246,1446.894
5247,1488.636
5248,1462.998
5249,1465.187
5250,1491.567
5251,1514.274
5252,1467.412
5253,1484.257
5254,1497.429
5255,1513.568
5256,1504.774
5257,1492.309
5258,1474.722
5259,1441.032
5260,1456.394
5261,1468.118
5262,1412.463
5263,1423.446
5264,1427.825
5265,1383.152
5266,1344.307
5267,1375.807
5268,1332.582
5269,1295.961
5270,1282.789
5271,1291.583
5272,1270.323
5273,1245.427
5274,1184.616
5275,1201.461
5276,1131.856
5277,1162.650
5278,1120.874
5279,1093.046
5280,1055.683
5281,1082.769
5282,1057.131
5283,1057.131
5284,1035.166
5285,993.389
5286,1024.889
5287,1023.442
5288,1010.976
5289,978.769
5290,1019.769
5291,994.131
5292,1058.615
5293,1039.545
5294,1101.839
5295,1072.528
5296,1109.891
5297,1141.391
5298,1159.719
5299,1230.030
5300,1263.720
5301,1313.548
5302,1317.221
5303,1334.807
5304,1377.290
5305,1431.497
5306,1478.395
5307,1495.240
5308,1570.706
5309,1559.688
5310,1608.775
5311,1646.879
5312,1690.845
5313,1704.017
5314,1702.569
5315,1720.156
5316,1756.777
5317,1733.328
5318,1754.587
5319,1755.294
5320,1723.793
5321,1698.897
5322,1677.638
5323,1647.621
5324,1624.172
5325,1588.999
5326,1536.275
5327,1534.792
5328,1452.015
5329,1392.687
5330,1349.463
5331,1312.806
5332,1300.376
5333,1235.150
5334,1183.874
5335,1136.271
5336,1102.545
5337,1088.632
5338,1035.166
5339,1035.166
5340,1014.648
5341,1007.338
5342,974.355
5343,945.786
5344,985.338
5345,983.148
5346,945.044
5347,1005.855
5348,975.096
5349,1025.631
5350,999.251
5351,1056.425
5352,1099.650
5353,1131.150
5354,1161.167
5355,1186.805
5356,1220.495
5357,1248.358
5358,1325.272
5359,1331.876
5360,1367.755
5361,1444.670
5362,1498.171
5363,1548.705
5364,1569.223
5365,1597.792
5366,1645.431
5367,1677.638
5368,1689.362
5369,1710.621
5370,1739.932
5371,1774.363
5372,1788.277
5373,1789.019
5374,1800.743
5375,1811.726
5376,1837.364
5377,1856.398
5378,1848.347
5379,1844.674
5380,1813.174
5381,1789.019
5382,1772.174
5383,1757.518
5384,1740.674
5385,1733.328
5386,1714.294
5387,1721.604
5388,1675.448
5389,1685.725
5390,1616.862
5391,1614.637
5392,1620.499
5393,1564.102
5394,1590.482
5395,1527.482
5396,1530.413
5397,1520.878
5398,1506.964
5399,1459.325
5400,1449.084
5401,1480.584
5402,1462.998
5403,1432.239
5404,1407.307
5405,1393.393
5406,1392.687
5407,1376.549
5408,1356.031
5409,1357.514
5410,1383.152
5411,1375.101
5412,1369.945
5413,1324.531
5414,1307.686
5415,1328.945
5416,1326.755
5417,1312.100
5418,1312.806
5419,1309.875
5420,1281.306
5421,1327.462
5422,1316.479
5423,1285.720
5424,1304.013
5425,1335.513
5426,1293.030
5427,1310.617
5428,1350.910
5429,1301.082
5430,1326.014
5431,1349.463
5432,1335.513
5433,1329.651
5434,1342.117
5435,1316.479
5436,1318.669
5437,1331.876
5438,1331.876
5439,1300.376
5440,1315.737
5441,1281.306
5442,1251.289
5443,1235.892
5444,1218.305
5445,1210.995
5446,1217.564
5447,1208.064
5448,1212.443
5449,1178.012
5450,1154.563
5451,1167.771
5452,1169.219
5453,1112.080
5454,1129.667
5455,1149.443
5456,1141.391
5457,1095.977
5458,1117.201
5459,1149.443
5460,1110.632
5461,1152.374
5462,1180.943
5463,1191.219
5464,1193.409
5465,1233.702
5466,1263.720
5467,1315.737
5468,1328.945
5469,1382.411
5470,1449.084
5471,1479.136
5472,1533.344
5473,1559.688
5474,1580.206
5475,1665.207
5476,1654.931
5477,1718.673
5478,1701.086
5479,1708.432
5480,1726.724
5481,1730.397
5482,1743.605
5483,1738.449
5484,1678.379
5485,1683.500
5486,1676.931
5487,1627.845
5488,1567.775
5489,1527.482
5490,1509.153
5491,1463.739
5492,1460.808
5493,1414.653
5494,1359.704
5495,1362.635
5496,1286.462
5497,1279.858
5498,1274.738
5499,1252.737
5500,1234.444
5501,1216.116
5502,1193.409
5503,1134.081
5504,1176.564
5505,1123.063
5506,1152.374
5507,1169.219
5508,1131.856
5509,1144.322
5510,1169.219
5511,1209.512
5512,1200.013
5513,1231.513
5514,1251.995
5515,1243.944
5516,1307.686
5517,1313.548
5518,1320.152
5519,1362.635
5520,1397.808
5521,1447.601
5522,1469.602
5523,1455.688
5524,1477.653
5525,1525.998
5526,1548.705
5527,1539.206
5528,1580.947
5529,1569.223
5530,1588.293
5531,1613.931
5532,1578.758
5533,1582.430
5534,1624.913
5535,1572.896
5536,1587.551
5537,1587.551
5538,1575.085
5539,1561.913
5540,1550.930
5541,1514.274
5542,1555.309
5543,1500.360
5544,1533.344
5545,1515.016
5546,1475.464
5547,1459.325
5548,1427.119
5549,1435.170
5550,1441.739
5551,1441.032
5552,1386.083
5553,1422.704
5554,1397.066
5555,1372.170
5556,1408.790
5557,1355.325
5558,1369.945
5559,1402.187
5560,1375.101
5561,1367.755
5562,1372.170
5563,1369.945
5564,1420.515
5565,1421.963
5566,1424.187
5567,1418.325
5568,1414.653
5569,1445.411
5570,1472.533
5571,1460.067
5572,1468.118
5573,1506.964
5574,1467.412
5575,1472.533
5576,1521.619
5577,1489.377
5578,1492.309
5579,1542.137
5580,1545.068
5581,1547.257
5582,1534.792
5583,1528.188
5584,1517.205
5585,1522.326
5586,1528.929
5587,1485.705
5588,1480.584
5589,1452.757
5590,1442.480
5591,1434.429
5592,1440.291
5593,1408.049
5594,1441.739
5595,1408.790
5596,1383.152
5597,1375.807
5598,1394.135
5599,1357.514
5600,1326.014
5601,1328.945
5602,1301.082
5603,1292.289
5604,1298.893
5605,1305.496
5606,1249.806
5607,1289.393
5608,1278.375
5609,1265.944
5610,1248.358
5611,1238.823
5612,1221.978
5613,1243.944
5614,1216.858
5615,1216.858
5616,1241.754
5617,1227.840
5618,1232.219
5619,1277.669
5620,1262.272
5621,1259.341
5622,1317.221
5623,1305.496
5624,1298.893
5625,1315.737
5626,1330.393
5627,1350.169
5628,1417.584
5629,1426.377
5630,1417.584
5631,1476.205
5632,1469.602
5633,1527.482
5634,1518.688
5635,1583.878
5636,1560.430
5637,1582.430
5638,1605.138
5639,1664.465
5640,1696.707
5641,1703.311
5642,1712.811
5643,1727.466
5644,1710.621
5645,1693.035
5646,1682.793
5647,1665.207
5648,1654.224
5649,1630.776
5650,1634.413
5651,1571.412
5652,1551.636
5653,1554.568
5654,1493.050
5655,1443.222
5656,1413.911
5657,1381.669
5658,1361.893
5659,1353.841
5660,1273.254
5661,1277.669
5662,1244.685
5663,1194.857
5664,1175.081
5665,1187.547
5666,1147.253
5667,1147.995
5668,1108.408
5669,1136.271
5670,1128.925
5671,1104.770
5672,1126.736
5673,1148.701
5674,1159.719
5675,1171.444
5676,1186.805
5677,1186.805
5678,1201.461
5679,1226.357
5680,1220.495
5681,1293.772
5682,1272.513
5683,1342.859
5684,1350.910
5685,1350.169
5686,1399.997
5687,1401.480
5688,1416.100
5689,1392.687
5690,1404.376
5691,1415.394
5692,1421.256
5693,1430.756
5694,1442.480
5695,1493.050
5696,1477.653
5697,1462.998
5698,1476.912
5699,1515.016
5700,1488.636
5701,1482.032
5702,1471.049
5703,1498.912
5704,1503.291
5705,1476.912
5706,1464.481
5707,1454.946
5708,1450.532
5709,1454.205
5710,1437.360
5711,1437.360
5712,1423.446
5713,1430.756
5714,1402.928
5715,1367.014
5716,1412.463
5717,1372.876
5718,1369.238
5719,1395.618
5720,1344.307
5721,1366.307
5722,1391.946
5723,1348.721
5724,1385.342
5725,1346.531
5726,1349.463
5727,1389.756
5728,1340.669
5729,1370.686
5730,1390.462
5731,1364.118
5732,1360.445
5733,1381.669
5734,1396.324
5735,1374.359
5736,1362.635
5737,1352.394
5738,1369.945
5739,1391.204
5740,1347.238
5741,1377.290
5742,1365.566
5743,1326.755
5744,1361.187
5745,1304.755
5746,1317.221
5747,1330.393
5748,1294.514
5749,1282.048
5750,1278.375
5751,1263.013
5752,1266.651
5753,1250.547
5754,1244.685
5755,1216.116
5756,1205.133
5757,1194.857
5758,1165.581
5759,1204.392
5760,1206.581
5761,1192.667
5762,1159.719
5763,1213.927
5764,1202.202
5765,1175.081
5766,1208.064
5767,1247.616
5768,1242.496
5769,1230.771
5770,1273.996
5771,1290.841
5772,1268.875
5773,1318.669
5774,1295.961
5775,1325.272
5776,1368.497
5777,1358.256
5778,1340.669
5779,1352.394
5780,1362.635
5781,1387.531
5782,1402.928
5783,1433.687
5784,1446.153
5785,1455.688
5786,1464.481
5787,1472.533
5788,1444.670
5789,1438.101
5790,1452.015
5791,1454.205
5792,1455.688
5793,1489.377
5794,1522.326
5795,1504.774
5796,1512.085
5797,1501.102
5798,1504.774
5799,1524.550
5800,1544.326
5801,1534.050
5802,1550.189
5803,1569.965
5804,1608.775
5805,1600.723
5806,1616.120
5807,1625.655
5808,1613.931
5809,1668.880
5810,1627.845
5811,1683.500
5812,1645.431
5813,1641.017
5814,1676.190
5815,1653.483
5816,1639.569
5817,1665.207
5818,1608.069
5819,1628.586
5820,1575.827
5821,1604.396
5822,1536.275
5823,1525.257
5824,1494.498
5825,1466.670
5826,1425.635
5827,1397.808
5828,1367.014
5829,1355.325
5830,1359.704
5831,1293.772
5832,1308.427
5833,1273.254
5834,1238.081
5835,1236.634
5836,1216.858
5837,1191.926
5838,1197.082
5839,1189.736
5840,1173.633
5841,1194.151
5842,1200.013
5843,1207.323
5844,1214.633
5845,1218.305
5846,1221.237
5847,1241.754
5848,1241.754
5849,1312.100
5850,1283.531
5851,1347.238
5852,1380.963
5853,1362.635
5854,1385.342
5855,1407.307
5856,1430.756
5857,1452.757
5858,1470.343
5859,1494.498
5860,1547.257
5861,1545.774
5862,1532.602
5863,1526.740
5864,1533.344
5865,1550.930
5866,1583.878
5867,1566.292
5868,1547.999
5869,1547.257
5870,1578.758
5871,1546.516
5872,1520.136
5873,1510.637
5874,1505.481
5875,1487.188
5876,1467.412
5877,1455.688
5878,1449.084
5879,1451.273
5880,1438.101
5881,1441.739
5882,1428.566
5883,1362.635
5884,1371.428
5885,1386.083
5886,1328.203
5887,1340.669
5888,1342.117
5889,1356.773
5890,1306.238
5891,1331.134
5892,1356.773
5893,1320.152
5894,1339.186
5895,1361.187
5896,1325.272
5897,1374.359
5898,1344.307
5899,1353.100
5900,1397.808
5901,1353.100
5902,1369.238
5903,1388.273
5904,1424.894
5905,1407.307
5906,1394.877
5907,1402.928
5908,1434.429
5909,1441.739
5910,1459.325
5911,1464.481
5912,1463.739
5913,1465.187
5914,1454.946
5915,1426.377
5916,1408.790
5917,1421.256
5918,1434.429
5919,1389.014
5920,1409.532
5921,1358.256
5922,1381.669
5923,1341.376
5924,1321.600
5925,1348.721
5926,1312.806
5927,1279.117
5928,1279.858
5929,1290.841
5930,1276.927
5931,1257.857
5932,1260.788
5933,1201.461
5934,1188.288
5935,1206.581
5936,1217.564
5937,1166.288
5938,1202.202
5939,1165.581
5940,1177.270
5941,1125.994
5942,1145.770
5943,1172.150
5944,1171.444
5945,1180.201
5946,1186.805
5947,1196.340
5948,1211.737
5949,1211.737
5950,1224.168
5951,1241.754
5952,1254.926
5953,1271.065
5954,1322.341
5955,1342.859
5956,1350.169
5957,1335.513
5958,1394.135
5959,1383.152
5960,1404.376
5961,1432.981
5962,1462.256
5963,1504.774
5964,1526.740
5965,1550.930
5966,1553.120
5967,1586.809
5968,1646.879
5969,1641.758
5970,1651.293
5971,1703.311
5972,1678.379
5973,1728.949
5974,1698.897
5975,1730.397
5976,1694.518
5977,1695.966
5978,1693.776
5979,1703.311
5980,1638.827
5981,1622.724
5982,1633.707
5983,1601.465
5984,1540.654
5985,1507.706
5986,1503.291
5987,1458.619
5988,1424.894
5989,1432.981
5990,1373.617
5991,1369.238
5992,1366.307
5993,1328.945
5994,1304.755
5995,1307.686
5996,1299.634
5997,1276.185
5998,1245.427
5999,1258.599
6000,1282.048
6001,1273.996
6002,1253.478
6003,1230.030
6004,1274.738
6005,1279.858
6006,1273.254
6007,1282.789
6008,1303.307
6009,1334.066
6010,1318.669
6011,1377.290
6012,1392.687
6013,1387.531
6014,1416.842
6015,1463.739
6016,1482.774
6017,1504.033
6018,1520.136
6019,1525.998
6020,1542.137
6021,1554.568
6022,1564.844
6023,1569.965
6024,1578.758
6025,1619.051
6026,1617.568
6027,1621.982
6028,1608.775
6029,1606.585
6030,1599.275
6031,1557.499
6032,1564.844
6033,1552.378
6034,1494.498
6035,1476.912
6036,1468.118
6037,1461.550
6038,1468.118
6039,1413.911
6040,1420.515
6041,1405.859
6042,1405.859
6043,1408.790
6044,1350.169
6045,1383.894
6046,1365.566
6047,1344.307
6048,1325.272
6049,1366.307
6050,1323.083
6051,1364.824
6052,1326.755
6053,1375.101
6054,1343.600
6055,1353.841
6056,1390.462
6057,1382.411
6058,1397.066
6059,1367.014
6060,1363.376
6061,1387.531
6062,1412.463
6063,1403.670
6064,1408.790
6065,1372.876
6066,1360.445
6067,1374.359
6068,1399.256
6069,1402.187
6070,1344.307
6071,1357.514
6072,1378.032
6073,1342.859
6074,1326.014
6075,1345.790
6076,1345.048
6077,1289.393
6078,1299.634
6079,1290.841
6080,1265.944
6081,1255.668
6082,1258.599
6083,1279.858
6084,1270.323
6085,1230.030
6086,1229.288
6087,1248.358
6088,1252.737
6089,1275.444
6090,1292.289
6091,1298.893
6092,1304.755
6093,1303.307
6094,1300.376
6095,1282.048
6096,1265.203
6097,1294.514
6098,1286.462
6099,1273.996
6100,1284.237
6101,1289.393
6102,1280.600
6103,1271.065
6104,1253.478
6105,1268.875
6106,1280.600
6107,1259.341
6108,1276.185
6109,1271.065
6110,1276.185
6111,1232.961
6112,1243.944
6113,1289.393
6114,1286.462
6115,1290.099
6116,1271.065
6117,1273.254
6118,1279.858
6119,1287.910
6120,1326.014
6121,1361.893
6122,1327.462
6123,1394.877
6124,1380.963
6125,1423.446
6126,1396.324
6127,1441.739
6128,1446.894
6129,1467.412
6130,1494.498
6131,1515.757
6132,1517.205
6133,1528.929
6134,1521.619
6135,1530.413
6136,1544.326
6137,1542.137
6138,1540.654
6139,1534.792
6140,1533.344
6141,1516.499
6142,1499.619
6143,1486.446
6144,1484.963
6145,1464.481
6146,1407.307
6147,1430.756
6148,1390.462
6149,1328.203
6150,1310.617
6151,1295.961
6152,1273.254
6153,1255.668
6154,1259.341
6155,1224.168
6156,1177.270
6157,1156.788
6158,1194.857
6159,1148.701
6160,1172.891
6161,1145.064
6162,1186.064
6163,1149.443
6164,1149.443
6165,1164.098
6166,1220.495
6167,1254.926
6168,1262.272
6169,1284.979
6170,1297.445
6171,1326.755
6172,1404.376
6173,1442.480
6174,1480.584
6175,1509.895
6176,1544.326
6177,1547.257
6178,1627.103
6179,1620.499
6180,1687.914
6181,1718.673
6182,1705.501
6183,1741.380
6184,1764.828
6185,1809.536
6186,1821.967
6187,1830.019
6188,1798.518
6189,1821.967
6190,1810.243
6191,1792.656
6192,1798.518
6193,1811.726
6194,1766.312
6195,1753.104
6196,1739.932
6197,1726.018
6198,1712.069
6199,1734.811
6200,1666.655
6201,1679.862
6202,1638.086
6203,1604.396
6204,1602.206
6205,1566.292
6206,1531.119
6207,1509.895
6208,1488.636
6209,1465.929
6210,1465.187
6211,1482.774
6212,1425.635
6213,1419.773
6214,1412.463
6215,1409.532
6216,1409.532
6217,1350.910
6218,1388.273
6219,1339.186
6220,1365.566
6221,1378.032
6222,1386.083
6223,1338.444
6224,1354.583
6225,1383.152
6226,1356.031
6227,1383.894
6228,1406.601
6229,1371.428
6230,1391.946
6231,1413.911
6232,1410.238
6233,1405.859
6234,1411.721
6235,1413.169
6236,1421.963
6237,1419.032
6238,1431.497
6239,1456.394
6240,1457.136
6241,1441.739
6242,1432.239
6243,1457.877
6244,1469.602
6245,1463.739
6246,1451.273
6247,1435.170
6248,1443.963
6249,1419.773
6250,1378.032
6251,1386.825
6252,1391.204
6253,1372.170
6254,1350.910
6255,1330.393
6256,1364.824
6257,1304.013
6258,1328.203
6259,1291.583
6260,1301.824
6261,1287.910
6262,1251.289
6263,1295.220
6264,1274.738
6265,1259.341
6266,1232.961
6267,1222.720
6268,1211.737
6269,1218.305
6270,1197.788
6271,1208.064
6272,1232.961
6273,1217.564
6274,1240.306
6275,1221.237
6276,1193.409
6277,1198.530
6278,1208.806
6279,1235.150
6280,1255.668
6281,1281.306
6282,1288.651
6283,1301.082
6284,1302.565
6285,1314.290
6286,1344.307
6287,1334.066
6288,1361.187
6289,1352.394
6290,1354.583
6291,1413.911
6292,1403.670
6293,1410.238
6294,1450.532
6295,1457.877
6296,1468.118
6297,1491.567
6298,1562.619
6299,1580.206
6300,1579.499
6301,1588.293
6302,1641.017
6303,1623.430
6304,1673.259
6305,1651.999
6306,1696.707
6307,1695.224
6308,1674.000
6309,1707.690
6310,1658.603
6311,1687.914
6312,1651.293
6313,1621.982
6314,1627.103
6315,1627.103
6316,1575.085
6317,1553.861
6318,1502.550
6319,1466.670
6320,1456.394
6321,1388.273
6322,1385.342
6323,1331.134
6324,1304.013
6325,1270.323
6326,1246.875
6327,1220.495
6328,1197.788
6329,1169.219
6330,1133.339
6331,1135.529
6332,1084.994
6333,1110.632
6334,1095.235
6335,1071.045
6336,1081.322
6337,1067.408
6338,1066.666
6339,1068.856
6340,1065.183
6341,1081.322
6342,1053.494
6343,1115.011
6344,1076.907
6345,1128.219
6346,1161.909
6347,1135.529
6348,1159.719
6349,1178.012
6350,1216.858
6351,1272.513
6352,1257.151
6353,1321.600
6354,1306.238
6355,1365.566
6356,1366.307
6357,1382.411
6358,1429.308
6359,1457.136
6360,1463.739
6361,1495.240
6362,1502.550
6363,1479.843
6364,1494.498
6365,1518.688
6366,1558.982
6367,1562.619
6368,1572.896
6369,1574.344
6370,1635.155
6371,1633.707
6372,1611.706
6373,1613.189
6374,1668.138
6375,1627.103
6376,1636.638
6377,1646.879
6378,1646.879
6379,1668.880
6380,1641.017
6381,1671.069
6382,1618.310
6383,1644.689
6384,1643.948
6385,1625.655
6386,1613.189
6387,1633.707
6388,1612.448
6389,1635.155
6390,1596.344
6391,1581.689
6392,1564.844
6393,1556.051
6394,1582.430
6395,1574.344
6396,1543.585
6397,1531.860
6398,1508.412
6399,1515.016
6400,1504.774
6401,1523.067
6402,1480.584
6403,1465.187
6404,1484.963
6405,1471.049
6406,1425.635
6407,1408.049
6408,1433.687
6409,1410.238
6410,1359.704
6411,1399.256
6412,1382.411
6413,1346.531
6414,1317.962
6415,1306.238
6416,1336.255
6417,1326.755
6418,1308.427
6419,1271.065
6420,1254.220
6421,1252.737
6422,1258.599
6423,1276.185
6424,1275.444
6425,1244.685
6426,1265.203
6427,1251.995
6428,1288.651
6429,1310.617
6430,1306.944
6431,1303.307
6432,1304.755
6433,1311.358
6434,1323.824
6435,1316.479
6436,1359.704
6437,1358.962
6438,1351.652
6439,1394.135
6440,1361.187
6441,1371.428
6442,1352.394
6443,1387.531
6444,1364.118
6445,1386.825
6446,1349.463
6447,1325.272
6448,1365.566
6449,1310.617
6450,1295.220
6451,1290.099
6452,1277.669
6453,1290.841
6454,1239.565
6455,1239.565
6456,1204.392
6457,1202.202
6458,1200.013
6459,1185.357
6460,1167.771
6461,1127.477
6462,1107.701
6463,1098.166
6464,1119.426
6465,1127.477
6466,1125.288
6467,1142.133
6468,1165.581
6469,1201.461
6470,1203.650
6471,1222.720
6472,1287.910
6473,1284.979
6474,1351.652
6475,1417.584
6476,1413.169
6477,1464.481
6478,1504.033
6479,1547.999
6480,1599.275
6481,1664.465
6482,1660.793
6483,1732.587
6484,1723.793
6485,1748.725
6486,1788.277
6487,1753.846
6488,1762.639
6489,1771.432
6490,1726.018
6491,1746.500
6492,1691.587
6493,1660.793
6494,1664.465
6495,1602.206
6496,1570.706
6497,1551.636
6498,1497.429
6499,1424.894
6500,1404.376
6501,1342.859
6502,1354.583
6503,1318.669
6504,1282.048
6505,1260.788
6506,1199.271
6507,1172.150
6508,1173.633
6509,1173.633
6510,1150.926
6511,1183.133
6512,1128.219
6513,1176.564
6514,1140.649
6515,1184.616
6516,1164.840
6517,1168.512
6518,1219.047
6519,1221.978
6520,1214.633
6521,1240.306
6522,1287.910
6523,1334.807
6524,1362.635
6525,1373.617
6526,1388.273
6527,1406.601
6528,1451.273
6529,1430.756
6530,1496.688
6531,1464.481
6532,1486.446
6533,1505.481
6534,1516.499
6535,1539.912
6536,1551.636
6537,1519.395
6538,1527.482
6539,1515.757
6540,1528.929
6541,1536.275
6542,1524.550
6543,1517.205
6544,1501.843
6545,1532.602
6546,1501.102
6547,1462.998
6548,1463.739
6549,1458.619
6550,1456.394
6551,1462.256
6552,1407.307
6553,1410.980
6554,1400.739
6555,1394.877
6556,1399.256
6557,1366.307
6558,1334.807
6559,1339.186
6560,1361.893
6561,1316.479
6562,1337.738
6563,1298.151
6564,1311.358
6565,1324.531
6566,1268.875
6567,1318.669
6568,1318.669
6569,1284.237
6570,1273.996
6571,1302.565
6572,1284.237
6573,1284.237
6574,1293.772
6575,1300.376
6576,1346.531
6577,1343.600
6578,1331.876
6579,1384.600
6580,1383.152
6581,1402.928
6582,1389.756
6583,1413.911
6584,1439.549
6585,1457.877
6586,1484.257
6587,1501.102
6588,1568.481
6589,1550.189
6590,1562.619
6591,1604.396
6592,1586.809
6593,1608.069
6594,1646.137
6595,1624.913
6596,1634.413
6597,1684.983
6598,1650.552
6599,1690.845
6600,1649.810
6601,1679.862
6602,1643.206
6603,1669.586
6604,1677.638
6605,1631.482
6606,1658.603
6607,1620.499
6608,1635.155
6609,1597.792
6610,1597.051
6611,1619.051
6612,1561.171
6613,1544.326
6614,1531.860
6615,1529.671
6616,1534.050
6617,1492.309
6618,1471.049
6619,1469.602
6620,1468.860
6621,1399.256
6622,1399.997
6623,1410.238
6624,1380.221
6625,1402.928
6626,1347.979
6627,1391.946
6628,1347.979
6629,1387.531
6630,1348.721
6631,1377.290
6632,1399.256
6633,1369.945
6634,1410.980
6635,1401.480
6636,1428.566
6637,1438.843
6638,1493.050
6639,1481.326
6640,1499.619
6641,1549.447
6642,1580.947
6643,1591.930
6644,1619.051
6645,1622.724
6646,1626.361
6647,1684.241
6648,1667.396
6649,1680.569
6650,1694.518
6651,1703.311
6652,1707.690
6653,1679.862
6654,1674.707
6655,1693.776
6656,1665.949
6657,1634.413
6658,1601.465
6659,1533.344
6660,1499.619
6661,1438.843
6662,1437.360
6663,1407.307
6664,1361.893
6665,1273.996
6666,1261.530
6667,1244.685
6668,1156.788
6669,1175.081
6670,1130.408
6671,1090.115
6672,1048.338
6673,1049.821
6674,1037.355
6675,1014.648
6676,1013.907
6677,1046.890
6678,1055.683
6679,1073.270
6680,1076.201
6681,1096.719
6682,1109.891
6683,1092.304
6684,1137.012
6685,1165.581
6686,1133.339
6687,1196.340
6688,1180.201
6689,1249.806
6690,1229.288
6691,1284.979
6692,1323.083
6693,1342.859
6694,1358.962
6695,1350.910
6696,1412.463
6697,1402.187
6698,1396.324
6699,1436.618
6700,1464.481
6701,1432.981
6702,1456.394
6703,1484.257
6704,1474.722
6705,1470.343
6706,1490.825
6707,1512.826
6708,1506.222
6709,1484.257
6710,1495.240
6711,1498.912
6712,1506.964
6713,1501.102
6714,1472.533
6715,1490.119
6716,1495.240
6717,1449.826
6718,1440.291
6719,1455.688
6720,1461.550
6721,1408.790
6722,1443.222
6723,1407.307
6724,1415.394
6725,1372.876
6726,1384.600
6727,1353.100
6728,1358.962
6729,1325.272
6730,1356.773
6731,1358.256
6732,1334.066
6733,1310.617
6734,1343.600
6735,1319.410
6736,1306.944
6737,1290.841
6738,1320.152
6739,1319.410
6740,1307.686
6741,1323.083
6742,1306.238
6743,1310.617
6744,1310.617
6745,1294.514
6746,1293.030
6747,1279.858
6748,1270.323
6749,1274.738
6750,1260.788
6751,1250.547
6752,1232.219
6753,1203.650
6754,1216.116
6755,1195.598
6756,1153.115
6757,1179.495
6758,1126.736
6759,1161.167
6760,1145.064
6761,1103.287
6762,1107.701
6763,1145.064
6764,1111.339
6765,1145.770
6766,1150.184
6767,1142.839
6768,1136.271
6769,1178.754
6770,1167.029
6771,1207.323
6772,1180.943
6773,1227.840
6774,1197.788
6775,1245.427
6776,1215.374
6777,1226.357
6778,1267.392
6779,1246.875
6780,1227.099
6781,1228.582
6782,1267.392
6783,1265.944
6784,1221.237
6785,1244.685
6786,1266.651
6787,1216.116
6788,1246.875
6789,1263.720
6790,1216.116
6791,1232.961
6792,1229.288
6793,1246.875
6794,1283.531
6795,1292.289
6796,1307.686
6797,1321.600
6798,1332.582
6799,1357.514
6800,1349.463
6801,1363.376
6802,1429.308
6803,1450.532
6804,1458.619
6805,1492.309
6806,1539.912
6807,1567.775
6808,1604.396
6809,1632.965
6810,1699.638
6811,1697.449
6812,1739.190
6813,1731.139
6814,1753.846
6815,1767.018
6816,1769.949
6817,1767.760
6818,1751.656
6819,1784.604
6820,1729.655
6821,1704.017
6822,1694.518
6823,1700.380
6824,1662.276
6825,1608.069
6826,1586.068
6827,1570.706
6828,1496.688
6829,1462.998
6830,1419.773
6831,1382.411
6832,1384.600
6833,1342.117
6834,1339.928
6835,1304.013
6836,1255.668
6837,1284.979
6838,1271.807
6839,1236.634
6840,1216.858
6841,1224.168
6842,1232.961
6843,1273.254
6844,1292.289
6845,1304.013
6846,1322.341
6847,1323.824
6848,1324.531
6849,1356.773
6850,1406.601
6851,1412.463
6852,1457.136
6853,1520.878
6854,1505.481
6855,1539.206
6856,1580.206
6857,1623.430
6858,1628.586
6859,1645.431
6860,1663.724
6861,1728.949
6862,1699.638
6863,1756.777
6864,1728.208
6865,1730.397
6866,1770.691
6867,1774.363
6868,1727.466
6869,1732.587
6870,1736.259
6871,1719.414
6872,1732.587
6873,1684.983
6874,1668.880
6875,1663.724
6876,1620.499
6877,1588.999
6878,1611.706
6879,1575.085
6880,1568.481
6881,1549.447
6882,1531.119
6883,1508.412
6884,1452.757
6885,1449.084
6886,1456.394
6887,1399.256
6888,1420.515
6889,1408.049
6890,1358.962
6891,1347.238
6892,1378.738
6893,1350.169
6894,1317.221
6895,1347.979
6896,1364.824
6897,1345.790
6898,1330.393
6899,1318.669
6900,1309.875
6901,1364.118
6902,1364.824
6903,1331.876
6904,1324.531
6905,1373.617
6906,1339.186
6907,1399.256
6908,1357.514
6909,1388.273
6910,1390.462
6911,1422.704
6912,1394.877
6913,1424.187
6914,1423.446
6915,1416.842
6916,1449.826
6917,1443.222
6918,1405.118
6919,1426.377
6920,1438.843
6921,1394.135
6922,1428.566
6923,1371.428
6924,1414.653
6925,1367.014
6926,1364.118
6927,1388.273
6928,1360.445
6929,1328.203
6930,1322.341
6931,1341.376
6932,1320.893
6933,1304.755
6934,1298.893
6935,1312.806
6936,1293.772
6937,1306.944
6938,1296.703
6939,1292.289
6940,1284.979
6941,1276.185
6942,1222.720
6943,1230.030
6944,1251.995
6945,1217.564
6946,1188.288
6947,1209.512
6948,1229.288
6949,1205.133
6950,1224.168
6951,1225.651
6952,1195.598
6953,1233.702
6954,1253.478
6955,1260.788
6956,1219.789
6957,1228.582
6958,1253.478
6959,1256.410
6960,1260.082
6961,1297.445
6962,1312.100
6963,1314.290
6964,1324.531
6965,1330.393
6966,1344.307
6967,1343.600
6968,1399.997
6969,1385.342
6970,1441.032
6971,1454.946
6972,1422.704
6973,1465.929
6974,1494.498
6975,1515.016
6976,1531.860
6977,1537.723
6978,1571.412
6979,1568.481
6980,1569.965
6981,1572.154
6982,1572.154
6983,1578.016
6984,1582.430
6985,1580.206
6986,1594.119
6987,1605.844
6988,1606.585
6989,1571.412
6990,1562.619
6991,1550.189
6992,1524.550
6993,1457.877
6994,1409.532
6995,1417.584
6996,1386.083
6997,1345.790
6998,1264.461
6999,1231.513
7000,1230.030
7001,1147.253
7002,1148.701
7003,1116.495
7004,1041.770
7005,1041.028
7006,993.389
7007,976.544
7008,975.096
7009,991.941
7010,989.010
7011,959.699
7012,936.992
7013,962.630
7014,987.527
7015,986.821
7016,1005.855
7017,1020.511
7018,1036.614
7019,1009.528
7020,1028.562
7021,1093.788
7022,1136.271
7023,1151.632
7024,1184.616
7025,1230.771
7026,1222.720
7027,1306.944
7028,1304.755
7029,1378.032
7030,1420.515
7031,1436.618
7032,1484.257
7033,1517.947
7034,1534.792
7035,1607.327
7036,1601.465
7037,1642.500
7038,1698.897
7039,1699.638
7040,1696.707
7041,1762.639
7042,1728.949
7043,1745.794
7044,1758.225
7045,1764.087
7046,1792.656
7047,1763.381
7048,1778.036
7049,1781.673
7050,1733.328
7051,1732.587
7052,1714.294
7053,1728.208
7054,1727.466
7055,1677.638
7056,1670.328
7057,1676.931
7058,1645.431
7059,1613.189
7060,1602.913
7061,1604.396
7062,1586.809
7063,1579.499
7064,1581.689
7065,1539.206
7066,1523.067
7067,1501.843
7068,1512.826
7069,1476.205
7070,1492.309
7071,1451.273
7072,1471.791
7073,1441.032
7074,1452.757
7075,1466.670
7076,1427.119
7077,1398.549
7078,1427.825
7079,1383.152
7080,1394.135
7081,1382.411
7082,1367.755
7083,1354.583
7084,1334.066
7085,1312.806
7086,1302.565
7087,1290.099
7088,1295.220
7089,1279.117
7090,1222.720
7091,1260.082
7092,1241.013
7093,1189.736
7094,1233.702
7095,1181.685
7096,1224.909
7097,1183.874
7098,1189.736
7099,1200.013
7100,1212.443
7101,1218.305
7102,1216.116
7103,1227.840
7104,1243.237
7105,1244.685
7106,1223.426
7107,1233.702
7108,1230.030
7109,1208.806
7110,1224.168
7111,1231.513
7112,1210.254
7113,1207.323
7114,1210.254
7115,1239.565
7116,1251.289
7117,1235.150
7118,1220.495
7119,1197.082
7120,1241.013
7121,1221.978
7122,1214.633
7123,1213.927
7124,1238.081
7125,1230.030
7126,1216.116
7127,1249.806
7128,1281.306
7129,1279.858
7130,1327.462
7131,1342.117
7132,1370.686
7133,1394.135
7134,1434.429
7135,1473.274
7136,1498.912
7137,1583.878
7138,1583.137
7139,1632.224
7140,1671.069
7141,1706.948
7142,1747.984
7143,1800.743
7144,1815.398
7145,1862.260
7146,1871.054
7147,1873.243
7148,1878.399
7149,1893.761
7150,1860.071
7151,1866.675
7152,1817.588
7153,1787.535
7154,1753.846
7155,1745.052
7156,1679.862
7157,1611.000
7158,1575.827
7159,1514.274
7160,1498.171
7161,1389.014
7162,1378.738
7163,1319.410
7164,1275.444
7165,1175.081
7166,1158.236
7167,1117.201
7168,1068.114
7169,1062.287
7170,1017.579
7171,989.010
7172,961.183
7173,956.768
7174,971.424
7175,984.631
7176,981.700
7177,991.941
7178,991.200
7179,987.527
7180,1049.080
7181,1049.080
7182,1103.287
7183,1095.235
7184,1165.581
7185,1205.875
7186,1248.358
7187,1255.668
7188,1284.979
7189,1364.118
7190,1360.445
7191,1427.825
7192,1413.911
7193,1464.481
7194,1492.309
7195,1551.636
7196,1538.464
7197,1550.930
7198,1586.809
7199,1624.913
7200,1603.654
7201,1611.000
7202,1611.706
7203,1646.879
7204,1603.654
7205,1643.206
7206,1589.741
7207,1625.655
7208,1575.827
7209,1611.706
7210,1560.430
7211,1591.224
7212,1535.533
7213,1567.033
7214,1546.516
7215,1522.326
7216,1492.309
7217,1461.550
7218,1449.084
7219,1449.084
7220,1424.187
7221,1419.773
7222,1415.394
7223,1432.981
7224,1427.825
7225,1395.618
7226,1372.876
7227,1389.756
7228,1408.790
7229,1370.686
7230,1402.187
7231,1383.894
7232,1412.463
7233,1416.842
7234,1416.100
7235,1405.859
7236,1401.480
7237,1413.911
7238,1416.842
7239,1428.566
7240,1479.136
7241,1475.464
7242,1451.273
7243,1499.619
7244,1500.360
7245,1481.326
7246,1532.602
7247,1498.912
7248,1539.912
7249,1516.499
7250,1520.878
7251,1574.344
7252,1528.188
7253,1557.499
7254,1564.844
7255,1564.102
7256,1532.602
7257,1575.827
7258,1522.326
7259,1544.326
7260,1559.688
7261,1541.395
7262,1499.619
7263,1479.136
7264,1463.739
7265,1457.136
7266,1448.342
7267,1434.429
7268,1422.704
7269,1446.894
7270,1432.981
7271,1384.600
7272,1392.687
7273,1375.807
7274,1380.963
7275,1392.687
7276,1345.790
7277,1365.566
7278,1364.118
7279,1358.962
7280,1369.945
7281,1312.806
7282,1356.773
7283,1320.893
7284,1349.463
7285,1334.807
7286,1294.514
7287,1311.358
7288,1342.859
7289,1312.806
7290,1347.238
7291,1315.031
7292,1356.031
7293,1309.875
7294,1367.014
7295,1326.014
7296,1386.083
7297,1359.704
7298,1367.755
7299,1380.221
7300,1421.256
7301,1420.515
7302,1391.204
7303,1422.704
7304,1442.480
7305,1417.584
7306,1449.826
7307,1478.395
7308,1484.963
7309,1492.309
7310,1504.774
7311,1485.705
7312,1492.309
7313,1525.257
7314,1576.568
7315,1570.706
7316,1563.361
7317,1626.361
7318,1615.379
7319,1621.241
7320,1651.293
7321,1668.880
7322,1665.949
7323,1649.068
7324,1659.345
7325,1660.086
7326,1678.379
7327,1619.793
7328,1627.103
7329,1580.206
7330,1581.689
7331,1541.395
7332,1509.895
7333,1449.826
7334,1420.515
7335,1329.651
7336,1324.531
7337,1283.531
7338,1230.030
7339,1178.012
7340,1152.374
7341,1132.598
7342,1052.752
7343,1020.511
7344,1034.424
7345,1010.976
7346,1014.648
7347,1008.045
7348,1002.182
7349,1000.735
7350,999.251
7351,990.458
7352,1008.045
7353,990.458
7354,1003.666
7355,1063.735
7356,1073.270
7357,1071.045
7358,1099.650
7359,1130.408
7360,1171.444
7361,1243.237
7362,1246.875
7363,1254.220
7364,1328.203
7365,1341.376
7366,1384.600
7367,1361.187
7368,1402.187
7369,1452.015
7370,1437.360
7371,1476.912
7372,1505.481
7373,1516.499
7374,1525.998
7375,1532.602
7376,1531.860
7377,1533.344
7378,1520.878
7379,1509.153
7380,1484.257
7381,1504.033
7382,1522.326
7383,1484.963
7384,1474.722
7385,1479.136
7386,1495.981
7387,1494.498
7388,1441.739
7389,1438.843
7390,1450.532
7391,1469.602
7392,1464.481
7393,1410.980
7394,1421.256
7395,1447.601
7396,1435.170
7397,1402.187
7398,1421.256
7399,1427.119
7400,1429.308
7401,1439.549
7402,1448.342
7403,1421.256
7404,1394.135
7405,1405.118
7406,1417.584
7407,1435.170
7408,1406.601
7409,1394.877
7410,1384.600
7411,1380.221
7412,1381.669
7413,1369.945
7414,1372.170
7415,1375.807
7416,1373.617
7417,1365.566
7418,1320.893
7419,1305.496
7420,1331.876
7421,1281.306
7422,1282.048
7423,1301.824
7424,1245.427
7425,1272.513
7426,1263.013
7427,1219.047
7428,1261.530
7429,1238.081
7430,1219.789
7431,1194.857
7432,1192.667
7433,1189.736
7434,1230.771
7435,1228.582
7436,1205.875
7437,1186.805
7438,1183.874
7439,1203.650
7440,1223.426
7441,1220.495
7442,1241.013
7443,1224.909
7444,1226.357
7445,1219.789
7446,1221.978
7447,1227.840
7448,1270.323
7449,1238.823
7450,1274.738
7451,1285.720
7452,1299.634
7453,1276.185
7454,1266.651
7455,1307.686
7456,1284.237
7457,1257.857
7458,1246.168
7459,1281.306
7460,1260.788
7461,1252.737
7462,1227.840
7463,1206.581
7464,1211.737
7465,1193.409
7466,1199.271
7467,1178.754
7468,1151.632
7469,1134.081
7470,1167.771
7471,1127.477
7472,1181.685
7473,1139.908
7474,1191.926
7475,1214.633
7476,1241.013
7477,1271.065
7478,1284.237
7479,1301.082
7480,1373.617
7481,1373.617
7482,1412.463
7483,1496.688
7484,1521.619
7485,1560.430
7486,1652.741
7487,1671.775
7488,1732.587
7489,1795.587
7490,1810.984
7491,1842.484
7492,1875.468
7493,1937.727
7494,1928.192
7495,1950.193
7496,1966.296
7497,1997.796
7498,1997.055
7499,1996.349
7500,1949.451
7501,1960.434
7502,1901.812
7503,1889.382
7504,1828.571
7505,1805.864
7506,1733.328
7507,1691.587
7508,1653.483
7509,1591.930
7510,1566.292
7511,1495.981
7512,1473.274
7513,1382.411
7514,1366.307
7515,1297.445
7516,1291.583
7517,1271.065
7518,1243.237
7519,1210.995
7520,1199.271
7521,1186.064
7522,1126.736
7523,1130.408
7524,1152.374
7525,1164.098
7526,1168.512
7527,1165.581
7528,1186.064
7529,1188.995
7530,1200.013
7531,1202.944
7532,1259.341
7533,1285.720
7534,1279.858
7535,1339.186
7536,1401.480
7537,1438.101
7538,1429.308
7539,1471.791
7540,1541.395
7541,1535.533
7542,1567.033
7543,1597.792
7544,1630.034
7545,1659.345
7546,1663.724
7547,1687.172
7548,1701.828
7549,1694.518
7550,1669.586
7551,1692.293
7552,1676.190
7553,1658.603
7554,1649.068
7555,1644.689
7556,1641.758
7557,1655.672
7558,1610.258
7559,1576.568
7560,1577.275
7561,1531.860
7562,1529.671
7563,1491.567
7564,1482.032
7565,1440.291
7566,1419.773
7567,1400.739
7568,1383.894
7569,1360.445
7570,1355.325
7571,1375.101
7572,1326.755
7573,1326.755
7574,1292.289
7575,1298.151
7576,1285.720
7577,1265.944
7578,1246.875
7579,1262.272
7580,1279.858
7581,1245.427
7582,1284.979
7583,1239.565
7584,1288.651
7585,1263.720
7586,1254.926
7587,1280.600
7588,1255.668
7589,1298.151
7590,1283.531
7591,1290.841
7592,1339.928
7593,1296.703
7594,1333.324
7595,1347.238
7596,1369.945
7597,1369.945
7598,1380.221
7599,1379.480
7600,1375.807
7601,1369.945
7602,1369.238
7603,1366.307
7604,1363.376
7605,1381.669
7606,1379.480
7607,1326.014
7608,1327.462
7609,1352.394
7610,1350.169
7611,1311.358
7612,1307.686
7613,1339.928
7614,1292.289
7615,1319.410
7616,1336.255
7617,1295.220
7618,1310.617
7619,1284.979
7620,1304.013
7621,1284.979
7622,1308.427
7623,1279.858
7624,1323.824
7625,1301.824
7626,1314.290
7627,1306.238
7628,1299.634
7629,1284.979
7630,1233.702
7631,1230.030
7632,1219.789
7633,1216.116
7634,1211.737
7635,1246.168
7636,1257.151
7637,1256.410
7638,1244.685
7639,1230.030
7640,1238.823
7641,1273.996
7642,1262.272
7643,1249.806
7644,1313.548
7645,1296.703
7646,1315.031
7647,1351.652
7648,1315.031
7649,1364.824
7650,1348.721
7651,1384.600
7652,1438.101
7653,1456.394
7654,1466.670
7655,1482.032
7656,1481.326
7657,1544.326
7658,1551.636
7659,1550.930
7660,1579.499
7661,1621.982
7662,1641.758
7663,1635.896
7664,1645.431
7665,1658.603
7666,1665.949
7667,1668.880
7668,1659.345
7669,1657.862
7670,1645.431
7671,1605.138
7672,1605.138
7673,1586.068
7674,1521.619
7675,1477.653
7676,1413.169
7677,1419.773
7678,1338.444
7679,1294.514
7680,1298.893
7681,1260.788
7682,1220.495
7683,1176.564
7684,1130.408
7685,1156.047
7686,1149.443
7687,1087.184
7688,1114.270
7689,1116.495
7690,1104.029
7691,1125.288
7692,1139.202
7693,1138.460
7694,1104.770
7695,1158.236
7696,1163.357
7697,1184.616
7698,1205.875
7699,1188.995
7700,1207.323
7701,1271.807
7702,1260.082
7703,1334.066
7704,1361.187
7705,1383.894
7706,1397.066
7707,1394.135
7708,1419.773
7709,1494.498
7710,1504.033
7711,1498.171
7712,1542.843
7713,1542.137
7714,1550.930
7715,1606.585
7716,1594.861
7717,1590.482
7718,1609.516
7719,1630.776
7720,1657.862
7721,1637.344
7722,1615.379
7723,1611.706
7724,1616.862
7725,1638.086
7726,1654.224
7727,1605.138
7728,1599.275
7729,1622.724
7730,1616.862
7731,1584.620
7732,1616.120
7733,1613.189
7734,1578.758
7735,1552.378
7736,1595.603
7737,1557.499
7738,1578.758
7739,1539.206
7740,1570.706
7741,1531.119
7742,1520.136
7743,1501.102
7744,1534.792
7745,1536.275
7746,1512.085
7747,1490.825
7748,1477.653
7749,1472.533
7750,1452.757
7751,1435.170
7752,1425.635
7753,1432.239
7754,1437.360
7755,1430.756
7756,1383.894
7757,1399.256
7758,1402.928
7759,1355.325
7760,1331.876
7761,1318.669
7762,1358.256
7763,1303.307
7764,1331.134
7765,1314.290
7766,1302.565
7767,1292.289
7768,1278.375
7769,1258.599
7770,1246.875
7771,1210.995
7772,1179.495
7773,1200.013
7774,1217.564
7775,1163.357
7776,1166.288
7777,1188.995
7778,1163.357
7779,1179.495
7780,1199.271
7781,1210.254
7782,1175.822
7783,1200.719
7784,1210.995
7785,1235.892
7786,1258.599
7787,1285.720
7788,1298.151
7789,1295.961
7790,1301.082
7791,1297.445
7792,1320.152
7793,1320.152
7794,1315.737
7795,1265.944
7796,1268.875
7797,1257.151
7798,1251.995
7799,1243.944
7800,1250.547
7801,1264.461
7802,1254.220
7803,1204.392
7804,1198.530
7805,1210.254
7806,1156.788
7807,1178.012
7808,1131.856
7809,1169.219
7810,1113.563
7811,1153.115
7812,1099.650
7813,1122.357
7814,1149.443
7815,1157.494
7816,1125.288
7817,1142.839
7818,1164.098
7819,1202.944
7820,1216.116
7821,1243.237
7822,1271.065
7823,1298.893
7824,1336.997
7825,1410.238
7826,1419.773
7827,1482.774
7828,1529.671
7829,1541.395
7830,1554.568
7831,1601.465
7832,1633.707
7833,1635.155
7834,1692.293
7835,1661.534
7836,1695.966
7837,1688.656
7838,1658.603
7839,1660.793
7840,1673.259
7841,1624.913
7842,1588.999
7843,1546.516
7844,1522.326
7845,1488.636
7846,1480.584
7847,1466.670
7848,1391.204
7849,1397.066
7850,1323.083
7851,1320.893
7852,1298.893
7853,1254.220
7854,1216.858
7855,1202.944
7856,1189.736
7857,1200.013
7858,1202.944
7859,1194.857
7860,1167.771
7861,1151.632
7862,1150.926
7863,1188.288
7864,1216.116
7865,1235.892
7866,1245.427
7867,1282.048
7868,1261.530
7869,1332.582
7870,1309.169
7871,1354.583
7872,1369.238
7873,1439.549
7874,1422.704
7875,1498.912
7876,1479.843
7877,1504.033
7878,1525.257
7879,1547.257
7880,1561.913
7881,1573.637
7882,1592.672
7883,1587.551
7884,1590.482
7885,1610.258
7886,1584.620
7887,1597.792
7888,1608.775
7889,1575.827
7890,1590.482
7891,1567.775
7892,1554.568
7893,1535.533
7894,1495.981
7895,1472.533
7896,1482.032
7897,1495.981
7898,1488.636
7899,1469.602
7900,1463.739
7901,1444.670
7902,1446.153
7903,1471.791
7904,1476.912
7905,1482.774
7906,1462.998
7907,1498.171
7908,1509.153
7909,1521.619
7910,1534.050
7911,1552.378
7912,1567.775
7913,1558.982
7914,1554.568
7915,1570.706
7916,1623.430
7917,1624.172
7918,1615.379
7919,1668.138
7920,1639.569
7921,1681.310
7922,1702.569
7923,1665.949
7924,1682.793
7925,1676.190
7926,1710.621
7927,1665.949
7928,1706.948
7929,1678.379
7930,1660.086
7931,1662.276
7932,1635.155
7933,1659.345
7934,1616.862
7935,1646.879
7936,1595.603
7937,1569.223
7938,1593.413
7939,1580.947
7940,1531.119
7941,1495.240
7942,1483.515
7943,1491.567
7944,1466.670
7945,1433.687
7946,1405.859
7947,1420.515
7948,1353.100
7949,1383.152
7950,1335.513
7951,1335.513
7952,1308.427
7953,1271.807
7954,1256.410
7955,1278.375
7956,1262.272
7957,1242.496
7958,1196.340
7959,1147.995
7960,1142.133
7961,1137.718
7962,1121.615
7963,1120.874
7964,1113.563
7965,1079.132
7966,1068.114
7967,1060.804
7968,1071.045
7969,1104.770
7970,1101.098
7971,1141.391
7972,1125.288
7973,1153.857
7974,1217.564
7975,1242.496
7976,1273.254
7977,1284.237
7978,1290.099
7979,1361.187
7980,1379.480
7981,1401.480
7982,1476.912
7983,1517.947
7984,1528.929
7985,1550.930
7986,1633.707
7987,1626.361
7988,1681.310
7989,1709.138
7990,1734.811
7991,1758.225
7992,1788.277
7993,1816.105
7994,1818.329
7995,1839.553
7996,1846.899
7997,1840.295
7998,1825.640
7999,1771.432
8000,1733.328
8001,1711.363
8002,1665.949
8003,1631.482
8004,1566.292
8005,1523.809
8006,1462.256
8007,1437.360
8008,1380.963
8009,1355.325
8010,1272.513
8011,1210.254
8012,1177.270
8013,1169.960
8014,1079.132
8015,1086.442
8016,1011.717
8017,1035.166
8018,965.562
8019,996.320
8020,963.372
8021,931.130
8022,917.216
8023,960.441
8024,958.958
8025,959.699
8026,942.113
8027,962.630
8028,983.890
8029,974.355
8030,1035.166
8031,1043.959
8032,1105.477
8033,1103.287
8034,1144.322
8035,1164.840
8036,1212.443
8037,1225.651
8038,1224.909
8039,1287.910
8040,1273.996
8041,1344.307
8042,1320.893
8043,1366.307
8044,1409.532
8045,1428.566
8046,1434.429
8047,1452.015
8048,1463.739
8049,1468.860
8050,1479.843
8051,1477.653
8052,1491.567
8053,1497.429
8054,1470.343
8055,1481.326
8056,1497.429
8057,1490.119
8058,1499.619
8059,1495.240
8060,1476.205
8061,1492.309
8062,1501.102
8063,1480.584
8064,1478.395
8065,1452.015
8066,1461.550
8067,1493.050
8068,1487.894
8069,1486.446
8070,1452.015
8071,1447.601
8072,1448.342
8073,1449.826
8074,1422.704
8075,1468.118
8076,1415.394
8077,1432.981
8078,1450.532
8079,1412.463
8080,1454.205
8081,1399.997
8082,1432.981
8083,1386.083
8084,1405.118
8085,1380.963
8086,1386.825
8087,1361.187
8088,1347.979
8089,1364.118
8090,1328.203
8091,1342.117
8092,1327.462
8093,1322.341
8094,1294.514
8095,1278.375
8096,1271.065
8097,1282.048
8098,1296.703
8099,1294.514
8100,1297.445
8101,1306.238
8102,1280.600
8103,1286.462
8104,1314.290
8105,1298.151
8106,1300.376
8107,1321.600
8108,1345.790
8109,1349.463
8110,1358.256
8111,1359.704
8112,1408.790
8113,1378.032
8114,1434.429
8115,1393.393
8116,1430.050
8117,1406.601
8118,1380.221
8119,1417.584
8120,1391.204
8121,1367.014
8122,1372.170
8123,1363.376
8124,1329.651
8125,1298.151
8126,1293.772
8127,1322.341
8128,1307.686
8129,1294.514
8130,1273.996
8131,1241.013
8132,1235.892
8133,1232.961
8134,1232.961
8135,1254.220
8136,1255.668
8137,1273.254
8138,1291.583
8139,1356.773
8140,1339.186
8141,1422.704
8142,1410.980
8143,1471.049
8144,1506.222
8145,1539.206
8146,1626.361
8147,1627.845
8148,1669.586
8149,1739.190
8150,1780.967
8151,1786.088
8152,1816.105
8153,1820.519
8154,1832.243
8155,1847.605
8156,1868.864
8157,1875.468
8158,1853.467
8159,1824.156
8160,1803.674
8161,1764.087
8162,1723.087
8163,1679.862
8164,1654.931
8165,1632.965
8166,1536.275
8167,1486.446
8168,1443.222
8169,1437.360
8170,1360.445
8171,1296.703
8172,1256.410
8173,1221.237
8174,1191.926
8175,1175.822
8176,1184.616
8177,1115.753
8178,1138.460
8179,1104.770
8180,1131.856
8181,1103.287
8182,1090.115
8183,1117.201
8184,1158.236
8185,1125.288
8186,1150.184
8187,1175.081
8188,1207.323
8189,1239.565
8190,1315.737
8191,1314.290
8192,1389.756
8193,1399.997
8194,1444.670
8195,1465.187
8196,1523.067
8197,1548.705
8198,1581.689
8199,1618.310
8200,1611.706
8201,1681.310
8202,1651.293
8203,1712.069
8204,1679.862
8205,1708.432
8206,1701.828
8207,1681.310
8208,1682.052
8209,1691.587
8210,1654.224
8211,1676.190
8212,1624.172
8213,1653.483
8214,1620.499
8215,1572.154
8216,1547.257
8217,1521.619
8218,1493.756
8219,1484.963
8220,1495.981
8221,1475.464
8222,1422.704
8223,1382.411
8224,1389.014
8225,1397.066
8226,1348.721
8227,1331.876
8228,1343.600
8229,1292.289
8230,1331.134
8231,1292.289
8232,1267.392
8233,1273.996
8234,1301.824
8235,1276.185
8236,1259.341
8237,1284.979
8238,1305.496
8239,1290.841
8240,1300.376
8241,1329.651
8242,1297.445
8243,1347.238
8244,1310.617
8245,1342.117
8246,1384.600
8247,1345.790
8248,1378.032
8249,1399.997
8250,1380.221
8251,1430.756
8252,1399.997
8253,1438.101
8254,1413.169
8255,1416.842
8256,1447.601
8257,1447.601
8258,1405.859
8259,1407.307
8260,1400.739
8261,1421.256
8262,1361.187
8263,1397.808
8264,1334.066
8265,1367.014
8266,1320.893
8267,1350.169
8268,1296.703
8269,1319.410
8270,1306.238
8271,1290.099
8272,1275.444
8273,1310.617
8274,1290.841
8275,1268.875
8276,1253.478
8277,1293.772
8278,1262.272
8279,1270.323
8280,1224.168
8281,1249.099
8282,1260.082
8283,1254.220
8284,1246.875
8285,1226.357
8286,1237.375
8287,1214.633
8288,1225.651
8289,1219.047
8290,1241.754
8291,1249.099
8292,1253.478
8293,1269.582
8294,1280.600
8295,1293.772
8296,1301.824
8297,1299.634
8298,1373.617
8299,1353.100
8300,1424.894
8301,1411.721
8302,1454.205
8303,1488.636
8304,1504.774
8305,1525.257
8306,1604.396
8307,1619.793
8308,1632.224
8309,1683.500
8310,1688.656
8311,1745.052
8312,1745.794
8313,1778.742
8314,1828.571
8315,1820.519
8316,1834.433
8317,1857.881
8318,1861.519
8319,1860.813
8320,1854.950
8321,1850.536
8322,1868.864
8323,1808.053
8324,1818.329
8325,1747.242
8326,1711.363
8327,1692.293
8328,1627.103
8329,1574.344
8330,1542.843
8331,1491.567
8332,1471.791
8333,1380.963
8334,1361.893
8335,1315.737
8336,1247.616
8337,1237.375
8338,1160.425
8339,1158.978
8340,1125.288
8341,1067.408
8342,1044.701
8343,1067.408
8344,1049.821
8345,1032.976
8346,1025.631
8347,1034.424
8348,1045.407
8349,1041.028
8350,1031.493
8351,1047.632
8352,1085.701
8353,1137.012
8354,1139.908
8355,1185.357
8356,1183.874
8357,1227.099
8358,1272.513
8359,1287.910
8360,1302.565
8361,1356.031
8362,1381.669
8363,1395.618
8364,1458.619
8365,1458.619
8366,1462.998
8367,1522.326
8368,1532.602
8369,1553.120
8370,1549.447
8371,1567.033
8372,1572.154
8373,1573.637
8374,1594.119
8375,1569.965
8376,1603.654
8377,1578.758
8378,1561.913
8379,1609.516
8380,1591.930
8381,1558.982
8382,1603.654
8383,1561.913
8384,1596.344
8385,1561.913
8386,1600.723
8387,1575.827
8388,1567.775
8389,1593.413
8390,1553.120
8391,1587.551
8392,1550.189
8393,1553.861
8394,1588.999
8395,1541.395
8396,1556.051
8397,1574.344
8398,1554.568
8399,1540.654
8400,1555.309
8401,1550.930
8402,1531.860
8403,1520.136
8404,1520.136
8405,1509.895
8406,1489.377
8407,1476.912
8408,1428.566
8409,1441.739
8410,1388.273
8411,1358.962
8412,1319.410
8413,1315.031
8414,1303.307
8415,1285.720
8416,1265.944
8417,1249.099
8418,1177.270
8419,1194.151
8420,1140.649
8421,1175.822
8422,1117.942
8423,1132.598
8424,1131.856
8425,1129.667
8426,1091.563
8427,1137.012
8428,1132.598
8429,1112.080
8430,1102.545
8431,1154.563
8432,1150.184
8433,1138.460
8434,1188.995
8435,1177.270
8436,1178.012
8437,1182.426
8438,1238.081
8439,1200.719
8440,1213.185
8441,1233.702
8442,1239.565
8443,1254.220
8444,1308.427
8445,1309.875
8446,1276.927
8447,1284.237
8448,1308.427
8449,1303.307
8450,1308.427
8451,1258.599
8452,1249.099
8453,1241.754
8454,1235.150
8455,1218.305
8456,1203.650
8457,1211.737
8458,1223.426
8459,1180.943
8460,1158.236
8461,1197.788
8462,1185.357
8463,1149.443
8464,1190.478
8465,1181.685
8466,1161.167
8467,1188.288
8468,1217.564
8469,1221.237
8470,1200.013
8471,1247.616
8472,1279.858
8473,1313.548
8474,1323.824
8475,1345.048
8476,1413.911
8477,1400.739
8478,1432.981
8479,1495.240
8480,1532.602
8481,1510.637
8482,1538.464
8483,1556.757
8484,1569.965
8485,1587.551
8486,1646.879
8487,1637.344
8488,1623.430
8489,1612.448
8490,1643.206
8491,1649.068
8492,1626.361
8493,1596.344
8494,1557.499
8495,1536.981
8496,1530.413
8497,1505.481
8498,1465.187
8499,1404.376
8500,1389.014
8501,1320.893
8502,1338.444
8503,1295.961
8504,1265.203
8505,1213.185
8506,1211.737
8507,1181.685
8508,1191.926
8509,1200.719
8510,1145.064
8511,1186.805
8512,1176.564
8513,1136.271
8514,1180.943
8515,1152.374
8516,1178.754
8517,1231.513
8518,1244.685
8519,1273.254
8520,1296.703
8521,1317.962
8522,1359.704
8523,1383.894
8524,1439.549
8525,1476.205
8526,1492.309
8527,1552.378
8528,1567.033
8529,1583.878
8530,1611.000
8531,1679.121
8532,1678.379
8533,1694.518
8534,1729.655
8535,1731.139
8536,1784.604
8537,1765.570
8538,1765.570
8539,1754.587
8540,1752.363
8541,1745.794
8542,1737.001
8543,1727.466
8544,1721.604
8545,1737.001
8546,1682.052
8547,1668.138
8548,1649.810
8549,1651.293
8550,1619.051
8551,1609.516
8552,1586.809
8553,1556.757
8554,1537.723
8555,1515.757
8556,1471.791
8557,1428.566
8558,1461.550
8559,1392.687
8560,1429.308
8561,1396.324
8562,1361.893
8563,1385.342
8564,1369.238
8565,1358.962
8566,1384.600
8567,1349.463
8568,1401.480
8569,1354.583
8570,1388.273
8571,1369.238
8572,1372.876
8573,1407.307
8574,1389.756
8575,1449.084
8576,1443.963
8577,1421.256
8578,1431.497
8579,1467.412
8580,1478.395
8581,1475.464
8582,1493.050
8583,1499.619
8584,1489.377
8585,1461.550
8586,1459.325
8587,1471.049
8588,1471.791
8589,1484.257
8590,1423.446
8591,1424.894
8592,1446.894
8593,1383.894
8594,1385.342
8595,1367.755
8596,1378.032
8597,1334.066
8598,1312.806
8599,1311.358
8600,1282.789
8601,1307.686
8602,1306.944
8603,1279.858
8604,1282.048
8605,1277.669
8606,1271.065
8607,1257.151
8608,1240.306
8609,1232.961
8610,1223.426
8611,1172.150
8612,1199.271
8613,1165.581
8614,1140.649
8615,1185.357
8616,1156.047
8617,1184.616
8618,1144.322
8619,1193.409
8620,1156.047
8621,1195.598
8622,1220.495
8623,1206.581
8624,1256.410
8625,1276.185
8626,1289.393
8627,1265.203
8628,1342.117
8629,1330.393
8630,1390.462
8631,1375.807
8632,1408.049
8633,1443.222
8634,1475.464
8635,1534.050
8636,1595.603
8637,1580.947
8638,1631.482
8639,1667.396
8640,1721.604
8641,1701.086
8642,1722.345
8643,1748.725
8644,1781.673
8645,1765.570
8646,1757.518
8647,1769.949
8648,1772.880
8649,1730.397
8650,1687.172
8651,1654.931
8652,1652.741
8653,1569.965
