'sample interval','wrist_ppg'
'0.00390625 sec','mV'
0,1350.186
1,1362.629
2,1374.348
3,1375.839
4,1395.612
5,1402.218
6,1408.056
7,1419.775
8,1411.721
9,1416.110
10,1407.331
11,1453.482
12,1435.158
13,1445.428
14,1458.596
15,1450.542
16,1495.244
17,1474.704
18,1518.682
19,1498.185
20,1513.568
21,1504.747
22,1556.055
23,1521.622
24,1569.947
25,1539.179
26,1583.882
27,1555.330
28,1602.930
29,1570.714
30,1575.828
31,1602.930
32,1627.092
33,1588.995
34,1613.925
35,1627.859
36,1594.152
37,1619.038
38,1618.314
39,1602.930
40,1614.649
41,1630.033
42,1615.373
43,1590.487
44,1617.589
45,1575.828
46,1581.666
47,1589.762
48,1576.552
49,1561.168
50,1573.612
51,1543.569
52,1530.401
53,1536.282
54,1557.503
55,1515.017
56,1533.341
57,1518.682
58,1513.568
59,1483.525
60,1492.304
61,1505.514
62,1478.369
63,1489.364
64,1471.082
65,1506.963
66,1471.806
67,1465.926
68,1500.358
69,1479.136
70,1481.309
71,1497.418
72,1485.699
73,1477.645
74,1452.034
75,1453.482
76,1485.699
77,1487.915
78,1470.315
79,1467.417
80,1449.093
81,1482.801
82,1490.131
83,1476.920
84,1460.812
85,1449.818
86,1452.034
87,1493.753
88,1463.752
89,1475.471
90,1478.369
91,1494.520
92,1490.855
93,1451.266
94,1473.255
95,1489.364
96,1450.542
97,1481.309
98,1465.201
99,1471.806
100,1458.596
101,1435.158
102,1430.045
103,1445.428
104,1460.088
105,1460.812
106,1456.423
107,1439.548
108,1446.153
109,1437.374
110,1416.110
111,1457.872
112,1440.272
113,1428.553
114,1422.715
115,1422.715
116,1424.164
117,1426.380
118,1438.099
119,1441.039
120,1460.088
121,1477.645
122,1464.477
123,1475.471
124,1471.806
125,1510.628
126,1476.196
127,1488.639
128,1474.704
129,1484.974
130,1516.466
131,1509.136
132,1489.364
133,1504.023
134,1479.861
135,1473.980
136,1490.131
137,1493.028
138,1473.980
139,1512.801
140,1473.980
141,1498.909
142,1490.855
143,1479.861
144,1460.812
145,1484.974
146,1493.753
147,1451.266
148,1457.147
149,1484.250
150,1470.315
151,1462.261
152,1424.888
153,1423.439
154,1409.505
155,1414.661
156,1410.272
157,1356.791
158,1380.229
159,1319.418
160,1331.862
161,1305.484
162,1277.657
163,1253.494
164,1213.906
165,1178.025
166,1167.030
167,1141.377
168,1112.101
169,1046.901
170,1068.123
171,1030.026
172,1027.853
173,1008.080
174,993.420
175,994.145
176,989.756
177,965.551
178,992.653
179,986.091
180,997.085
181,1036.631
182,1028.577
183,1059.344
184,1082.782
185,1071.788
186,1120.155
187,1168.479
188,1195.624
189,1185.354
190,1241.775
191,1299.645
192,1330.413
193,1367.785
194,1376.564
195,1392.672
196,1462.985
197,1481.309
198,1491.579
199,1538.455
200,1561.893
201,1579.492
202,1603.655
203,1629.308
204,1649.081
205,1661.525
206,1668.130
207,1698.173
208,1703.286
209,1703.286
210,1707.676
211,1701.838
212,1696.724
213,1688.627
214,1665.189
215,1640.303
216,1636.638
217,1632.973
218,1571.438
219,1575.103
220,1545.060
221,1553.839
222,1532.617
223,1518.682
224,1493.753
225,1476.920
226,1428.553
227,1414.661
228,1427.104
229,1378.737
230,1393.397
231,1360.456
232,1385.342
233,1342.132
234,1375.072
235,1332.586
236,1364.845
237,1336.251
238,1354.575
239,1323.808
240,1356.791
241,1327.472
242,1353.126
243,1315.754
244,1343.581
245,1321.592
246,1323.808
247,1321.592
248,1298.921
249,1337.742
250,1330.413
251,1287.927
252,1329.688
253,1309.873
254,1282.046
255,1319.418
256,1279.105
257,1316.478
258,1284.262
259,1270.327
260,1315.754
261,1302.543
262,1321.592
263,1301.094
264,1295.981
265,1329.688
266,1347.970
267,1361.905
268,1366.294
269,1348.737
270,1371.408
271,1352.402
272,1364.845
273,1384.618
274,1371.408
275,1410.272
276,1422.715
277,1432.218
278,1428.553
279,1434.434
280,1433.709
281,1432.218
282,1439.548
283,1410.272
284,1399.277
285,1405.115
286,1441.764
287,1441.039
288,1432.985
289,1416.834
290,1417.601
291,1397.061
292,1397.786
293,1403.667
294,1410.272
295,1427.104
296,1428.553
297,1429.320
298,1424.888
299,1388.283
300,1402.218
301,1372.899
302,1376.564
303,1380.953
304,1402.942
305,1405.840
306,1386.067
307,1367.018
308,1370.683
309,1400.002
310,1390.456
311,1399.277
312,1393.397
313,1367.018
314,1363.354
315,1400.002
316,1406.607
317,1400.002
318,1375.839
319,1408.056
320,1428.553
321,1399.277
322,1430.045
323,1448.369
324,1453.482
325,1433.709
326,1431.494
327,1467.417
328,1475.471
329,1470.315
330,1453.482
331,1449.093
332,1418.326
333,1435.158
334,1435.158
335,1428.553
336,1420.499
337,1410.272
338,1394.121
339,1353.126
340,1361.905
341,1376.564
342,1372.175
343,1379.504
344,1350.186
345,1329.688
346,1342.856
347,1344.305
348,1353.126
349,1367.785
350,1362.629
351,1311.364
352,1343.581
353,1303.310
354,1328.921
355,1314.305
356,1276.932
357,1287.927
358,1308.424
359,1301.094
360,1261.548
361,1258.608
362,1279.872
363,1268.878
364,1281.321
365,1319.418
366,1334.078
367,1356.024
368,1369.959
369,1398.553
370,1425.655
371,1411.721
372,1443.937
373,1460.088
374,1502.574
375,1501.849
376,1520.898
377,1544.336
378,1543.569
379,1566.282
380,1583.157
381,1567.773
382,1554.563
383,1561.893
384,1558.995
385,1565.558
386,1506.963
387,1528.185
388,1474.704
389,1467.417
390,1468.142
391,1428.553
392,1451.266
393,1400.726
394,1404.391
395,1389.007
396,1379.504
397,1361.180
398,1327.472
399,1295.981
400,1313.538
401,1299.645
402,1251.278
403,1226.392
404,1246.889
405,1195.624
406,1225.625
407,1211.008
408,1197.073
409,1182.414
410,1161.917
411,1134.814
412,1125.268
413,1124.544
414,1129.658
415,1116.490
416,1103.280
417,1097.441
418,1102.555
419,1112.825
420,1117.214
421,1118.663
422,1122.328
423,1128.933
424,1130.382
425,1134.047
426,1134.047
427,1127.484
428,1134.814
429,1138.479
430,1148.706
431,1150.198
432,1139.928
433,1139.203
434,1180.965
435,1178.025
436,1177.300
437,1223.451
438,1213.181
439,1261.548
440,1246.165
441,1306.975
442,1315.754
443,1344.305
444,1347.245
445,1418.326
446,1432.218
447,1435.158
448,1491.579
449,1499.634
450,1550.898
451,1577.276
452,1611.709
453,1621.979
454,1623.428
455,1621.254
456,1675.459
457,1663.016
458,1663.740
459,1649.806
460,1648.357
461,1671.795
462,1684.238
463,1665.914
464,1663.016
465,1643.968
466,1654.962
467,1638.087
468,1597.049
469,1591.936
470,1581.666
471,1577.276
472,1588.995
473,1567.773
474,1526.012
475,1523.796
476,1550.898
477,1499.634
478,1529.676
479,1487.915
480,1489.364
481,1498.909
482,1464.477
483,1477.645
484,1476.920
485,1441.039
486,1433.709
487,1468.866
488,1431.494
489,1426.380
490,1446.877
491,1449.818
492,1424.888
493,1409.505
494,1407.331
495,1409.505
496,1426.380
497,1424.164
498,1422.715
499,1426.380
500,1430.045
501,1462.985
502,1421.991
503,1457.872
504,1469.591
505,1459.321
506,1447.602
507,1441.039
508,1442.488
509,1455.698
510,1476.196
511,1443.937
512,1473.980
513,1445.428
514,1478.369
515,1476.196
516,1486.466
517,1447.602
518,1465.201
519,1468.142
520,1449.093
521,1483.525
522,1441.039
523,1475.471
524,1435.883
525,1476.196
526,1447.602
527,1431.494
528,1461.536
529,1452.034
530,1441.039
531,1439.548
532,1429.320
533,1416.110
534,1436.650
535,1424.888
536,1408.780
537,1440.272
538,1441.764
539,1410.272
540,1458.596
541,1424.164
542,1452.758
543,1438.823
544,1430.769
545,1465.201
546,1436.650
547,1429.320
548,1465.926
549,1429.320
550,1471.082
551,1434.434
552,1448.369
553,1469.591
554,1430.769
555,1465.926
556,1417.601
557,1454.207
558,1419.050
559,1391.223
560,1373.624
561,1362.629
562,1360.456
563,1343.581
564,1289.375
565,1251.278
566,1260.824
567,1222.727
568,1182.414
569,1166.306
570,1136.987
571,1098.166
572,1069.614
573,1091.561
574,1061.518
575,1068.847
576,1070.339
577,1043.236
578,1092.328
579,1105.496
580,1087.896
581,1106.944
582,1144.317
583,1200.738
584,1218.295
585,1246.165
586,1241.008
587,1308.424
588,1297.430
589,1342.856
590,1334.802
591,1357.515
592,1372.899
593,1393.397
594,1407.331
595,1421.266
596,1471.806
597,1475.471
598,1456.423
599,1484.974
600,1498.909
601,1474.704
602,1508.412
603,1481.309
604,1503.298
605,1479.136
606,1521.622
607,1506.963
608,1479.861
609,1476.920
610,1514.293
611,1496.693
612,1487.915
613,1502.574
614,1472.531
615,1481.309
616,1457.147
617,1471.082
618,1446.153
619,1468.866
620,1465.926
621,1434.434
622,1419.050
623,1403.667
624,1397.061
625,1374.348
626,1358.964
627,1345.072
628,1350.910
629,1368.510
630,1316.478
631,1350.910
632,1315.029
633,1350.910
634,1317.970
635,1346.521
636,1376.564
637,1375.839
638,1369.234
639,1388.283
640,1443.937
641,1474.704
642,1472.531
643,1508.412
644,1529.676
645,1548.001
646,1590.487
647,1623.428
648,1598.541
649,1605.871
650,1612.433
651,1626.368
652,1610.984
653,1621.254
654,1612.433
655,1545.785
656,1555.330
657,1485.699
658,1441.039
659,1400.726
660,1385.342
661,1315.029
662,1290.824
663,1238.111
664,1191.193
665,1111.376
666,1095.950
667,1041.745
668,1005.864
669,983.150
670,944.329
671,925.280
672,884.243
673,842.481
674,874.740
675,871.800
676,837.367
677,862.254
678,892.297
679,912.070
680,931.119
681,920.891
682,992.653
683,1011.702
684,1026.361
685,1068.847
686,1124.544
687,1175.809
688,1244.673
689,1282.770
690,1336.251
691,1358.240
692,1389.007
693,1446.877
694,1508.412
695,1531.850
696,1580.217
697,1614.649
698,1619.038
699,1646.141
700,1692.292
701,1678.400
702,1728.216
703,1730.389
704,1726.724
705,1756.767
706,1736.994
707,1726.724
708,1735.545
709,1712.108
710,1728.940
711,1712.832
712,1690.843
713,1668.130
714,1670.346
715,1649.806
716,1605.871
717,1572.163
718,1561.168
719,1522.347
720,1465.201
721,1450.542
722,1407.331
723,1378.013
724,1350.910
725,1325.257
726,1318.694
727,1306.975
728,1284.986
729,1239.560
730,1243.224
731,1256.392
732,1251.278
733,1241.008
734,1243.224
735,1245.440
736,1248.338
737,1256.392
738,1256.392
739,1248.338
740,1264.489
741,1287.160
742,1286.435
743,1282.046
744,1297.430
745,1324.532
746,1349.461
747,1346.521
748,1364.845
749,1397.786
750,1415.385
751,1434.434
752,1438.099
753,1416.110
754,1438.099
755,1477.645
756,1452.758
757,1480.585
758,1479.136
759,1520.898
760,1486.466
761,1514.293
762,1543.569
763,1507.688
764,1530.401
765,1562.617
766,1526.736
767,1564.109
768,1528.952
769,1545.785
770,1551.665
771,1569.947
772,1541.395
773,1561.893
774,1535.515
775,1546.509
776,1511.352
777,1538.455
778,1506.963
779,1520.898
780,1489.364
781,1498.185
782,1466.650
783,1498.185
784,1456.423
785,1463.752
786,1446.877
787,1422.715
788,1454.931
789,1433.709
790,1416.834
791,1392.672
792,1398.553
793,1376.564
794,1354.575
795,1367.785
796,1351.635
797,1350.910
798,1347.970
799,1309.148
800,1314.305
801,1328.921
802,1315.754
803,1268.111
804,1301.819
805,1280.597
806,1270.327
807,1253.494
808,1269.602
809,1279.872
810,1289.375
811,1249.105
812,1251.278
813,1266.662
814,1279.105
815,1287.927
816,1295.981
817,1296.705
818,1295.981
819,1295.981
820,1267.387
821,1290.824
822,1295.981
823,1310.640
824,1304.035
825,1305.484
826,1311.364
827,1318.694
828,1309.148
829,1307.700
830,1331.137
831,1324.532
832,1330.413
833,1329.688
834,1352.402
835,1339.916
836,1397.786
837,1409.505
838,1399.277
839,1435.883
840,1421.991
841,1469.591
842,1457.872
843,1489.364
844,1528.185
845,1548.001
846,1534.790
847,1535.515
848,1547.233
849,1577.276
850,1589.762
851,1575.828
852,1561.893
853,1549.449
854,1568.498
855,1578.001
856,1528.185
857,1537.006
858,1556.055
859,1527.461
860,1502.574
861,1527.461
862,1501.082
863,1538.455
864,1509.136
865,1498.909
866,1538.455
867,1532.617
868,1535.515
869,1567.773
870,1550.898
871,1560.444
872,1567.049
873,1595.601
874,1617.589
875,1641.752
876,1651.297
877,1660.076
878,1671.795
879,1676.184
880,1674.011
881,1679.849
882,1675.459
883,1677.675
884,1674.011
885,1669.579
886,1649.081
887,1636.638
888,1604.379
889,1589.762
890,1579.492
891,1561.893
892,1558.995
893,1513.568
894,1509.136
895,1482.801
896,1468.866
897,1471.082
898,1427.829
899,1447.602
900,1419.775
901,1413.937
902,1383.894
903,1426.380
904,1413.937
905,1407.331
906,1405.115
907,1413.169
908,1421.266
909,1449.093
910,1452.758
911,1491.579
912,1460.812
913,1494.520
914,1530.401
915,1537.006
916,1553.839
917,1553.839
918,1536.282
919,1571.438
920,1590.487
921,1586.822
922,1584.606
923,1585.331
924,1561.893
925,1558.995
926,1593.427
927,1576.552
928,1550.174
929,1542.120
930,1539.946
931,1552.390
932,1543.569
933,1555.330
934,1503.298
935,1502.574
936,1526.012
937,1482.034
938,1468.142
939,1494.520
940,1448.369
941,1468.142
942,1438.099
943,1416.834
944,1427.829
945,1386.067
946,1411.721
947,1401.451
948,1386.834
949,1376.564
950,1367.018
951,1363.354
952,1358.240
953,1333.353
954,1326.748
955,1343.581
956,1309.873
957,1338.467
958,1297.430
959,1322.359
960,1294.489
961,1331.137
962,1318.694
963,1290.824
964,1306.975
965,1329.688
966,1294.489
967,1314.305
968,1328.921
969,1327.472
970,1326.024
971,1320.867
972,1326.024
973,1284.986
974,1306.975
975,1309.148
976,1271.051
977,1273.267
978,1293.765
979,1308.424
980,1282.770
981,1274.716
982,1269.602
983,1268.111
984,1283.537
985,1276.208
986,1279.105
987,1287.927
988,1297.430
989,1309.873
990,1309.873
991,1315.754
992,1318.694
993,1326.024
994,1315.754
995,1306.975
996,1323.083
997,1328.921
998,1325.257
999,1302.543
1000,1285.711
1001,1311.364
1002,1307.700
1003,1293.040
1004,1293.765
1005,1317.202
1006,1277.657
1007,1314.305
1008,1311.364
1009,1287.160
1010,1308.424
1011,1290.824
1012,1315.029
1013,1314.305
1014,1298.154
1015,1326.748
1016,1348.737
1017,1347.970
1018,1312.813
1019,1330.413
1020,1356.791
1021,1361.905
1022,1320.867
1023,1336.975
1024,1339.191
1025,1349.461
1026,1363.354
1027,1359.689
1028,1334.078
1029,1330.413
1030,1329.688
1031,1308.424
1032,1293.765
1033,1288.651
1034,1276.932
1035,1287.160
1036,1246.889
1037,1254.219
1038,1233.679
1039,1254.943
1040,1226.392
1041,1234.446
1042,1235.895
1043,1205.127
1044,1190.468
1045,1213.181
1046,1175.084
1047,1208.792
1048,1190.468
1049,1180.241
1050,1161.917
1051,1159.701
1052,1191.193
1053,1167.755
1054,1150.922
1055,1196.349
1056,1169.246
1057,1167.755
1058,1197.073
1059,1205.127
1060,1224.176
1061,1224.900
1062,1246.889
1063,1268.111
1064,1326.024
1065,1361.180
1066,1390.456
1067,1428.553
1068,1444.704
1069,1528.185
1070,1575.103
1071,1617.589
1072,1679.849
1073,1701.113
1074,1789.750
1075,1813.913
1076,1892.323
1077,1939.198
1078,1977.295
1079,1999.284
1080,2040.279
1081,2087.921
1082,2122.354
1083,2128.959
1084,2114.300
1085,2126.743
1086,2113.533
1087,2104.754
1088,2076.927
1089,2018.333
1090,1992.679
1091,1936.982
1092,1865.944
1093,1796.356
1094,1770.702
1095,1676.184
1096,1616.098
1097,1515.017
1098,1469.591
1099,1393.397
1100,1328.921
1101,1224.176
1102,1164.090
1103,1119.430
1104,1020.523
1105,1002.199
1106,947.994
1107,909.897
1108,865.919
1109,804.384
1110,808.049
1111,750.179
1112,751.628
1113,759.725
1114,764.838
1115,757.509
1116,765.563
1117,789.000
1118,802.211
1119,804.384
1120,871.800
1121,910.621
1122,945.053
1123,980.934
1124,1000.750
1125,1062.285
1126,1098.890
1127,1166.306
1128,1186.079
1129,1268.111
1130,1293.765
1131,1315.754
1132,1358.240
1133,1399.277
1134,1443.937
1135,1518.682
1136,1511.352
1137,1551.665
1138,1597.049
1139,1599.990
1140,1602.206
1141,1620.530
1142,1638.087
1143,1643.968
1144,1649.806
1145,1649.806
1146,1648.357
1147,1641.027
1148,1624.919
1149,1631.482
1150,1578.001
1151,1594.876
1152,1534.790
1153,1550.174
1154,1511.352
1155,1498.185
1156,1472.531
1157,1409.505
1158,1414.661
1159,1369.234
1160,1375.839
1161,1317.202
1162,1309.148
1163,1307.700
1164,1279.105
1165,1258.608
1166,1243.224
1167,1213.906
1168,1220.511
1169,1212.457
1170,1205.127
1171,1214.673
1172,1204.403
1173,1208.792
1174,1201.463
1175,1196.349
1176,1211.008
1177,1219.062
1178,1218.295
1179,1232.230
1180,1240.284
1181,1221.960
1182,1268.878
1183,1282.046
1184,1254.943
1185,1303.310
1186,1293.765
1187,1312.089
1188,1312.813
1189,1363.354
1190,1343.581
1191,1350.910
1192,1367.785
1193,1388.283
1194,1400.726
1195,1418.326
1196,1467.417
1197,1483.525
1198,1464.477
1199,1488.639
1200,1512.077
1201,1481.309
1202,1526.736
1203,1493.753
1204,1517.958
1205,1521.622
1206,1498.185
1207,1517.233
1208,1525.287
1209,1528.185
1210,1479.136
1211,1483.525
1212,1479.136
1213,1469.591
1214,1490.855
1215,1440.272
1216,1464.477
1217,1442.488
1218,1454.931
1219,1424.888
1220,1404.391
1221,1417.601
1222,1382.402
1223,1405.840
1224,1372.175
1225,1397.786
1226,1364.121
1227,1356.024
1228,1383.894
1229,1343.581
1230,1373.624
1231,1349.461
1232,1359.689
1233,1337.742
1234,1322.359
1235,1364.121
1236,1331.137
1237,1362.629
1238,1328.197
1239,1317.970
1240,1350.910
1241,1364.845
1242,1331.137
1243,1326.748
1244,1370.683
1245,1333.353
1246,1376.564
1247,1352.402
1248,1345.072
1249,1353.126
1250,1393.397
1251,1369.234
1252,1358.240
1253,1390.456
1254,1367.018
1255,1416.834
1256,1409.505
1257,1382.402
1258,1413.937
1259,1382.402
1260,1400.726
1261,1403.667
1262,1379.504
1263,1387.558
1264,1367.018
1265,1361.905
1266,1361.905
1267,1342.132
1268,1302.543
1269,1318.694
1270,1313.538
1271,1274.716
1272,1288.651
1273,1273.267
1274,1232.954
1275,1232.954
1276,1238.111
1277,1198.522
1278,1207.343
1279,1216.122
1280,1195.624
1281,1194.857
1282,1178.749
1283,1171.420
1284,1169.971
1285,1171.420
1286,1207.343
1287,1197.798
1288,1180.241
1289,1205.852
1290,1227.841
1291,1235.895
1292,1224.176
1293,1270.327
1294,1273.992
1295,1313.538
1296,1339.916
1297,1335.527
1298,1371.408
1299,1359.689
1300,1413.937
1301,1425.655
1302,1415.385
1303,1433.709
1304,1489.364
1305,1461.536
1306,1487.190
1307,1508.412
1308,1520.131
1309,1526.012
1310,1535.515
1311,1552.390
1312,1559.719
1313,1571.438
1314,1573.612
1315,1589.762
1316,1591.211
1317,1580.217
1318,1548.725
1319,1572.163
1320,1580.941
1321,1544.336
1322,1534.066
1323,1548.001
1324,1544.336
1325,1509.904
1326,1509.136
1327,1503.298
1328,1505.514
1329,1512.077
1330,1479.861
1331,1471.082
1332,1430.769
1333,1446.877
1334,1419.050
1335,1380.953
1336,1348.737
1337,1326.748
1338,1320.867
1339,1260.057
1340,1270.327
1341,1216.846
1342,1191.960
1343,1134.047
1344,1132.598
1345,1120.155
1346,1092.328
1347,1054.955
1348,1005.864
1349,1029.301
1350,975.821
1351,989.031
1352,991.929
1353,971.431
1354,947.269
1355,977.270
1356,960.437
1357,955.323
1358,946.502
1359,991.929
1360,963.377
1361,1011.702
1362,997.810
1363,1010.977
1364,1030.026
1365,1046.134
1366,1075.453
1367,1114.274
1368,1123.095
1369,1152.371
1370,1188.295
1371,1217.571
1372,1217.571
1373,1258.608
1374,1252.003
1375,1292.316
1376,1326.748
1377,1367.018
1378,1382.402
1379,1383.169
1380,1386.834
1381,1449.818
1382,1441.039
1383,1487.190
1384,1471.082
1385,1504.747
1386,1545.785
1387,1534.066
1388,1545.060
1389,1572.163
1390,1611.709
1391,1585.331
1392,1634.422
1393,1679.849
1394,1655.686
1395,1654.195
1396,1668.854
1397,1679.849
1398,1643.968
1399,1646.865
1400,1671.070
1401,1640.303
1402,1657.135
1403,1616.098
1404,1630.757
1405,1630.033
1406,1593.427
1407,1584.606
1408,1602.930
1409,1568.498
1410,1548.725
1411,1550.174
1412,1575.103
1413,1525.287
1414,1557.503
1415,1512.077
1416,1546.509
1417,1539.946
1418,1508.412
1419,1484.974
1420,1523.071
1421,1495.969
1422,1474.704
1423,1501.849
1424,1498.185
1425,1464.477
1426,1507.688
1427,1503.298
1428,1484.974
1429,1524.563
1430,1492.304
1431,1541.395
1432,1509.904
1433,1540.671
1434,1547.233
1435,1537.731
1436,1567.049
1437,1553.839
1438,1552.390
1439,1548.001
1440,1535.515
1441,1578.001
1442,1539.946
1443,1544.336
1444,1572.887
1445,1534.790
1446,1545.060
1447,1558.228
1448,1538.455
1449,1510.628
1450,1500.358
1451,1505.514
1452,1504.747
1453,1511.352
1454,1500.358
1455,1490.855
1456,1478.369
1457,1429.320
1458,1450.542
1459,1432.218
1460,1391.223
1461,1399.277
1462,1369.234
1463,1329.688
1464,1343.581
1465,1316.478
1466,1285.711
1467,1295.981
1468,1286.435
1469,1251.278
1470,1232.230
1471,1271.051
1472,1251.278
1473,1238.111
1474,1226.392
1475,1237.344
1476,1252.003
1477,1258.608
1478,1257.884
1479,1259.332
1480,1258.608
1481,1262.273
1482,1262.273
1483,1260.824
1484,1267.387
1485,1262.997
1486,1257.884
1487,1252.727
1488,1258.608
1489,1292.316
1490,1287.160
1491,1277.657
1492,1272.543
1493,1318.694
1494,1291.591
1495,1338.467
1496,1304.035
1497,1334.078
1498,1333.353
1499,1362.629
1500,1334.802
1501,1350.910
1502,1342.132
1503,1326.024
1504,1349.461
1505,1323.808
1506,1326.748
1507,1334.802
1508,1302.543
1509,1290.824
1510,1300.370
1511,1268.111
1512,1290.100
1513,1248.338
1514,1268.111
1515,1270.327
1516,1249.830
1517,1227.841
1518,1230.781
1519,1241.008
1520,1217.571
1521,1235.895
1522,1235.895
1523,1236.619
1524,1265.213
1525,1265.938
1526,1255.668
1527,1294.489
1528,1328.921
1529,1344.305
1530,1384.618
1531,1421.266
1532,1429.320
1533,1454.207
1534,1536.282
1535,1557.503
1536,1605.146
1537,1650.530
1538,1714.281
1539,1746.540
1540,1805.134
1541,1842.507
1542,1862.280
1543,1894.496
1544,1954.582
1545,1940.647
1546,1964.852
1547,1988.290
1548,1975.079
1549,1954.582
1550,1959.696
1551,1904.042
1552,1873.274
1553,1835.902
1554,1813.188
1555,1746.540
1556,1679.849
1557,1623.428
1558,1588.995
1559,1493.028
1560,1468.142
1561,1401.451
1562,1286.435
1563,1263.722
1564,1196.349
1565,1090.836
1566,1055.680
1567,1002.923
1568,969.216
1569,924.556
1570,860.805
1571,843.973
1572,814.654
1573,778.006
1574,808.049
1575,799.995
1576,769.952
1577,823.433
1578,811.714
1579,859.356
1580,886.459
1581,916.502
1582,924.556
1583,954.599
1584,981.701
1585,1035.907
1586,1085.723
1587,1106.944
1588,1189.019
1589,1188.295
1590,1260.824
1591,1319.418
1592,1339.191
1593,1359.689
1594,1426.380
1595,1424.888
1596,1496.693
1597,1489.364
1598,1510.628
1599,1560.444
1600,1544.336
1601,1563.384
1602,1604.379
1603,1580.941
1604,1576.552
1605,1576.552
1606,1580.941
1607,1572.163
1608,1563.384
1609,1542.120
1610,1531.125
1611,1510.628
1612,1499.634
1613,1489.364
1614,1461.536
1615,1464.477
1616,1462.261
1617,1410.996
1618,1429.320
1619,1376.564
1620,1401.451
1621,1353.126
1622,1384.618
1623,1358.964
1624,1350.910
1625,1339.916
1626,1349.461
1627,1365.569
1628,1347.970
1629,1403.667
1630,1424.164
1631,1438.823
1632,1476.920
1633,1496.693
1634,1510.628
1635,1590.487
1636,1621.979
1637,1668.854
1638,1728.216
1639,1824.183
1640,1852.734
1641,1936.258
1642,1997.068
1643,2032.949
1644,2104.030
1645,2120.862
1646,2165.564
1647,2206.602
1648,2201.445
1649,2226.375
1650,2241.034
1651,2229.315
1652,2227.824
1653,2197.823
1654,2190.494
1655,2167.780
1656,2129.683
1657,2106.246
1658,2081.316
1659,2037.381
1660,1991.954
1661,1958.971
1662,1903.317
1663,1863.729
1664,1834.453
1665,1789.750
1666,1729.665
1667,1696.724
1668,1693.783
1669,1615.373
1670,1613.200
1671,1562.617
1672,1517.958
1673,1484.974
1674,1467.417
1675,1471.806
1676,1410.996
1677,1416.110
1678,1391.223
1679,1346.521
1680,1356.791
1681,1323.083
1682,1279.105
1683,1273.267
1684,1263.722
1685,1249.830
1686,1249.105
1687,1221.960
1688,1224.900
1689,1219.787
1690,1214.673
1691,1192.684
1692,1183.138
1693,1178.749
1694,1194.857
1695,1178.025
1696,1169.971
1697,1175.084
1698,1136.987
1699,1164.814
1700,1148.706
1701,1128.209
1702,1138.479
1703,1136.987
1704,1127.484
1705,1091.561
1706,1067.398
1707,1080.566
1708,1048.350
1709,1052.739
1710,1044.685
1711,1033.691
1712,1016.134
1713,998.534
1714,981.701
1715,980.934
1716,974.372
1717,961.886
1718,971.431
1719,968.491
1720,956.048
1721,961.886
1722,967.042
1723,956.048
1724,983.875
1725,999.259
1726,972.156
1727,1018.307
1728,1019.799
1729,1025.637
1730,1046.134
1731,1082.058
1732,1093.052
1733,1109.160
1734,1168.479
1735,1167.030
1736,1226.392
1737,1247.614
1738,1254.943
1739,1279.872
1740,1322.359
1741,1383.894
1742,1386.067
1743,1400.002
1744,1468.142
1745,1490.855
1746,1478.369
1747,1527.461
1748,1534.790
1749,1542.120
1750,1555.330
1751,1577.276
1752,1610.984
1753,1594.876
1754,1591.936
1755,1587.546
1756,1605.146
1757,1621.254
1758,1583.157
1759,1616.865
1760,1568.498
1761,1593.427
1762,1550.898
1763,1575.103
1764,1534.066
1765,1506.963
1766,1487.915
1767,1471.806
1768,1471.806
1769,1455.698
1770,1391.948
1771,1377.288
1772,1335.527
1773,1342.132
1774,1286.435
1775,1252.003
1776,1227.841
1777,1212.457
1778,1205.127
1779,1168.479
1780,1143.593
1781,1153.095
1782,1090.112
1783,1101.106
1784,1067.398
1785,1034.415
1786,1013.918
1787,1005.139
1788,989.031
1789,975.821
1790,978.761
1791,993.420
1792,969.983
1793,963.377
1794,956.048
1795,972.880
1796,960.437
1797,1010.977
1798,1024.912
1799,1046.901
1800,1063.009
1801,1074.004
1802,1124.544
1803,1163.365
1804,1190.468
1805,1203.678
1806,1249.105
1807,1283.537
1808,1334.802
1809,1370.683
1810,1400.002
1811,1422.715
1812,1413.937
1813,1466.650
1814,1452.034
1815,1493.028
1816,1534.790
1817,1517.233
1818,1528.952
1819,1553.114
1820,1564.109
1821,1582.433
1822,1610.260
1823,1616.098
1824,1590.487
1825,1592.660
1826,1590.487
1827,1592.660
1828,1589.762
1829,1594.876
1830,1616.865
1831,1603.655
1832,1601.481
1833,1590.487
1834,1534.790
1835,1562.617
1836,1548.001
1837,1526.012
1838,1495.969
1839,1493.028
1840,1465.201
1841,1462.261
1842,1449.818
1843,1439.548
1844,1381.678
1845,1378.013
1846,1372.175
1847,1380.229
1848,1326.024
1849,1337.742
1850,1334.078
1851,1334.802
1852,1311.364
1853,1293.765
1854,1308.424
1855,1298.154
1856,1295.981
1857,1262.997
1858,1287.927
1859,1304.759
1860,1284.986
1861,1278.381
1862,1263.722
1863,1285.711
1864,1290.100
1865,1274.716
1866,1314.305
1867,1309.148
1868,1276.208
1869,1320.143
1870,1329.688
1871,1340.640
1872,1345.072
1873,1333.353
1874,1326.748
1875,1368.510
1876,1388.283
1877,1385.342
1878,1364.845
1879,1403.667
1880,1403.667
1881,1413.937
1882,1434.434
1883,1427.829
1884,1441.764
1885,1406.607
1886,1441.039
1887,1391.948
1888,1429.320
1889,1399.277
1890,1375.072
1891,1376.564
1892,1391.223
1893,1386.834
1894,1345.072
1895,1335.527
1896,1351.635
1897,1345.797
1898,1330.413
1899,1306.975
1900,1293.765
1901,1290.100
1902,1289.375
1903,1272.543
1904,1227.841
1905,1238.835
1906,1253.494
1907,1197.798
1908,1214.673
1909,1177.300
1910,1191.960
1911,1192.684
1912,1178.749
1913,1154.587
1914,1136.987
1915,1119.430
1916,1114.998
1917,1117.939
1918,1116.490
1919,1095.950
1920,1080.566
1921,1074.728
1922,1028.577
1923,1038.847
1924,1023.463
1925,1011.702
1926,997.810
1927,988.264
1928,981.701
1929,983.150
1930,947.269
1931,987.540
1932,975.096
1933,977.270
1934,988.264
1935,1044.685
1936,1074.004
1937,1093.777
1938,1171.420
1939,1211.733
1940,1256.392
1941,1329.688
1942,1429.320
1943,1482.801
1944,1572.887
1945,1665.189
1946,1747.264
1947,1833.686
1948,1942.139
1949,2031.500
1950,2105.478
1951,2187.553
1952,2254.202
1953,2317.952
1954,2350.169
1955,2413.195
1956,2447.627
1957,2471.065
1958,2470.341
1959,2463.735
1960,2459.346
1961,2424.189
1962,2404.417
1963,2367.044
1964,2304.018
1965,2242.483
1966,2166.289
1967,2084.257
1968,1989.014
1969,1934.809
1970,1837.350
1971,1739.935
1972,1644.692
1973,1538.455
1974,1474.704
1975,1358.240
1976,1301.094
1977,1189.744
1978,1124.544
1979,1049.799
1980,1032.242
1981,958.988
1982,931.119
1983,895.237
1984,875.464
1985,858.589
1986,842.481
1987,830.762
1988,828.589
1989,827.822
1990,877.638
1991,913.562
1992,923.789
1993,986.091
1994,1002.199
1995,1069.614
1996,1146.533
1997,1191.960
1998,1224.900
1999,1277.657
2000,1356.024
2001,1393.397
2002,1406.607
2003,1485.699
2004,1528.185
2005,1562.617
2006,1587.546
2007,1614.649
2008,1598.541
2009,1616.098
2010,1627.859
2011,1652.022
2012,1646.141
2013,1619.763
2014,1649.806
2015,1642.476
2016,1630.757
2017,1600.714
2018,1578.768
2019,1558.228
2020,1537.006
2021,1504.023
2022,1483.525
2023,1493.028
2024,1452.758
2025,1464.477
2026,1407.331
2027,1380.953
2028,1380.953
2029,1360.456
2030,1326.024
2031,1321.592
2032,1298.154
2033,1298.154
2034,1315.029
2035,1262.273
2036,1264.489
2037,1287.927
2038,1282.046
2039,1240.284
2040,1254.219
2041,1264.489
2042,1247.614
2043,1244.673
2044,1257.159
2045,1276.208
2046,1289.375
2047,1304.035
2048,1301.819
2049,1312.813
2050,1310.640
2051,1294.489
2052,1306.208
2053,1317.970
2054,1342.132
2055,1336.251
2056,1350.186
2057,1384.618
2058,1396.337
2059,1403.667
2060,1415.385
2061,1418.326
2062,1443.937
2063,1463.752
2064,1444.704
2065,1442.488
2066,1461.536
2067,1462.985
2068,1468.142
2069,1473.980
2070,1449.818
2071,1485.699
2072,1458.596
2073,1440.272
2074,1482.034
2075,1440.272
2076,1469.591
2077,1448.369
2078,1442.488
2079,1415.385
2080,1427.829
2081,1426.380
2082,1394.888
2083,1387.558
2084,1378.737
2085,1363.354
2086,1373.624
2087,1389.732
2088,1384.618
2089,1370.683
2090,1361.905
2091,1358.240
2092,1361.905
2093,1372.175
2094,1375.839
2095,1379.504
2096,1386.067
2097,1394.121
2098,1378.013
2099,1367.018
2100,1378.737
2101,1425.655
2102,1443.212
2103,1434.434
2104,1428.553
2105,1428.553
2106,1460.812
2107,1447.602
2108,1454.931
2109,1464.477
2110,1439.548
2111,1479.136
2112,1430.769
2113,1443.937
2114,1455.698
2115,1421.991
2116,1393.397
2117,1427.104
2118,1405.840
2119,1386.067
2120,1372.175
2121,1350.910
2122,1346.521
2123,1331.137
2124,1321.592
2125,1318.694
2126,1321.592
2127,1304.035
2128,1304.035
2129,1319.418
2130,1320.867
2131,1304.759
2132,1316.478
2133,1323.808
2134,1320.143
2135,1315.754
2136,1332.586
2137,1332.586
2138,1331.862
2139,1335.527
2140,1340.640
2141,1311.364
2142,1325.257
2143,1346.521
2144,1364.121
2145,1382.402
2146,1399.277
2147,1428.553
2148,1474.704
2149,1496.693
2150,1538.455
2151,1581.666
2152,1635.913
2153,1702.562
2154,1721.610
2155,1767.762
2156,1814.637
2157,1871.783
2158,1932.593
2159,1951.641
2160,1997.793
2161,2038.106
2162,2041.046
2163,2068.149
2164,2098.916
2165,2076.927
2166,2071.813
2167,2080.592
2168,2038.106
2169,2038.830
2170,1983.900
2171,1937.749
2172,1914.269
2173,1845.404
2174,1824.907
2175,1745.773
2176,1677.675
2177,1643.968
2178,1552.390
2179,1476.196
2180,1448.369
2181,1358.240
2182,1302.543
2183,1268.111
2184,1210.241
2185,1122.328
2186,1099.615
2187,1021.972
2188,995.594
2189,977.270
2190,923.064
2191,900.351
2192,885.734
2193,879.129
2194,879.129
2195,897.453
2196,926.729
2197,939.940
2198,961.161
2199,954.599
2200,1014.642
2201,1059.344
2202,1094.501
2203,1130.382
2204,1150.198
2205,1166.306
2206,1241.775
2207,1262.997
2208,1319.418
2209,1340.640
2210,1380.229
2211,1431.494
2212,1459.321
2213,1457.147
2214,1515.742
2215,1546.509
2216,1572.163
2217,1587.546
2218,1591.936
2219,1593.427
2220,1610.984
2221,1594.876
2222,1576.552
2223,1576.552
2224,1564.833
2225,1560.444
2226,1545.785
2227,1542.844
2228,1534.790
2229,1522.347
2230,1475.471
2231,1473.255
2232,1477.645
2233,1426.380
2234,1405.115
2235,1418.326
2236,1376.564
2237,1364.121
2238,1357.515
2239,1335.527
2240,1317.970
2241,1290.824
2242,1249.830
2243,1254.219
2244,1271.051
2245,1222.727
2246,1246.165
2247,1260.824
2248,1263.722
2249,1227.841
2250,1236.619
2251,1259.332
2252,1257.884
2253,1281.321
2254,1295.981
2255,1317.202
2256,1323.808
2257,1328.197
2258,1393.397
2259,1392.672
2260,1438.823
2261,1437.374
2262,1468.866
2263,1520.898
2264,1551.665
2265,1578.001
2266,1580.217
2267,1603.655
2268,1657.135
2269,1671.070
2270,1693.783
2271,1706.951
2272,1741.383
2273,1759.707
2274,1732.605
2275,1777.307
2276,1772.875
2277,1745.048
2278,1767.037
2279,1743.599
2280,1762.648
2281,1767.037
2282,1723.059
2283,1753.827
2284,1701.838
2285,1720.162
2286,1690.119
2287,1657.860
2288,1669.579
2289,1659.351
2290,1613.925
2291,1565.558
2292,1547.233
2293,1539.946
2294,1485.699
2295,1493.028
2296,1443.212
2297,1399.277
2298,1412.445
2299,1391.223
2300,1374.348
2301,1336.251
2302,1300.370
2303,1289.375
2304,1304.035
2305,1308.424
2306,1306.208
2307,1290.100
2308,1276.932
2309,1268.111
2310,1260.057
2311,1261.548
2312,1257.884
2313,1262.997
2314,1223.451
2315,1242.500
2316,1189.744
2317,1213.181
2318,1170.695
2319,1166.306
2320,1162.641
2321,1136.987
2322,1119.430
2323,1098.166
2324,1065.183
2325,1041.745
2326,1045.410
2327,1006.588
2328,1002.923
2329,1028.577
2330,993.420
2331,1005.139
2332,1043.236
2333,1061.518
2334,1071.063
2335,1087.896
2336,1094.501
2337,1085.723
2338,1135.538
2339,1142.144
2340,1189.744
2341,1164.814
2342,1193.408
2343,1235.895
2344,1216.846
2345,1230.057
2346,1252.003
2347,1260.824
2348,1322.359
2349,1349.461
2350,1345.797
2351,1380.953
2352,1421.991
2353,1481.309
2354,1485.699
2355,1525.287
2356,1592.660
2357,1642.476
2358,1669.579
2359,1718.670
2360,1764.097
2361,1810.972
2362,1848.345
2363,1855.674
2364,1904.042
2365,1939.923
2366,1926.755
2367,1942.139
2368,1950.193
2369,1950.193
2370,1944.312
2371,1933.317
2372,1939.923
2373,1900.377
2374,1887.166
2375,1841.740
2376,1822.691
2377,1774.367
2378,1767.037
2379,1683.513
2380,1654.962
2381,1601.481
2382,1548.725
2383,1457.872
2384,1434.434
2385,1346.521
2386,1293.765
2387,1249.830
2388,1239.560
2389,1175.809
2390,1127.484
2391,1087.171
2392,1072.512
2393,1068.847
2394,1046.901
2395,1045.410
2396,1041.745
2397,1006.588
2398,1043.236
2399,1075.453
2400,1077.668
2401,1086.447
2402,1147.982
2403,1134.047
2404,1175.084
2405,1217.571
2406,1227.841
2407,1265.213
2408,1284.986
2409,1312.089
2410,1383.894
2411,1391.223
2412,1389.007
2413,1431.494
2414,1463.752
2415,1476.920
2416,1466.650
2417,1470.315
2418,1487.190
2419,1517.233
2420,1517.233
2421,1498.909
2422,1488.639
2423,1479.136
2424,1468.866
2425,1466.650
2426,1473.255
2427,1487.915
2428,1486.466
2429,1437.374
2430,1448.369
2431,1460.812
2432,1421.991
2433,1415.385
2434,1440.272
2435,1388.283
2436,1421.991
2437,1386.067
2438,1372.899
2439,1411.721
2440,1380.229
2441,1379.504
2442,1406.607
2443,1374.348
2444,1369.959
2445,1398.553
2446,1408.056
2447,1369.234
2448,1380.229
2449,1380.953
2450,1402.218
2451,1417.601
2452,1384.618
2453,1384.618
2454,1411.721
2455,1380.953
2456,1399.277
2457,1435.883
2458,1400.726
2459,1427.104
2460,1454.931
2461,1448.369
2462,1453.482
2463,1469.591
2464,1459.321
2465,1468.866
2466,1455.698
2467,1464.477
2468,1488.639
2469,1475.471
2470,1473.980
2471,1479.136
2472,1485.699
2473,1490.855
2474,1485.699
2475,1487.190
2476,1441.764
2477,1440.272
2478,1439.548
2479,1438.823
2480,1479.136
2481,1479.136
2482,1454.931
2483,1449.093
2484,1480.585
2485,1441.039
2486,1450.542
2487,1465.926
2488,1458.596
2489,1435.883
2490,1425.655
2491,1438.099
2492,1429.320
2493,1420.499
2494,1430.045
2495,1430.045
2496,1430.045
2497,1381.678
2498,1412.445
2499,1361.180
2500,1383.169
2501,1334.802
2502,1369.234
2503,1328.197
2504,1333.353
2505,1346.521
2506,1318.694
2507,1306.208
2508,1306.975
2509,1326.024
2510,1302.543
2511,1271.776
2512,1283.537
2513,1290.100
2514,1273.267
2515,1271.051
2516,1256.392
2517,1280.597
2518,1262.997
2519,1244.673
2520,1260.057
2521,1280.597
2522,1255.668
2523,1254.943
2524,1251.278
2525,1254.943
2526,1238.835
2527,1235.170
2528,1241.775
2529,1243.224
2530,1233.679
2531,1254.219
2532,1242.500
2533,1230.057
2534,1236.619
2535,1229.290
2536,1239.560
2537,1225.625
2538,1237.344
2539,1232.230
2540,1234.446
2541,1245.440
2542,1255.668
2543,1283.537
2544,1326.748
2545,1324.532
2546,1333.353
2547,1402.942
2548,1410.996
2549,1425.655
2550,1460.812
2551,1501.849
2552,1575.103
2553,1606.595
2554,1657.135
2555,1676.184
2556,1716.497
2557,1775.091
2558,1830.021
2559,1834.453
2560,1903.317
2561,1906.215
2562,1964.085
2563,1953.133
2564,1980.236
2565,1997.793
2566,2010.236
2567,2000.733
2568,2004.398
2569,1989.739
2570,1976.571
2571,1930.420
2572,1913.544
2573,1838.075
2574,1797.805
2575,1708.443
2576,1649.806
2577,1554.563
2578,1490.131
2579,1376.564
2580,1312.089
2581,1231.505
2582,1139.203
2583,1065.950
2584,1033.691
2585,963.377
2586,916.502
2587,885.734
2588,850.535
2589,795.606
2590,805.109
2591,821.984
2592,820.492
2593,849.811
2594,865.919
2595,861.530
2596,940.664
2597,982.426
2598,1030.026
2599,1068.123
2600,1092.328
2601,1178.025
2602,1241.008
2603,1302.543
2604,1350.910
2605,1371.408
2606,1431.494
2607,1488.639
2608,1524.563
2609,1591.936
2610,1610.984
2611,1668.854
2612,1672.519
2613,1728.216
2614,1719.395
2615,1767.037
2616,1733.329
2617,1755.318
2618,1739.935
2619,1755.318
2620,1706.951
2621,1722.335
2622,1689.394
2623,1627.859
2624,1668.854
2625,1756.767
2626,1978.744
2627,2298.904
2628,2711.366
2629,2791.949
2630,2791.225
2631,2791.225
2632,2790.458
2633,2791.949
2634,2791.225
2635,2791.225
2636,2791.225
2637,2791.949
2638,2791.225
2639,2791.225
2640,2791.949
2641,2791.225
2642,2791.225
2643,2791.225
2644,2791.949
2645,2790.458
2646,2791.949
2647,2791.949
2648,2791.225
2649,2791.225
2650,2791.225
2651,2791.949
2652,2790.458
2653,2791.949
2654,2791.949
2655,2791.225
2656,2790.458
2657,2791.225
2658,2705.485
2659,2499.616
2660,2215.380
2661,1889.382
2662,1562.617
2663,1273.992
2664,972.880
2665,707.693
2666,469.608
2667,271.793
2668,79.134
2669,0.000
2670,1.449
2671,0.724
2672,1.449
2673,0.724
2674,1.449
2675,1.449
2676,0.000
2677,1.449
2678,1.449
2679,0.000
2680,2.216
2681,23.438
2682,50.540
2683,127.459
2684,196.323
2685,239.577
2686,301.111
2687,385.359
2688,439.565
2689,506.213
2690,524.537
2691,586.072
2692,669.596
2693,691.585
2694,726.017
2695,797.055
2696,841.032
2697,872.524
2698,872.524
2699,939.940
2700,961.886
2701,989.031
2702,1001.474
2703,1052.015
2704,1077.668
2705,1103.280
2706,1114.998
2707,1115.766
2708,1181.690
2709,1167.030
2710,1216.122
2711,1230.781
2712,1240.284
2713,1239.560
2714,1232.230
2715,1247.614
2716,1236.619
2717,1213.906
2718,1191.960
2719,1210.241
2720,1215.397
2721,1164.090
2722,1186.079
2723,1156.036
2724,1120.155
2725,1104.047
2726,1085.723
2727,1093.052
2728,1091.561
2729,1052.015
2730,1052.015
2731,994.869
2732,994.869
2733,1010.977
2734,995.594
2735,976.545
2736,1000.750
2737,997.810
2738,1027.086
2739,1024.912
2740,1063.009
2741,1098.890
2742,1114.998
2743,1145.808
2744,1188.295
2745,1279.872
2746,1313.538
2747,1397.061
2748,1415.385
2749,1476.196
2750,1537.006
2751,1636.638
2752,1666.681
2753,1745.048
2754,1776.540
2755,1824.183
2756,1884.269
2757,1896.712
2758,1947.252
2759,1956.755
2760,1974.355
2761,1957.522
2762,1980.236
2763,1953.857
2764,1928.204
2765,1891.556
2766,1845.404
2767,1821.242
2768,1764.821
2769,1715.005
2770,1641.027
2771,1622.703
2772,1555.330
2773,1475.471
2774,1397.786
2775,1369.959
2776,1298.154
2777,1264.489
2778,1194.133
2779,1197.798
2780,1167.030
2781,1126.760
2782,1124.544
2783,1120.155
2784,1116.490
2785,1113.550
2786,1131.874
2787,1147.257
2788,1141.377
2789,1149.431
2790,1221.235
2791,1235.895
2792,1238.111
2793,1272.543
2794,1340.640
2795,1362.629
2796,1394.121
2797,1399.277
2798,1443.937
2799,1490.855
2800,1517.233
2801,1527.461
2802,1523.071
2803,1578.001
2804,1562.617
2805,1580.217
2806,1586.822
2807,1597.049
2808,1615.373
2809,1605.871
2810,1598.541
2811,1621.254
2812,1588.271
2813,1610.260
2814,1573.612
2815,1559.719
2816,1578.768
2817,1553.839
2818,1528.185
2819,1515.742
2820,1509.136
2821,1491.579
2822,1468.866
2823,1441.039
2824,1449.093
2825,1419.775
2826,1381.678
2827,1377.288
2828,1381.678
2829,1364.845
2830,1355.299
2831,1341.407
2832,1337.742
2833,1327.472
2834,1300.370
2835,1331.862
2836,1314.305
2837,1312.089
2838,1314.305
2839,1326.748
2840,1314.305
2841,1328.197
2842,1372.899
2843,1373.624
2844,1356.024
2845,1358.964
2846,1368.510
2847,1419.050
2848,1410.996
2849,1403.667
2850,1400.726
2851,1448.369
2852,1430.045
2853,1421.266
2854,1448.369
2855,1447.602
2856,1448.369
2857,1433.709
2858,1475.471
2859,1435.158
2860,1479.136
2861,1449.093
2862,1471.806
2863,1456.423
2864,1479.861
2865,1472.531
2866,1446.153
2867,1468.142
2868,1471.806
2869,1438.823
2870,1461.536
2871,1424.888
2872,1460.088
2873,1422.715
2874,1406.607
2875,1387.558
2876,1415.385
2877,1394.888
2878,1371.408
2879,1358.964
2880,1341.407
2881,1339.916
2882,1310.640
2883,1305.484
2884,1289.375
2885,1271.776
2886,1265.938
2887,1283.537
2888,1246.889
2889,1242.500
2890,1238.111
2891,1272.543
2892,1279.105
2893,1246.165
2894,1239.560
2895,1275.441
2896,1276.208
2897,1230.057
2898,1218.295
2899,1232.230
2900,1243.949
2901,1201.463
2902,1178.749
2903,1189.744
2904,1184.630
2905,1127.484
2906,1149.431
2907,1120.879
2908,1075.453
2909,1087.896
2910,1076.177
2911,1067.398
2912,1021.247
2913,1024.188
2914,1024.188
2915,990.480
2916,1013.918
2917,1029.301
2918,1039.571
2919,1019.799
2920,1073.279
2921,1074.728
2922,1131.149
2923,1135.538
2924,1165.581
2925,1200.738
2926,1283.537
2927,1298.154
2928,1327.472
2929,1371.408
2930,1419.050
2931,1463.752
2932,1500.358
2933,1517.958
2934,1594.876
2935,1584.606
2936,1635.146
2937,1653.470
2938,1657.135
2939,1711.340
2940,1700.346
2941,1706.951
2942,1720.886
2943,1739.210
2944,1745.773
2945,1759.707
2946,1769.210
2947,1769.977
2948,1775.816
2949,1780.205
2950,1782.421
2951,1768.486
2952,1762.648
2953,1755.318
2954,1762.648
2955,1750.929
2956,1723.059
2957,1714.281
2958,1715.005
2959,1668.854
2960,1638.087
2961,1649.806
2962,1613.200
2963,1596.325
2964,1536.282
2965,1494.520
2966,1494.520
2967,1431.494
2968,1446.153
2969,1382.402
2970,1339.191
2971,1311.364
2972,1282.770
2973,1271.776
2974,1275.441
2975,1212.457
2976,1223.451
2977,1181.690
2978,1201.463
2979,1200.014
2980,1180.965
2981,1178.025
2982,1158.976
2983,1152.371
2984,1148.706
2985,1153.863
2986,1193.408
2987,1200.014
2988,1180.241
2989,1229.290
2990,1213.906
2991,1247.614
2992,1224.176
2993,1249.105
2994,1284.986
2995,1257.159
2996,1297.430
2997,1316.478
2998,1341.407
2999,1354.575
3000,1346.521
3001,1377.288
3002,1388.283
3003,1380.953
3004,1382.402
3005,1388.283
3006,1400.002
3007,1405.840
3008,1419.775
3009,1419.050
3010,1405.115
3011,1405.840
3012,1408.056
3013,1457.872
3014,1436.650
3015,1458.596
3016,1421.266
3017,1462.985
3018,1441.764
3019,1427.104
3020,1459.321
3021,1429.320
3022,1475.471
3023,1464.477
3024,1446.153
3025,1437.374
3026,1474.704
3027,1452.034
3028,1455.698
3029,1449.093
3030,1426.380
3031,1462.261
3032,1413.937
3033,1446.153
3034,1410.996
3035,1418.326
3036,1438.099
3037,1405.840
3038,1381.678
3039,1420.499
3040,1382.402
3041,1388.283
3042,1387.558
3043,1365.569
3044,1376.564
3045,1356.024
3046,1378.737
3047,1377.288
3048,1391.948
3049,1382.402
3050,1375.839
3051,1383.169
3052,1386.067
3053,1378.013
3054,1408.780
3055,1382.402
3056,1417.601
3057,1400.002
3058,1398.553
3059,1435.883
3060,1416.834
3061,1432.218
3062,1426.380
3063,1408.056
3064,1386.834
3065,1385.342
3066,1391.223
3067,1377.288
3068,1379.504
3069,1385.342
3070,1391.948
3071,1402.218
3072,1361.905
3073,1350.910
3074,1362.629
3075,1363.354
3076,1342.856
3077,1321.592
3078,1331.137
3079,1343.581
3080,1302.543
3081,1333.353
3082,1289.375
3083,1306.208
3084,1322.359
3085,1275.441
3086,1295.256
3087,1301.819
3088,1295.981
3089,1276.932
3090,1304.759
3091,1275.441
3092,1265.213
3093,1290.824
3094,1253.494
3095,1241.008
3096,1269.602
3097,1265.938
3098,1246.165
3099,1224.900
3100,1211.008
3101,1204.403
3102,1209.517
3103,1208.068
3104,1212.457
3105,1225.625
3106,1224.176
3107,1217.571
3108,1195.624
3109,1194.857
3110,1214.673
3111,1234.446
3112,1205.852
3113,1232.954
3114,1218.295
3115,1213.181
3116,1224.176
3117,1228.565
3118,1235.170
3119,1241.775
3120,1232.230
3121,1294.489
3122,1276.932
3123,1326.748
3124,1344.305
3125,1364.845
3126,1400.726
3127,1443.212
3128,1529.676
3129,1534.066
3130,1592.660
3131,1649.806
3132,1711.340
3133,1750.929
3134,1830.788
3135,1854.226
3136,1896.712
3137,1941.371
3138,1985.349
3139,2037.381
3140,2047.608
3141,2082.041
3142,2091.586
3143,2109.910
3144,2085.706
3145,2092.311
3146,2081.316
3147,2052.765
3148,2019.781
3149,1969.966
3150,1912.096
3151,1839.566
3152,1803.643
3153,1735.545
3154,1631.482
3155,1590.487
3156,1490.131
3157,1435.158
3158,1334.078
3159,1283.537
3160,1230.781
3161,1164.814
3162,1101.106
3163,1046.901
3164,993.420
3165,917.951
3166,879.854
3167,877.638
3168,825.649
3169,819.768
3170,821.259
3171,808.049
3172,812.438
3173,837.367
3174,833.703
3175,873.249
3176,926.005
3177,945.053
3178,962.653
3179,1048.350
3180,1071.063
3181,1114.274
3182,1208.068
3183,1226.392
3184,1282.770
3185,1326.024
3186,1375.839
3187,1463.752
3188,1471.806
3189,1542.844
3190,1564.833
3191,1579.492
3192,1608.044
3193,1630.033
3194,1680.573
3195,1672.519
3196,1717.221
3197,1725.275
3198,1696.724
3199,1683.513
3200,1684.962
3201,1682.065
3202,1658.627
3203,1654.962
3204,1663.740
3205,1606.595
3206,1626.368
3207,1560.444
3208,1575.828
3209,1515.742
3210,1500.358
3211,1488.639
3212,1491.579
3213,1465.201
3214,1433.709
3215,1414.661
3216,1422.715
3217,1421.991
3218,1402.942
3219,1367.785
3220,1365.569
3221,1380.229
3222,1385.342
3223,1361.905
3224,1350.910
3225,1358.240
3226,1382.402
3227,1356.791
3228,1372.899
3229,1335.527
3230,1322.359
3231,1323.083
3232,1337.742
3233,1342.856
3234,1330.413
3235,1334.078
3236,1333.353
3237,1335.527
3238,1334.078
3239,1301.819
3240,1326.024
3241,1310.640
3242,1336.251
3243,1346.521
3244,1323.083
3245,1328.197
3246,1347.245
3247,1366.294
3248,1375.839
3249,1383.169
3250,1352.402
3251,1367.785
3252,1374.348
3253,1384.618
3254,1378.737
3255,1387.558
3256,1416.110
3257,1402.218
3258,1389.007
3259,1424.888
3260,1403.667
3261,1397.061
3262,1436.650
3263,1447.602
3264,1425.655
3265,1414.661
3266,1447.602
3267,1411.721
3268,1446.877
3269,1410.272
3270,1446.153
3271,1402.942
3272,1429.320
3273,1406.607
3274,1384.618
3275,1386.834
3276,1400.002
3277,1394.121
3278,1388.283
3279,1364.121
3280,1364.121
3281,1358.240
3282,1331.862
3283,1353.851
3284,1366.294
3285,1364.121
3286,1338.467
3287,1331.862
3288,1339.191
3289,1359.689
3290,1359.689
3291,1356.791
3292,1351.635
3293,1306.975
3294,1282.046
3295,1309.148
3296,1276.932
3297,1252.727
3298,1248.338
3299,1204.403
3300,1200.738
3301,1193.408
3302,1166.306
3303,1147.982
3304,1125.993
3305,1101.831
3306,1033.691
3307,1035.182
3308,1012.469
3309,999.983
3310,972.880
3311,977.270
3312,950.167
3313,935.550
3314,963.377
3315,976.545
3316,994.145
3317,1016.134
3318,1043.236
3319,1063.009
3320,1120.155
3321,1161.917
3322,1169.971
3323,1259.332
3324,1314.305
3325,1366.294
3326,1392.672
3327,1465.926
3328,1482.801
3329,1545.785
3330,1601.481
3331,1638.087
3332,1699.622
3333,1717.946
3334,1750.162
3335,1793.415
3336,1815.404
3337,1827.847
3338,1845.404
3339,1868.885
3340,1893.772
3341,1874.723
3342,1867.393
3343,1868.118
3344,1881.328
3345,1846.896
3346,1847.620
3347,1846.172
3348,1787.535
3349,1796.356
3350,1734.054
3351,1717.221
3352,1676.908
3353,1674.011
3354,1643.243
3355,1595.601
3356,1549.449
3357,1490.855
3358,1488.639
3359,1435.883
3360,1388.283
3361,1364.121
3362,1347.245
3363,1304.035
3364,1260.824
3365,1256.392
3366,1203.678
3367,1215.397
3368,1191.960
3369,1145.041
3370,1146.533
3371,1143.593
3372,1123.095
3373,1079.117
3374,1073.279
3375,1098.166
3376,1103.280
3377,1101.106
3378,1068.123
3379,1098.890
3380,1116.490
3381,1125.993
3382,1120.879
3383,1143.593
3384,1147.257
3385,1182.414
3386,1189.744
3387,1220.511
3388,1227.116
3389,1234.446
3390,1246.165
3391,1267.387
3392,1325.257
3393,1333.353
3394,1338.467
3395,1369.234
3396,1367.785
3397,1375.072
3398,1375.839
3399,1388.283
3400,1397.786
3401,1403.667
3402,1403.667
3403,1382.402
3404,1392.672
3405,1410.272
3406,1424.888
3407,1423.439
3408,1418.326
3409,1403.667
3410,1386.067
3411,1380.953
3412,1380.229
3413,1389.007
3414,1393.397
3415,1372.899
3416,1367.785
3417,1364.121
3418,1359.689
3419,1363.354
3420,1373.624
3421,1364.845
3422,1356.791
3423,1350.186
3424,1345.797
3425,1352.402
3426,1364.845
3427,1339.191
3428,1320.867
3429,1346.521
3430,1338.467
3431,1314.305
3432,1324.532
3433,1328.921
3434,1340.640
3435,1345.797
3436,1350.186
3437,1356.024
3438,1349.461
3439,1319.418
3440,1329.688
3441,1339.191
3442,1336.251
3443,1366.294
3444,1375.839
3445,1380.229
3446,1387.558
3447,1354.575
3448,1356.791
3449,1367.018
3450,1405.840
3451,1406.607
3452,1429.320
3453,1427.829
3454,1440.272
3455,1431.494
3456,1406.607
3457,1416.110
3458,1449.818
3459,1437.374
3460,1431.494
3461,1462.985
3462,1432.218
3463,1476.920
3464,1455.698
3465,1454.207
3466,1450.542
3467,1441.764
3468,1487.190
3469,1461.536
3470,1449.818
3471,1474.704
3472,1499.634
3473,1490.131
3474,1500.358
3475,1482.801
3476,1471.806
3477,1455.698
3478,1463.752
3479,1469.591
3480,1474.704
3481,1431.494
3482,1419.050
3483,1419.775
3484,1408.056
3485,1407.331
3486,1433.709
3487,1383.169
3488,1385.342
3489,1400.002
3490,1407.331
3491,1371.408
3492,1382.402
3493,1358.964
3494,1362.629
3495,1381.678
3496,1330.413
3497,1351.635
3498,1320.143
3499,1337.742
3500,1343.581
3501,1324.532
3502,1301.094
3503,1291.591
3504,1269.602
3505,1271.051
3506,1252.003
3507,1189.744
3508,1180.965
3509,1197.798
3510,1158.252
3511,1147.257
3512,1129.658
3513,1136.263
3514,1126.760
3515,1101.831
3516,1092.328
3517,1120.155
3518,1091.561
3519,1133.323
3520,1115.766
3521,1161.192
3522,1194.133
3523,1236.619
3524,1271.776
3525,1305.484
3526,1333.353
3527,1388.283
3528,1465.926
3529,1515.017
3530,1612.433
3531,1678.400
3532,1736.270
3533,1827.847
3534,1922.323
3535,1986.074
3536,2046.884
3537,2107.694
3538,2150.181
3539,2196.332
3540,2247.639
3541,2287.910
3542,2304.742
3543,2312.839
3544,2296.688
3545,2306.958
3546,2290.125
3547,2256.418
3548,2197.823
3549,2140.678
3550,2095.976
3551,2036.614
3552,1966.301
3553,1879.112
3554,1804.410
3555,1713.556
3556,1612.433
3557,1517.233
3558,1421.266
3559,1353.851
3560,1243.224
3561,1163.365
3562,1119.430
3563,1008.804
3564,963.377
3565,927.454
3566,847.637
3567,835.919
3568,791.941
3569,791.941
3570,773.617
3571,781.671
3572,786.060
3573,783.162
3574,813.930
3575,846.146
3576,854.200
3577,914.286
3578,983.150
3579,1019.031
3580,1043.236
3581,1109.885
3582,1174.360
3583,1205.852
3584,1299.645
3585,1350.910
3586,1486.466
3587,1434.434
3588,1405.840
3589,1396.337
3590,1369.234
3591,1361.180
3592,1321.592
3593,1288.651
3594,1294.489
3595,1282.046
3596,1271.776
3597,1243.224
3598,1261.548
3599,1232.954
3600,1269.602
3601,1263.722
3602,1280.597
3603,1447.602
3604,1422.715
3605,1466.650
3606,1449.818
3607,1443.212
3608,1454.207
3609,1455.698
3610,1479.861
3611,1448.369
3612,1466.650
3613,1469.591
3614,1444.704
3615,1470.315
3616,1452.034
3617,1432.218
3618,1434.434
3619,1408.056
3620,1424.164
3621,1435.883
3622,1399.277
3623,1408.056
3624,1386.834
3625,1359.689
3626,1396.337
3627,1345.797
3628,1379.504
3629,1353.126
3630,1345.797
3631,1319.418
3632,1314.305
3633,1311.364
3634,1345.797
3635,1342.856
3636,1333.353
3637,1320.867
3638,1331.137
3639,1342.856
3640,1332.586
3641,1340.640
3642,1347.245
3643,1348.737
3644,1338.467
3645,1328.197
3646,1316.478
3647,1319.418
3648,1306.208
3649,1276.208
3650,1243.949
3651,1260.057
3652,1232.954
3653,1227.841
3654,1225.625
3655,1199.247
3656,1195.624
3657,1158.252
3658,1138.479
3659,1109.160
3660,1090.112
3661,1095.950
3662,1063.734
3663,1060.069
3664,1022.696
3665,1006.588
3666,975.821
3667,1008.080
3668,977.270
3669,972.880
3670,970.707
3671,975.821
3672,970.707
3673,995.594
3674,1008.804
3675,1035.907
3676,1073.279
3677,1088.663
3678,1128.209
3679,1193.408
3680,1240.284
3681,1294.489
3682,1361.905
3683,1421.991
3684,1501.082
3685,1538.455
3686,1597.816
3687,1675.459
3688,1736.270
3689,1788.259
3690,1827.847
3691,1882.777
3692,1921.599
3693,1989.014
3694,2034.441
3695,2037.381
3696,2075.478
3697,2101.814
3698,2108.419
3699,2120.138
3700,2136.246
3701,2153.121
3702,2136.246
3703,2115.024
3704,2098.149
3705,2087.197
3706,2042.495
3707,2007.338
3708,1958.247
3709,1938.474
3710,1871.058
3711,1813.188
3712,1738.443
3713,1679.124
3714,1616.098
3715,1564.109
3716,1526.736
3717,1429.320
3718,1364.845
3719,1308.424
3720,1232.954
3721,1194.857
3722,1120.155
3723,1084.231
3724,1047.626
3725,996.318
3726,935.550
3727,954.599
3728,926.729
3729,918.675
3730,923.789
3731,931.886
3732,926.005
3733,942.837
3734,943.604
3735,1010.253
3736,1024.912
3737,1035.182
3738,1089.387
3739,1131.149
3740,1173.635
3741,1186.803
3742,1241.008
3743,1301.819
3744,1340.640
3745,1358.964
3746,1365.569
3747,1434.434
3748,1441.764
3749,1476.196
3750,1495.244
3751,1526.012
3752,1528.185
3753,1544.336
3754,1550.898
3755,1538.455
3756,1538.455
3757,1523.071
3758,1523.071
3759,1498.185
3760,1506.963
3761,1473.255
3762,1494.520
3763,1441.764
3764,1468.866
3765,1430.769
3766,1407.331
3767,1395.612
3768,1410.272
3769,1375.072
3770,1355.299
3771,1365.569
3772,1353.851
3773,1347.970
3774,1342.856
3775,1327.472
3776,1298.154
3777,1325.257
3778,1285.711
3779,1299.645
3780,1310.640
3781,1276.208
3782,1299.645
3783,1284.262
3784,1303.310
3785,1323.083
3786,1327.472
3787,1319.418
3788,1290.824
3789,1295.981
3790,1290.824
3791,1321.592
3792,1318.694
3793,1312.089
3794,1342.132
3795,1342.856
3796,1306.208
3797,1312.813
3798,1339.916
3799,1345.797
3800,1303.310
3801,1306.975
3802,1316.478
3803,1311.364
3804,1338.467
3805,1355.299
3806,1364.121
3807,1372.899
3808,1384.618
3809,1390.456
3810,1407.331
3811,1430.769
3812,1448.369
3813,1460.088
3814,1490.855
3815,1514.293
3816,1567.049
3817,1608.044
3818,1642.476
3819,1675.459
3820,1673.243
3821,1738.443
3822,1736.270
3823,1778.756
3824,1824.907
3825,1852.734
3826,1873.274
3827,1883.502
3828,1882.053
3829,1888.658
3830,1906.215
3831,1915.760
3832,1922.323
3833,1902.550
3834,1909.155
3835,1878.388
3836,1839.566
3837,1843.231
3838,1834.453
3839,1774.367
3840,1769.977
3841,1747.989
3842,1704.011
3843,1682.789
3844,1618.314
3845,1598.541
3846,1542.120
3847,1546.509
3848,1469.591
3849,1473.980
3850,1421.991
3851,1393.397
3852,1354.575
3853,1305.484
3854,1241.775
3855,1238.835
3856,1180.965
3857,1166.306
3858,1124.544
3859,1054.231
3860,1045.410
3861,1024.188
3862,1000.750
3863,975.096
3864,953.832
3865,918.675
3866,900.351
3867,895.237
3868,889.357
3869,902.567
3870,876.189
3871,909.897
3872,934.059
3873,901.843
3874,936.275
3875,983.150
3876,994.145
3877,994.869
3878,1060.793
3879,1105.496
3880,1156.760
3881,1168.479
3882,1233.679
3883,1311.364
3884,1340.640
3885,1400.002
3886,1466.650
3887,1566.282
3888,1597.816
3889,1665.189
3890,1767.762
3891,1792.691
3892,1863.729
3893,1931.144
3894,1965.576
3895,2020.506
3896,2065.933
3897,2062.992
3898,2097.424
3899,2118.689
3900,2093.760
3901,2099.640
3902,2068.873
3903,2071.046
3904,2019.781
3905,1997.068
3906,1958.247
3907,1907.706
3908,1845.404
3909,1799.253
3910,1752.378
3911,1669.579
3912,1602.206
3913,1548.725
3914,1490.131
3915,1405.840
3916,1350.186
3917,1262.997
3918,1208.068
3919,1180.965
3920,1082.058
3921,1079.842
3922,1016.134
3923,997.085
3924,964.102
3925,958.988
3926,947.994
3927,935.550
3928,899.627
3929,940.664
3930,967.767
3931,964.826
3932,988.264
3933,1003.648
3934,1071.788
3935,1085.723
3936,1152.371
3937,1183.863
3938,1189.019
3939,1271.051
3940,1282.046
3941,1303.310
3942,1336.975
3943,1362.629
3944,1428.553
3945,1430.045
3946,1427.104
3947,1454.931
3948,1462.985
3949,1471.806
3950,1464.477
3951,1476.920
3952,1468.142
3953,1471.082
3954,1458.596
3955,1443.937
3956,1470.315
3957,1462.261
3958,1410.996
3959,1417.601
3960,1413.937
3961,1375.072
3962,1388.283
3963,1366.294
3964,1324.532
3965,1309.148
3966,1306.975
3967,1289.375
3968,1265.938
3969,1268.111
3970,1216.122
3971,1198.522
3972,1195.624
3973,1206.576
3974,1216.122
3975,1180.241
3976,1166.306
3977,1204.403
3978,1195.624
3979,1209.517
3980,1203.678
3981,1194.857
3982,1224.900
3983,1230.781
3984,1238.835
3985,1233.679
3986,1250.554
3987,1260.824
3988,1265.213
3989,1271.776
3990,1268.111
3991,1278.381
3992,1277.657
3993,1264.489
3994,1255.668
3995,1264.489
3996,1252.727
3997,1298.154
3998,1268.878
3999,1312.089
4000,1293.765
4001,1309.873
4002,1336.975
4003,1340.640
4004,1318.694
4005,1329.688
4006,1356.791
4007,1383.169
4008,1367.018
4009,1358.964
4010,1386.834
4011,1379.504
4012,1383.894
4013,1373.624
4014,1408.780
4015,1413.937
4016,1400.726
4017,1389.732
4018,1403.667
4019,1402.942
4020,1394.121
4021,1386.067
4022,1378.737
4023,1366.294
4024,1342.132
4025,1365.569
4026,1316.478
4027,1316.478
4028,1340.640
4029,1304.035
4030,1326.748
4031,1280.597
4032,1281.321
4033,1306.208
4034,1305.484
4035,1265.938
4036,1260.824
4037,1289.375
4038,1300.370
4039,1299.645
4040,1298.154
4041,1288.651
4042,1281.321
4043,1290.824
4044,1310.640
4045,1272.543
4046,1286.435
4047,1302.543
4048,1293.040
4049,1244.673
4050,1265.938
4051,1245.440
4052,1235.170
4053,1248.338
4054,1210.241
4055,1192.684
4056,1213.181
4057,1170.695
4058,1169.246
4059,1134.047
4060,1118.663
4061,1122.328
4062,1111.376
4063,1101.106
4064,1077.668
4065,1038.847
4066,1033.691
4067,1037.356
4068,995.594
4069,1019.799
4070,980.934
4071,1008.080
4072,988.264
4073,1028.577
4074,1062.285
4075,1087.171
4076,1102.555
4077,1158.976
4078,1208.792
4079,1220.511
4080,1291.591
4081,1350.186
4082,1413.169
4083,1465.926
4084,1544.336
4085,1612.433
4086,1660.076
4087,1754.594
4088,1780.972
4089,1835.902
4090,1891.556
4091,1941.371
4092,1975.079
4093,2011.003
4094,2016.841
4095,2033.716
4096,2068.149
4097,2043.219
4098,2067.381
4099,2032.949
4100,2032.949
4101,2003.673
4102,1961.911
4103,1955.306
4104,1906.215
4105,1857.890
4106,1806.583
4107,1786.810
4108,1730.389
4109,1675.459
4110,1594.152
4111,1542.120
4112,1460.088
4113,1399.277
4114,1357.515
4115,1325.257
4116,1244.673
4117,1206.576
4118,1156.760
4119,1120.879
4120,1085.723
4121,1030.750
4122,993.420
4123,1012.469
4124,959.713
4125,954.599
4126,972.880
4127,945.053
4128,936.275
4129,978.761
4130,953.832
4131,961.161
4132,995.594
4133,1013.918
4134,983.875
4135,1027.086
4136,1014.642
4137,1054.955
4138,1037.356
4139,1063.734
4140,1099.615
4141,1109.160
4142,1123.820
4143,1136.987
4144,1150.198
4145,1159.701
4146,1177.300
4147,1176.576
4148,1165.581
4149,1219.787
4150,1236.619
4151,1219.062
4152,1238.835
4153,1281.321
4154,1314.305
4155,1345.072
4156,1366.294
4157,1367.785
4158,1407.331
4159,1400.002
4160,1405.115
4161,1464.477
4162,1443.937
4163,1497.418
4164,1472.531
4165,1517.233
4166,1495.969
4167,1532.617
4168,1556.055
4169,1526.736
4170,1555.330
4171,1528.185
4172,1544.336
4173,1560.444
4174,1564.833
4175,1558.995
4176,1560.444
4177,1554.563
4178,1548.725
4179,1508.412
4180,1520.131
4181,1514.293
4182,1479.861
4183,1500.358
4184,1450.542
4185,1474.704
4186,1435.883
4187,1457.147
4188,1420.499
4189,1389.732
4190,1404.391
4191,1406.607
4192,1385.342
4193,1361.180
4194,1366.294
4195,1383.894
4196,1359.689
4197,1345.072
4198,1332.586
4199,1355.299
4200,1360.456
4201,1377.288
4202,1377.288
4203,1387.558
4204,1386.834
4205,1375.072
4206,1355.299
4207,1374.348
4208,1358.964
4209,1400.726
4210,1393.397
4211,1361.180
4212,1353.851
4213,1385.342
4214,1394.121
4215,1395.612
4216,1388.283
4217,1363.354
4218,1356.024
4219,1361.180
4220,1356.791
4221,1354.575
4222,1380.953
4223,1399.277
4224,1405.115
4225,1400.002
4226,1397.061
4227,1394.888
4228,1410.272
4229,1391.223
4230,1382.402
4231,1422.715
4232,1416.834
4233,1402.218
4234,1397.786
4235,1437.374
4236,1420.499
4237,1436.650
4238,1438.099
4239,1417.601
4240,1408.780
4241,1402.218
4242,1403.667
4243,1404.391
4244,1403.667
4245,1424.164
4246,1414.661
4247,1416.110
4248,1406.607
4249,1371.408
4250,1356.791
4251,1354.575
4252,1336.251
4253,1330.413
4254,1333.353
4255,1321.592
4256,1284.262
4257,1301.094
4258,1257.159
4259,1278.381
4260,1253.494
4261,1284.986
4262,1252.727
4263,1297.430
4264,1258.608
4265,1306.975
4266,1265.938
4267,1313.538
4268,1271.776
4269,1301.094
4270,1325.257
4271,1315.029
4272,1296.705
4273,1303.310
4274,1319.418
4275,1344.305
4276,1364.845
4277,1391.948
4278,1397.786
4279,1413.937
4280,1476.196
4281,1476.920
4282,1544.336
4283,1544.336
4284,1579.492
4285,1624.195
4286,1670.346
4287,1736.270
4288,1743.599
4289,1792.691
4290,1823.458
4291,1868.885
4292,1937.749
4293,1975.804
4294,2014.668
4295,2015.392
4296,2076.203
4297,2073.262
4298,2095.976
4299,2108.419
4300,2110.635
4301,2124.527
4302,2126.743
4303,2109.910
4304,2076.203
4305,2064.484
4306,2032.225
4307,1995.619
4308,1941.371
4309,1863.729
4310,1813.188
4311,1748.713
4312,1671.070
4313,1593.427
4314,1559.719
4315,1483.525
4316,1406.607
4317,1290.824
4318,1252.727
4319,1178.749
4320,1079.842
4321,1041.020
4322,982.426
4323,923.064
4324,854.200
4325,838.816
4326,824.924
4327,794.881
4328,769.952
4329,752.395
4330,801.486
4331,781.671
4332,827.097
4333,819.043
4334,849.086
4335,879.129
4336,962.653
4337,1002.199
4338,1052.015
4339,1104.047
4340,1153.095
4341,1182.414
4342,1226.392
4343,1259.332
4344,1311.364
4345,1392.672
4346,1394.121
4347,1463.752
4348,1452.034
4349,1487.190
4350,1515.017
4351,1518.682
4352,1529.676
4353,1534.790
4354,1538.455
4355,1559.719
4356,1579.492
4357,1567.773
4358,1564.833
4359,1517.233
4360,1503.298
4361,1515.742
4362,1506.239
4363,1465.201
4364,1476.196
4365,1441.039
4366,1467.417
4367,1417.601
4368,1443.937
4369,1398.553
4370,1400.002
4371,1426.380
4372,1411.721
4373,1387.558
4374,1379.504
4375,1383.894
4376,1356.791
4377,1377.288
4378,1384.618
4379,1381.678
4380,1364.845
4381,1373.624
4382,1364.121
4383,1361.905
4384,1364.121
4385,1355.299
4386,1319.418
4387,1312.089
4388,1341.407
4389,1351.635
4390,1346.521
4391,1347.245
4392,1350.910
4393,1354.575
4394,1359.689
4395,1348.737
4396,1338.467
4397,1353.851
4398,1404.391
4399,1402.218
4400,1390.456
4401,1418.326
4402,1423.439
4403,1416.834
4404,1451.266
4405,1462.261
4406,1468.142
4407,1481.309
4408,1467.417
4409,1504.023
4410,1489.364
4411,1512.077
4412,1537.006
4413,1534.790
4414,1506.239
4415,1515.742
4416,1534.066
4417,1543.569
4418,1546.509
4419,1538.455
4420,1541.395
4421,1528.952
4422,1533.341
4423,1535.515
4424,1539.946
4425,1534.790
4426,1542.120
4427,1498.185
4428,1482.034
4429,1507.688
4430,1453.482
4431,1466.650
4432,1432.218
4433,1455.698
4434,1435.158
4435,1395.612
4436,1384.618
4437,1378.737
4438,1372.175
4439,1366.294
4440,1362.629
4441,1356.791
4442,1358.240
4443,1350.910
4444,1351.635
4445,1391.948
4446,1380.229
4447,1358.240
4448,1354.575
4449,1361.180
4450,1397.786
4451,1395.612
4452,1391.948
4453,1426.380
4454,1403.667
4455,1437.374
4456,1412.445
4457,1445.428
4458,1415.385
4459,1452.034
4460,1438.823
4461,1455.698
4462,1421.991
4463,1443.212
4464,1443.937
4465,1421.266
4466,1437.374
4467,1451.266
4468,1455.698
4469,1450.542
4470,1435.158
4471,1425.655
4472,1394.888
4473,1426.380
4474,1418.326
4475,1383.894
4476,1365.569
4477,1371.408
4478,1353.851
4479,1326.748
4480,1320.867
4481,1257.159
4482,1271.051
4483,1242.500
4484,1200.738
4485,1219.062
4486,1165.581
4487,1180.965
4488,1156.760
4489,1138.479
4490,1120.155
4491,1116.490
4492,1107.711
4493,1109.160
4494,1098.166
4495,1075.453
4496,1119.430
4497,1122.328
4498,1120.879
4499,1129.658
4500,1180.965
4501,1205.852
4502,1212.457
4503,1273.992
4504,1289.375
4505,1309.873
4506,1375.072
4507,1389.007
4508,1450.542
4509,1490.855
4510,1553.114
4511,1587.546
4512,1635.146
4513,1704.778
4514,1711.340
4515,1779.480
4516,1816.853
4517,1837.350
4518,1865.944
4519,1894.496
4520,1918.701
4521,1915.036
4522,1934.084
4523,1936.982
4524,1927.479
4525,1913.544
4526,1905.490
4527,1878.388
4528,1819.026
4529,1775.091
4530,1731.156
4531,1693.783
4532,1662.292
4533,1611.709
4534,1571.438
4535,1525.287
4536,1468.866
4537,1400.002
4538,1333.353
4539,1313.538
4540,1266.662
4541,1180.241
4542,1178.025
4543,1117.939
4544,1057.896
4545,1049.074
4546,1016.134
4547,999.259
4548,957.497
4549,964.826
4550,912.070
4551,932.610
4552,934.783
4553,936.999
4554,962.653
4555,962.653
4556,980.934
4557,1009.529
4558,1028.577
4559,1053.464
4560,1068.847
4561,1077.668
4562,1132.598
4563,1178.749
4564,1181.690
4565,1225.625
4566,1260.824
4567,1285.711
4568,1343.581
4569,1356.024
4570,1410.272
4571,1405.115
4572,1419.775
4573,1446.153
4574,1460.088
4575,1479.861
4576,1510.628
4577,1534.790
4578,1542.844
4579,1528.952
4580,1526.012
4581,1515.017
4582,1537.006
4583,1532.617
4584,1504.747
4585,1492.304
4586,1523.071
4587,1509.904
4588,1492.304
4589,1464.477
4590,1473.980
4591,1466.650
4592,1410.272
4593,1433.709
4594,1429.320
4595,1394.121
4596,1387.558
4597,1371.408
4598,1371.408
4599,1407.331
4600,1370.683
4601,1394.121
4602,1391.948
4603,1370.683
4604,1393.397
4605,1375.072
4606,1398.553
4607,1374.348
4608,1359.689
4609,1393.397
4610,1367.785
4611,1398.553
4612,1382.402
4613,1358.964
4614,1400.002
4615,1367.018
4616,1405.115
4617,1384.618
4618,1367.785
4619,1392.672
4620,1408.056
4621,1386.067
4622,1421.991
4623,1383.894
4624,1423.439
4625,1413.937
4626,1400.002
4627,1435.158
4628,1413.937
4629,1450.542
4630,1444.704
4631,1420.499
4632,1427.829
4633,1469.591
4634,1474.704
4635,1457.872
4636,1460.812
4637,1438.099
4638,1441.764
4639,1441.764
4640,1445.428
4641,1442.488
4642,1446.877
4643,1455.698
4644,1468.866
4645,1475.471
4646,1443.937
4647,1438.823
4648,1449.818
4649,1446.877
4650,1442.488
4651,1457.872
4652,1419.775
4653,1421.266
4654,1402.942
4655,1427.829
4656,1384.618
4657,1410.996
4658,1386.834
4659,1350.186
4660,1378.013
4661,1366.294
4662,1358.964
4663,1323.083
4664,1295.981
4665,1293.040
4666,1311.364
4667,1306.208
4668,1293.765
4669,1287.160
4670,1240.284
4671,1262.997
4672,1232.230
4673,1237.344
4674,1226.392
4675,1211.733
4676,1240.284
4677,1191.193
4678,1219.062
4679,1219.062
4680,1195.624
4681,1175.809
4682,1157.527
4683,1145.808
4684,1116.490
4685,1109.885
4686,1098.166
4687,1088.663
4688,1090.836
4689,1065.950
4690,1032.242
4691,1043.236
4692,1055.680
4693,1041.020
4694,1010.977
4695,1034.415
4696,1051.290
4697,1049.074
4698,1065.183
4699,1073.279
4700,1107.711
4701,1133.323
4702,1167.030
4703,1193.408
4704,1235.895
4705,1279.872
4706,1330.413
4707,1435.883
4708,1469.591
4709,1550.898
4710,1671.795
4711,1727.491
4712,1814.637
4713,1920.874
4714,2005.847
4715,2106.246
4716,2189.727
4717,2274.742
4718,2345.779
4719,2419.800
4720,2489.389
4721,2522.330
4722,2569.248
4723,2583.865
4724,2601.464
4725,2580.967
4726,2583.865
4727,2546.535
4728,2523.097
4729,2456.406
4730,2427.087
4731,2357.498
4732,2283.520
4733,2188.278
4734,2103.305
4735,2016.841
4736,1919.425
4737,1804.410
4738,1742.875
4739,1625.643
4740,1546.509
4741,1421.266
4742,1375.072
4743,1290.824
4744,1167.030
4745,1110.609
4746,1058.620
4747,954.599
4748,941.389
4749,898.178
4750,866.686
4751,846.870
4752,807.325
4753,786.060
4754,825.649
4755,812.438
4756,827.097
4757,840.308
4758,911.346
4759,925.280
4760,983.875
4761,988.264
4762,1050.566
4763,1109.885
4764,1135.538
4765,1161.917
4766,1201.463
4767,1262.273
4768,1306.208
4769,1339.916
4770,1359.689
4771,1380.953
4772,1448.369
4773,1429.320
4774,1468.142
4775,1504.023
4776,1523.796
4777,1527.461
4778,1517.233
4779,1546.509
4780,1553.114
4781,1519.406
4782,1519.406
4783,1518.682
4784,1523.071
4785,1538.455
4786,1540.671
4787,1489.364
4788,1519.406
4789,1474.704
4790,1493.753
4791,1441.039
4792,1447.602
4793,1430.045
4794,1399.277
4795,1378.013
4796,1362.629
4797,1364.845
4798,1345.797
4799,1327.472
4800,1303.310
4801,1301.094
4802,1282.046
4803,1268.111
4804,1266.662
4805,1252.003
4806,1246.889
4807,1230.781
4808,1244.673
4809,1216.846
4810,1207.343
4811,1216.122
4812,1210.241
4813,1183.863
4814,1218.295
4815,1191.960
4816,1206.576
4817,1216.846
4818,1238.111
4819,1215.397
4820,1252.727
4821,1236.619
4822,1241.008
4823,1273.267
4824,1288.651
4825,1311.364
4826,1309.873
4827,1326.024
4828,1332.586
4829,1343.581
4830,1364.121
4831,1382.402
4832,1387.558
4833,1390.456
4834,1426.380
4835,1415.385
4836,1409.505
4837,1435.883
4838,1419.050
4839,1456.423
4840,1459.321
4841,1431.494
4842,1413.937
4843,1452.758
4844,1413.937
4845,1401.451
4846,1425.655
4847,1421.266
4848,1413.937
4849,1394.121
4850,1370.683
4851,1376.564
4852,1380.229
4853,1381.678
4854,1378.013
4855,1385.342
4856,1378.737
4857,1376.564
4858,1390.456
4859,1387.558
4860,1389.007
4861,1383.169
4862,1380.953
4863,1392.672
4864,1385.342
4865,1391.223
4866,1369.959
4867,1361.180
4868,1342.856
4869,1336.975
4870,1339.916
4871,1330.413
4872,1303.310
4873,1295.981
4874,1272.543
4875,1257.159
4876,1279.105
4877,1241.775
4878,1204.403
4879,1214.673
4880,1207.343
4881,1177.300
4882,1139.928
4883,1103.280
4884,1086.447
4885,1070.339
4886,1075.453
4887,1038.847
4888,1031.517
4889,975.821
4890,967.767
4891,980.210
4892,979.486
4893,988.264
4894,1020.523
4895,1043.961
4896,1068.123
4897,1136.987
4898,1168.479
4899,1257.159
4900,1293.040
4901,1371.408
4902,1471.806
4903,1548.725
4904,1624.919
4905,1739.935
4906,1807.307
4907,1876.939
4908,1968.517
4909,2048.333
4910,2102.581
4911,2145.067
4912,2212.440
4913,2255.693
4914,2260.083
4915,2277.640
4916,2305.509
4917,2279.855
4918,2271.801
4919,2269.585
4920,2221.985
4921,2199.997
4922,2153.121
4923,2079.100
4924,2024.171
4925,1961.187
4926,1928.928
4927,1852.734
4928,1784.594
4929,1678.400
4930,1616.098
4931,1530.401
4932,1483.525
4933,1397.786
4934,1335.527
4935,1299.645
4936,1238.835
4937,1172.144
4938,1104.047
4939,1063.734
4940,1071.063
4941,1036.631
4942,1014.642
4943,972.156
4944,995.594
4945,986.091
4946,957.497
4947,989.756
4948,1002.199
4949,1013.193
4950,1027.086
4951,1027.086
4952,1038.080
4953,1064.458
4954,1071.063
4955,1095.950
4956,1106.220
4957,1118.663
4958,1114.998
4959,1145.808
4960,1144.317
4961,1195.624
4962,1185.354
4963,1201.463
4964,1239.560
4965,1208.792
4966,1249.105
4967,1274.716
4968,1246.165
4969,1277.657
4970,1306.975
4971,1312.813
4972,1317.970
4973,1317.970
4974,1339.916
4975,1351.635
4976,1356.791
4977,1367.018
4978,1327.472
4979,1370.683
4980,1357.515
4981,1356.791
4982,1358.964
4983,1373.624
4984,1394.888
4985,1401.451
4986,1443.212
4987,1506.239
4988,1526.736
4989,1583.882
4990,1675.459
4991,1715.005
4992,1805.134
4993,1881.328
4994,1946.528
4995,2017.566
4996,2093.035
4997,2167.780
4998,2230.040
4999,2279.131
5000,2330.396
5001,2340.666
5002,2372.882
5003,2394.147
5004,2421.974
5005,2415.368
5006,2408.039
5007,2375.098
5008,2339.941
5009,2315.012
5010,2270.310
5011,2235.878
5012,2194.158
5013,2149.456
5014,2069.597
5015,2035.890
5016,1973.630
5017,1915.760
5018,1846.172
5019,1779.480
5020,1735.545
5021,1701.838
5022,1643.243
5023,1581.666
5024,1539.946
5025,1473.255
5026,1431.494
5027,1387.558
5028,1367.018
5029,1330.413
5030,1308.424
5031,1243.949
5032,1233.679
5033,1230.057
5034,1162.641
5035,1180.965
5036,1132.598
5037,1102.555
5038,1113.550
5039,1109.885
5040,1083.507
5041,1054.955
5042,1030.026
5043,1019.031
5044,1035.182
5045,1006.588
5046,1008.080
5047,1033.691
5048,1024.188
5049,1000.750
5050,983.875
5051,1002.923
5052,1019.799
5053,991.204
5054,994.869
5055,970.707
5056,991.929
5057,990.480
5058,951.659
5059,965.551
5060,956.772
5061,941.389
5062,936.275
5063,927.454
5064,964.102
5065,961.161
5066,948.718
5067,951.659
5068,938.448
5069,969.216
5070,937.724
5071,976.545
5072,951.659
5073,954.599
5074,968.491
5075,945.778
5076,965.551
5077,993.420
5078,1005.864
5079,973.647
5080,1008.080
5081,1055.680
5082,1041.745
5083,1095.950
5084,1140.652
5085,1158.252
5086,1222.727
5087,1258.608
5088,1290.824
5089,1345.797
5090,1373.624
5091,1421.991
5092,1479.136
5093,1562.617
5094,1616.098
5095,1637.362
5096,1713.556
5097,1738.443
5098,1785.361
5099,1809.523
5100,1812.464
5101,1857.890
5102,1854.226
5103,1868.118
5104,1861.555
5105,1823.458
5106,1805.134
5107,1791.199
5108,1774.367
5109,1709.892
5110,1695.957
5111,1616.098
5112,1575.828
5113,1512.077
5114,1483.525
5115,1400.726
5116,1338.467
5117,1299.645
5118,1267.387
5119,1212.457
5120,1186.079
5121,1134.047
5122,1109.160
5123,1095.950
5124,1089.387
5125,1070.339
5126,1063.009
5127,1070.339
5128,1044.685
5129,1057.896
5130,1066.674
5131,1115.766
5132,1142.868
5133,1133.323
5134,1182.414
5135,1225.625
5136,1209.517
5137,1258.608
5138,1295.256
5139,1307.700
5140,1336.975
5141,1356.791
5142,1375.072
5143,1380.229
5144,1391.948
5145,1378.737
5146,1362.629
5147,1364.121
5148,1404.391
5149,1402.218
5150,1394.888
5151,1382.402
5152,1377.288
5153,1372.175
5154,1358.240
5155,1360.456
5156,1353.126
5157,1323.083
5158,1302.543
5159,1291.591
5160,1308.424
5161,1310.640
5162,1298.921
5163,1255.668
5164,1254.219
5165,1276.932
5166,1271.051
5167,1241.775
5168,1269.602
5169,1265.938
5170,1255.668
5171,1278.381
5172,1257.884
5173,1284.986
5174,1319.418
5175,1334.078
5176,1357.515
5177,1377.288
5178,1396.337
5179,1380.229
5180,1441.039
5181,1424.888
5182,1472.531
5183,1493.028
5184,1493.028
5185,1506.239
5186,1515.742
5187,1535.515
5188,1546.509
5189,1550.174
5190,1556.779
5191,1561.893
5192,1591.936
5193,1597.816
5194,1567.049
5195,1564.833
5196,1584.606
5197,1575.103
5198,1570.714
5199,1575.103
5200,1528.185
5201,1539.946
5202,1528.185
5203,1512.077
5204,1491.579
5205,1496.693
5206,1499.634
5207,1452.034
5208,1438.823
5209,1450.542
5210,1427.829
5211,1386.834
5212,1417.601
5213,1383.894
5214,1345.797
5215,1349.461
5216,1354.575
5217,1323.083
5218,1295.981
5219,1293.765
5220,1290.824
5221,1262.273
5222,1276.932
5223,1262.273
5224,1229.290
5225,1225.625
5226,1220.511
5227,1211.008
5228,1214.673
5229,1217.571
5230,1221.235
5231,1246.889
5232,1269.602
5233,1275.441
5234,1245.440
5235,1248.338
5236,1280.597
5237,1276.932
5238,1262.273
5239,1250.554
5240,1244.673
5241,1247.614
5242,1211.008
5243,1227.116
5244,1199.247
5245,1196.349
5246,1158.252
5247,1138.479
5248,1154.587
5249,1124.544
5250,1095.226
5251,1081.333
5252,1078.393
5253,1057.128
5254,1021.247
5255,1030.750
5256,1039.571
5257,1100.382
5258,1125.268
5259,1151.647
5260,1170.695
5261,1238.111
5262,1302.543
5263,1342.856
5264,1423.439
5265,1494.520
5266,1561.168
5267,1628.584
5268,1734.778
5269,1774.367
5270,1853.459
5271,1916.485
5272,1972.906
5273,2008.063
5274,2039.554
5275,2071.813
5276,2073.262
5277,2096.700
5278,2060.052
5279,2065.208
5280,2032.949
5281,1982.409
5282,1947.977
5283,1904.766
5284,1831.512
5285,1784.594
5286,1705.502
5287,1657.860
5288,1560.444
5289,1514.293
5290,1431.494
5291,1359.689
5292,1241.008
5293,1209.517
5294,1142.868
5295,1060.069
5296,1016.134
5297,969.216
5298,928.221
5299,902.567
5300,864.470
5301,817.595
5302,839.541
5303,838.816
5304,807.325
5305,804.384
5306,849.086
5307,871.075
5308,908.405
5309,934.783
5310,953.832
5311,964.102
5312,1031.517
5313,1090.112
5314,1130.382
5315,1181.690
5316,1202.187
5317,1230.781
5318,1308.424
5319,1354.575
5320,1400.002
5321,1402.942
5322,1440.272
5323,1493.028
5324,1501.082
5325,1506.239
5326,1534.790
5327,1558.228
5328,1574.379
5329,1599.265
5330,1578.001
5331,1599.265
5332,1588.271
5333,1588.995
5334,1578.768
5335,1553.114
5336,1526.736
5337,1542.120
5338,1526.012
5339,1498.909
5340,1513.568
5341,1476.920
5342,1441.764
5343,1470.315
5344,1443.937
5345,1427.104
5346,1411.721
5347,1384.618
5348,1366.294
5349,1339.191
5350,1348.737
5351,1321.592
5352,1291.591
5353,1314.305
5354,1282.770
5355,1281.321
5356,1257.159
5357,1285.711
5358,1282.770
5359,1254.943
5360,1280.597
5361,1256.392
5362,1276.932
5363,1257.159
5364,1292.316
5365,1252.727
5366,1295.981
5367,1266.662
5368,1304.035
5369,1325.257
5370,1291.591
5371,1342.856
5372,1317.202
5373,1362.629
5374,1367.018
5375,1366.294
5376,1351.635
5377,1369.234
5378,1378.737
5379,1388.283
5380,1390.456
5381,1394.888
5382,1399.277
5383,1418.326
5384,1452.034
5385,1461.536
5386,1433.709
5387,1464.477
5388,1457.872
5389,1437.374
5390,1438.099
5391,1434.434
5392,1422.715
5393,1406.607
5394,1405.840
5395,1430.769
5396,1422.715
5397,1392.672
5398,1363.354
5399,1349.461
5400,1351.635
5401,1353.126
5402,1323.808
5403,1338.467
5404,1295.981
5405,1319.418
5406,1297.430
5407,1287.160
5408,1257.159
5409,1284.262
5410,1252.727
5411,1227.841
5412,1221.960
5413,1246.889
5414,1213.181
5415,1205.852
5416,1186.803
5417,1180.965
5418,1156.036
5419,1120.879
5420,1104.771
5421,1119.430
5422,1082.058
5423,1077.668
5424,1084.231
5425,1038.080
5426,1031.517
5427,1052.739
5428,1041.020
5429,1010.977
5430,1018.307
5431,1065.183
5432,1104.771
5433,1131.149
5434,1175.084
5435,1208.792
5436,1260.057
5437,1347.245
5438,1439.548
5439,1490.855
5440,1600.714
5441,1697.448
5442,1825.632
5443,1913.544
5444,2029.284
5445,2118.689
5446,2238.818
5447,2303.293
5448,2390.482
5449,2472.514
5450,2542.145
5451,2562.643
5452,2619.788
5453,2638.837
5454,2616.848
5455,2630.016
5456,2580.967
5457,2559.702
5458,2486.449
5459,2437.357
5460,2359.714
5461,2275.466
5462,2171.445
5463,2049.824
5464,1946.528
5465,1820.518
5466,1695.232
5467,1610.260
5468,1501.849
5469,1356.791
5470,1252.003
5471,1169.971
5472,1054.231
5473,973.647
5474,877.638
5475,843.206
5476,793.390
5477,723.076
5478,695.249
5479,679.141
5480,718.687
5481,698.914
5482,727.466
5483,777.282
5484,790.492
5485,849.086
5486,879.854
5487,945.053
5488,991.204
5489,1027.086
5490,1081.333
5491,1151.647
5492,1235.895
5493,1271.051
5494,1308.424
5495,1358.240
5496,1414.661
5497,1450.542
5498,1517.233
5499,1548.725
5500,1601.481
5501,1587.546
5502,1620.530
5503,1658.627
5504,1690.119
5505,1687.178
5506,1703.286
5507,1701.113
5508,1680.573
5509,1657.860
5510,1648.357
5511,1648.357
5512,1635.146
5513,1622.703
5514,1605.146
5515,1602.930
5516,1565.558
5517,1532.617
5518,1553.839
5519,1498.909
5520,1493.028
5521,1475.471
5522,1466.650
5523,1440.272
5524,1411.721
5525,1440.272
5526,1423.439
5527,1389.007
5528,1365.569
5529,1356.024
5530,1349.461
5531,1345.797
5532,1343.581
5533,1342.132
5534,1347.245
5535,1350.910
5536,1315.754
5537,1343.581
5538,1345.797
5539,1323.083
5540,1307.700
5541,1326.024
5542,1353.851
5543,1311.364
5544,1327.472
5545,1331.137
5546,1332.586
5547,1353.851
5548,1378.737
5549,1358.964
5550,1347.970
5551,1383.169
5552,1402.218
5553,1383.169
5554,1367.785
5555,1357.515
5556,1351.635
5557,1366.294
5558,1356.024
5559,1322.359
5560,1331.862
5561,1341.407
5562,1300.370
5563,1290.100
5564,1273.267
5565,1285.711
5566,1238.111
5567,1252.003
5568,1225.625
5569,1247.614
5570,1200.738
5571,1207.343
5572,1235.170
5573,1216.122
5574,1189.019
5575,1230.057
5576,1227.841
5577,1219.062
5578,1198.522
5579,1241.775
5580,1231.505
5581,1248.338
5582,1222.727
5583,1254.943
5584,1254.219
5585,1251.278
5586,1281.321
5587,1246.889
5588,1293.040
5589,1261.548
5590,1260.057
5591,1246.165
5592,1282.046
5593,1254.219
5594,1238.835
5595,1251.278
5596,1256.392
5597,1239.560
5598,1229.290
5599,1208.792
5600,1200.738
5601,1208.792
5602,1207.343
5603,1195.624
5604,1142.868
5605,1159.701
5606,1155.311
5607,1114.274
5608,1142.868
5609,1120.879
5610,1094.501
5611,1076.944
5612,1094.501
5613,1117.214
5614,1082.058
5615,1112.825
5616,1156.760
5617,1178.025
5618,1189.019
5619,1241.775
5620,1268.878
5621,1282.046
5622,1333.353
5623,1394.121
5624,1438.823
5625,1481.309
5626,1550.174
5627,1579.492
5628,1630.033
5629,1673.243
5630,1709.167
5631,1751.653
5632,1797.805
5633,1823.458
5634,1810.248
5635,1832.237
5636,1858.615
5637,1835.902
5638,1854.226
5639,1856.399
5640,1813.188
5641,1824.907
5642,1805.134
5643,1764.821
5644,1716.497
5645,1708.443
5646,1674.735
5647,1603.655
5648,1563.384
5649,1506.963
5650,1462.985
5651,1399.277
5652,1372.175
5653,1324.532
5654,1282.770
5655,1250.554
5656,1220.511
5657,1173.635
5658,1131.149
5659,1128.209
5660,1112.825
5661,1089.387
5662,1117.214
5663,1078.393
5664,1113.550
5665,1139.203
5666,1162.641
5667,1178.749
5668,1202.187
5669,1220.511
5670,1235.170
5671,1254.219
5672,1328.921
5673,1347.970
5674,1374.348
5675,1386.067
5676,1427.104
5677,1460.088
5678,1472.531
5679,1531.125
5680,1547.233
5681,1526.736
5682,1575.103
5683,1546.509
5684,1580.217
5685,1553.839
5686,1594.876
5687,1564.833
5688,1545.060
5689,1537.731
5690,1546.509
5691,1535.515
5692,1516.466
5693,1526.736
5694,1487.915
5695,1457.872
5696,1454.207
5697,1452.034
5698,1438.823
5699,1375.072
5700,1354.575
5701,1354.575
5702,1293.040
5703,1244.673
5704,1233.679
5705,1189.744
5706,1167.755
5707,1110.609
5708,1123.095
5709,1090.836
5710,1056.404
5711,1024.912
5712,994.145
5713,1001.474
5714,1013.193
5715,1015.367
5716,1019.799
5717,1016.134
5718,1007.313
5719,1002.199
5720,1031.517
5721,1074.728
5722,1076.177
5723,1071.063
5724,1132.598
5725,1110.609
5726,1155.311
5727,1197.798
5728,1222.727
5729,1243.949
5730,1265.938
5731,1286.435
5732,1290.100
5733,1282.046
5734,1336.975
5735,1323.808
5736,1372.899
5737,1391.223
5738,1406.607
5739,1406.607
5740,1394.888
5741,1414.661
5742,1421.266
5743,1441.039
5744,1446.877
5745,1490.855
5746,1497.418
5747,1500.358
5748,1500.358
5749,1502.574
5750,1484.250
5751,1465.201
5752,1479.861
5753,1481.309
5754,1493.028
5755,1456.423
5756,1479.861
5757,1484.250
5758,1475.471
5759,1468.866
5760,1459.321
5761,1452.758
5762,1435.883
5763,1405.115
5764,1389.732
5765,1410.272
5766,1408.056
5767,1367.785
5768,1391.223
5769,1369.234
5770,1357.515
5771,1345.072
5772,1346.521
5773,1318.694
5774,1339.916
5775,1322.359
5776,1290.824
5777,1297.430
5778,1267.387
5779,1247.614
5780,1221.235
5781,1235.895
5782,1227.841
5783,1200.014
5784,1169.971
5785,1185.354
5786,1157.527
5787,1134.814
5788,1094.501
5789,1104.047
5790,1074.728
5791,1069.614
5792,1069.614
5793,1068.123
5794,1114.998
5795,1128.209
5796,1181.690
5797,1228.565
5798,1270.327
5799,1353.851
5800,1416.834
5801,1486.466
5802,1581.666
5803,1676.184
5804,1781.696
5805,1889.382
5806,1973.630
5807,2099.640
5808,2167.013
5809,2263.023
5810,2356.050
5811,2397.087
5812,2452.741
5813,2504.773
5814,2539.929
5815,2551.648
5816,2544.319
5817,2520.156
5818,2476.179
5819,2452.741
5820,2394.871
5821,2317.952
5822,2235.878
5823,2181.673
5824,2061.543
5825,1969.241
5826,1903.317
5827,1788.259
5828,1658.627
5829,1569.222
5830,1459.321
5831,1383.169
5832,1282.770
5833,1227.841
5834,1152.371
5835,1073.279
5836,1018.307
5837,987.540
5838,957.497
5839,932.610
5840,890.124
5841,907.681
5842,933.334
5843,951.659
5844,973.647
5845,980.934
5846,1038.080
5847,1106.944
5848,1141.377
5849,1209.517
5850,1236.619
5851,1310.640
5852,1355.299
5853,1369.959
5854,1440.272
5855,1473.255
5856,1504.023
5857,1534.790
5858,1553.114
5859,1580.217
5860,1608.811
5861,1617.589
5862,1607.319
5863,1654.195
5864,1619.763
5865,1657.135
5866,1614.649
5867,1647.632
5868,1621.254
5869,1597.049
5870,1589.762
5871,1561.168
5872,1542.844
5873,1556.779
5874,1543.569
5875,1527.461
5876,1506.239
5877,1483.525
5878,1465.201
5879,1424.888
5880,1399.277
5881,1380.229
5882,1388.283
5883,1363.354
5884,1334.802
5885,1311.364
5886,1287.927
5887,1279.105
5888,1273.267
5889,1296.705
5890,1290.824
5891,1279.872
5892,1262.997
5893,1304.759
5894,1264.489
5895,1296.705
5896,1282.770
5897,1312.813
5898,1298.921
5899,1295.981
5900,1329.688
5901,1301.094
5902,1317.202
5903,1346.521
5904,1311.364
5905,1344.305
5906,1360.456
5907,1331.137
5908,1359.689
5909,1353.126
5910,1353.126
5911,1346.521
5912,1350.186
5913,1378.737
5914,1354.575
5915,1391.223
5916,1393.397
5917,1394.888
5918,1397.786
5919,1384.618
5920,1381.678
5921,1385.342
5922,1385.342
5923,1357.515
5924,1337.742
5925,1354.575
5926,1363.354
5927,1331.137
5928,1339.916
5929,1337.742
5930,1292.316
5931,1305.484
5932,1275.441
5933,1284.986
5934,1256.392
5935,1266.662
5936,1254.943
5937,1260.824
5938,1238.835
5939,1217.571
5940,1248.338
5941,1232.954
5942,1227.116
5943,1213.906
5944,1224.900
5945,1213.906
5946,1249.830
5947,1228.565
5948,1221.960
5949,1257.159
5950,1219.787
5951,1207.343
5952,1238.111
5953,1224.900
5954,1206.576
5955,1190.468
5956,1179.474
5957,1160.425
5958,1146.533
5959,1097.441
5960,1074.004
5961,1098.166
5962,1059.344
5963,1080.566
5964,1029.301
5965,1063.009
5966,1021.972
5967,1010.253
5968,1047.626
5969,1032.242
5970,997.085
5971,1036.631
5972,1004.415
5973,1060.793
5974,1055.680
5975,1088.663
5976,1083.507
5977,1134.047
5978,1183.138
5979,1224.176
5980,1262.997
5981,1347.245
5982,1372.899
5983,1429.320
5984,1523.071
5985,1554.563
5986,1641.752
5987,1709.892
5988,1780.205
5989,1840.291
5990,1875.447
5991,1916.485
5992,1953.133
5993,1987.565
5994,2035.165
5995,2046.884
5996,2051.998
5997,2046.884
5998,2042.495
5999,2034.441
6000,2010.236
6001,1945.036
6002,1911.371
6003,1871.058
6004,1832.237
6005,1761.156
6006,1702.562
6007,1670.346
6008,1573.612
6009,1513.568
6010,1455.698
6011,1427.104
6012,1373.624
6013,1307.700
6014,1293.040
6015,1252.727
6016,1223.451
6017,1187.528
6018,1185.354
6019,1183.863
6020,1179.474
6021,1179.474
6022,1194.857
6023,1208.068
6024,1211.733
6025,1211.008
6026,1271.776
6027,1278.381
6028,1328.197
6029,1356.791
6030,1381.678
6031,1386.834
6032,1430.769
6033,1463.752
6034,1467.417
6035,1482.034
6036,1506.239
6037,1527.461
6038,1519.406
6039,1556.779
6040,1524.563
6041,1546.509
6042,1569.222
6043,1529.676
6044,1554.563
6045,1558.995
6046,1529.676
6047,1520.131
6048,1496.693
6049,1479.136
6050,1509.136
6051,1496.693
6052,1480.585
6053,1458.596
6054,1435.158
6055,1446.877
6056,1422.715
6057,1417.601
6058,1405.115
6059,1391.223
6060,1365.569
6061,1387.558
6062,1347.245
6063,1356.024
6064,1380.953
6065,1347.245
6066,1361.905
6067,1333.353
6068,1326.748
6069,1336.251
6070,1320.867
6071,1340.640
6072,1353.126
6073,1341.407
6074,1304.759
6075,1323.083
6076,1335.527
6077,1332.586
6078,1317.202
6079,1317.202
6080,1334.078
6081,1328.921
6082,1323.083
6083,1324.532
6084,1312.813
6085,1323.808
6086,1327.472
6087,1320.867
6088,1309.148
6089,1308.424
6090,1307.700
6091,1312.089
6092,1321.592
6093,1291.591
6094,1317.970
6095,1334.802
6096,1332.586
6097,1334.802
6098,1331.862
6099,1328.921
6100,1315.754
6101,1287.160
6102,1276.932
6103,1290.824
6104,1297.430
6105,1306.975
6106,1258.608
6107,1275.441
6108,1293.040
6109,1249.105
6110,1267.387
6111,1240.284
6112,1282.046
6113,1238.835
6114,1272.543
6115,1246.165
6116,1242.500
6117,1277.657
6118,1262.273
6119,1254.219
6120,1286.435
6121,1276.932
6122,1266.662
6123,1314.305
6124,1278.381
6125,1287.927
6126,1324.532
6127,1295.256
6128,1318.694
6129,1353.851
6130,1356.791
6131,1360.456
6132,1357.515
6133,1336.251
6134,1361.180
6135,1366.294
6136,1365.569
6137,1367.018
6138,1368.510
6139,1395.612
6140,1391.948
6141,1382.402
6142,1389.732
6143,1420.499
6144,1406.607
6145,1388.283
6146,1363.354
6147,1345.797
6148,1331.862
6149,1261.548
6150,1232.230
6151,1228.565
6152,1168.479
6153,1142.868
6154,1111.376
6155,1084.998
6156,1044.685
6157,1006.588
6158,1021.247
6159,989.756
6160,964.826
6161,947.269
6162,932.610
6163,922.340
6164,919.400
6165,916.502
6166,927.454
6167,939.215
6168,955.323
6169,966.318
6170,1052.739
6171,1114.274
6172,1173.635
6173,1216.122
6174,1306.208
6175,1388.283
6176,1501.849
6177,1610.260
6178,1687.178
6179,1802.918
6180,1890.107
6181,1961.187
6182,2062.268
6183,2109.910
6184,2164.116
6185,2232.255
6186,2264.472
6187,2269.585
6188,2276.191
6189,2283.520
6190,2256.418
6191,2213.207
6192,2175.110
6193,2126.018
6194,2087.197
6195,2012.452
6196,1942.863
6197,1861.555
6198,1802.194
6199,1710.616
6200,1630.757
6201,1526.012
6202,1438.099
6203,1377.288
6204,1320.867
6205,1226.392
6206,1161.917
6207,1114.274
6208,1027.086
6209,1005.139
6210,961.886
6211,919.400
6212,901.118
6213,895.962
6214,902.567
6215,934.783
6216,951.659
6217,976.545
6218,982.426
6219,1000.750
6220,1071.063
6221,1109.160
6222,1147.257
6223,1188.295
6224,1217.571
6225,1241.008
6226,1273.267
6227,1340.640
6228,1394.888
6229,1424.164
6230,1430.769
6231,1476.920
6232,1486.466
6233,1548.001
6234,1528.185
6235,1556.055
6236,1565.558
6237,1567.773
6238,1584.606
6239,1605.146
6240,1616.865
6241,1606.595
6242,1585.331
6243,1564.109
6244,1598.541
6245,1587.546
6246,1578.001
6247,1536.282
6248,1507.688
6249,1493.753
6250,1473.980
6251,1496.693
6252,1438.823
6253,1456.423
6254,1424.164
6255,1401.451
6256,1387.558
6257,1386.067
6258,1395.612
6259,1354.575
6260,1365.569
6261,1367.018
6262,1375.072
6263,1395.612
6264,1400.002
6265,1412.445
6266,1411.721
6267,1392.672
6268,1411.721
6269,1433.709
6270,1468.142
6271,1433.709
6272,1479.136
6273,1457.147
6274,1464.477
6275,1483.525
6276,1482.034
6277,1493.028
6278,1505.514
6279,1473.980
6280,1460.088
6281,1495.244
6282,1491.579
6283,1484.250
6284,1440.272
6285,1421.991
6286,1410.272
6287,1394.121
6288,1377.288
6289,1362.629
6290,1348.737
6291,1324.532
6292,1302.543
6293,1318.694
6294,1308.424
6295,1263.722
6296,1284.986
6297,1238.835
6298,1259.332
6299,1252.727
6300,1252.003
6301,1226.392
6302,1265.938
6303,1238.835
6304,1224.176
6305,1255.668
6306,1229.290
6307,1262.997
6308,1239.560
6309,1251.278
6310,1224.176
6311,1235.895
6312,1230.057
6313,1241.775
6314,1259.332
6315,1272.543
6316,1281.321
6317,1282.046
6318,1269.602
6319,1250.554
6320,1260.824
6321,1286.435
6322,1265.938
6323,1250.554
6324,1247.614
6325,1279.105
6326,1271.776
6327,1241.775
6328,1254.943
6329,1275.441
6330,1226.392
6331,1242.500
6332,1249.105
6333,1219.062
6334,1195.624
6335,1197.798
6336,1214.673
6337,1176.576
6338,1201.463
6339,1158.252
6340,1177.300
6341,1169.246
6342,1155.311
6343,1134.047
6344,1178.749
6345,1159.701
6346,1154.587
6347,1190.468
6348,1171.420
6349,1238.835
6350,1229.290
6351,1299.645
6352,1339.916
6353,1380.953
6354,1410.996
6355,1497.418
6356,1583.882
6357,1642.476
6358,1695.232
6359,1774.367
6360,1861.555
6361,1909.880
6362,2009.511
6363,2061.543
6364,2101.814
6365,2175.834
6366,2190.494
6367,2216.829
6368,2247.639
6369,2235.153
6370,2249.088
6371,2235.153
6372,2212.440
6373,2164.116
6374,2105.478
6375,2043.219
6376,2016.841
6377,1939.923
6378,1873.999
6379,1764.097
6380,1725.275
6381,1642.476
6382,1521.622
6383,1476.920
6384,1378.013
6385,1282.046
6386,1252.003
6387,1173.635
6388,1128.933
6389,1043.236
6390,1017.583
6391,951.659
6392,928.945
6393,906.232
6394,918.675
6395,920.891
6396,917.226
6397,923.789
6398,938.448
6399,956.048
6400,970.707
6401,1013.193
6402,1024.188
6403,1097.441
6404,1118.663
6405,1130.382
6406,1200.738
6407,1250.554
6408,1276.932
6409,1307.700
6410,1356.791
6411,1351.635
6412,1398.553
6413,1437.374
6414,1424.164
6415,1477.645
6416,1444.704
6417,1466.650
6418,1469.591
6419,1471.082
6420,1482.801
6421,1490.855
6422,1473.255
6423,1449.818
6424,1441.039
6425,1450.542
6426,1445.428
6427,1438.099
6428,1437.374
6429,1386.067
6430,1412.445
6431,1383.169
6432,1367.018
6433,1355.299
6434,1376.564
6435,1356.024
6436,1351.635
6437,1336.975
6438,1334.802
6439,1330.413
6440,1323.808
6441,1319.418
6442,1295.256
6443,1284.262
6444,1304.759
6445,1302.543
6446,1307.700
6447,1269.602
6448,1282.046
6449,1301.819
6450,1303.310
6451,1307.700
6452,1265.213
6453,1296.705
6454,1279.872
6455,1264.489
6456,1299.645
6457,1268.111
6458,1304.759
6459,1280.597
6460,1287.927
6461,1304.035
6462,1293.040
6463,1263.722
6464,1306.975
6465,1298.921
6466,1273.992
6467,1279.872
6468,1320.867
6469,1304.035
6470,1285.711
6471,1312.089
6472,1328.921
6473,1307.700
6474,1337.742
6475,1337.742
6476,1304.759
6477,1315.754
6478,1329.688
6479,1301.819
6480,1323.083
6481,1278.381
6482,1294.489
6483,1274.716
6484,1243.224
6485,1242.500
6486,1219.787
6487,1208.792
6488,1185.354
6489,1194.857
6490,1139.928
6491,1164.814
6492,1152.371
6493,1113.550
6494,1145.041
6495,1113.550
6496,1103.280
6497,1149.431
6498,1144.317
6499,1128.933
6500,1153.095
6501,1153.095
6502,1169.971
6503,1161.192
6504,1214.673
6505,1205.127
6506,1241.775
6507,1213.906
6508,1260.057
6509,1227.116
6510,1262.273
6511,1233.679
6512,1267.387
6513,1279.105
6514,1252.727
6515,1272.543
6516,1247.614
6517,1276.208
6518,1237.344
6519,1265.938
6520,1254.219
6521,1229.290
6522,1267.387
6523,1219.787
6524,1245.440
6525,1250.554
6526,1251.278
6527,1233.679
6528,1265.938
6529,1287.927
6530,1302.543
6531,1340.640
6532,1375.839
6533,1383.169
6534,1463.752
6535,1512.077
6536,1587.546
6537,1643.243
6538,1739.210
6539,1818.302
6540,1901.826
6541,1993.403
6542,2080.592
6543,2141.402
6544,2225.650
6545,2296.688
6546,2358.223
6547,2394.147
6548,2452.017
6549,2483.508
6550,2476.179
6551,2492.287
6552,2458.622
6553,2446.903
6554,2397.087
6555,2326.731
6556,2261.531
6557,2186.829
6558,2119.413
6559,2003.673
6560,1895.220
6561,1797.080
6562,1674.011
6563,1558.995
6564,1482.801
6565,1379.504
6566,1270.327
6567,1173.635
6568,1084.231
6569,978.761
6570,917.226
6571,861.530
6572,798.546
6573,761.898
6574,715.747
6575,713.573
6576,695.249
6577,739.185
6578,735.520
6579,758.957
6580,830.038
6581,873.249
6582,919.400
6583,989.031
6584,1046.901
6585,1094.501
6586,1130.382
6587,1208.792
6588,1275.441
6589,1315.029
6590,1346.521
6591,1414.661
6592,1427.829
6593,1472.531
6594,1498.909
6595,1539.946
6596,1536.282
6597,1520.898
6598,1530.401
6599,1509.904
6600,1495.969
6601,1477.645
6602,1476.920
6603,1426.380
6604,1440.272
6605,1408.780
6606,1353.126
6607,1342.856
6608,1306.975
6609,1264.489
6610,1217.571
6611,1189.019
6612,1175.809
6613,1147.257
6614,1120.155
6615,1059.344
6616,1071.788
6617,1068.847
6618,1024.188
6619,1016.858
6620,1049.799
6621,1061.518
6622,1076.944
6623,1091.561
6624,1109.160
6625,1128.209
6626,1150.922
6627,1175.809
6628,1202.911
6629,1222.727
6630,1244.673
6631,1285.711
6632,1298.921
6633,1351.635
6634,1381.678
6635,1397.061
6636,1422.715
6637,1440.272
6638,1444.704
6639,1467.417
6640,1503.298
6641,1491.579
6642,1529.676
6643,1539.946
6644,1544.336
6645,1555.330
6646,1568.498
6647,1585.331
6648,1607.319
6649,1632.249
6650,1637.362
6651,1621.979
6652,1643.243
6653,1632.973
6654,1674.011
6655,1643.968
6656,1663.016
6657,1663.016
6658,1648.357
6659,1660.800
6660,1638.811
6661,1664.465
6662,1667.405
6663,1643.968
6664,1624.195
6665,1621.254
6666,1598.541
6667,1588.271
6668,1570.714
6669,1575.828
6670,1584.606
6671,1569.947
6672,1525.287
6673,1496.693
6674,1493.753
6675,1478.369
6676,1483.525
6677,1470.315
6678,1438.823
6679,1459.321
6680,1411.721
6681,1402.942
6682,1422.715
6683,1413.169
6684,1416.110
6685,1403.667
6686,1378.737
6687,1329.688
6688,1314.305
6689,1311.364
6690,1318.694
6691,1278.381
6692,1284.986
6693,1244.673
6694,1223.451
6695,1191.193
6696,1211.008
6697,1184.630
6698,1166.306
6699,1152.371
6700,1128.209
6701,1082.058
6702,1092.328
6703,1092.328
6704,1042.512
6705,1032.966
6706,1054.955
6707,1043.961
6708,1032.242
6709,1074.728
6710,1076.177
6711,1096.717
6712,1127.484
6713,1175.809
6714,1262.997
6715,1289.375
6716,1353.126
6717,1449.093
6718,1505.514
6719,1583.157
6720,1690.843
6721,1742.108
6722,1838.075
6723,1895.220
6724,1977.295
6725,2024.171
6726,2065.208
6727,2109.143
6728,2155.294
6729,2179.499
6730,2189.727
6731,2189.727
6732,2178.775
6733,2154.570
6734,2126.743
6735,2072.538
6736,2050.549
6737,2002.949
6738,1958.247
6739,1880.604
6740,1834.453
6741,1759.707
6742,1672.519
6743,1611.709
6744,1550.898
6745,1468.866
6746,1406.607
6747,1298.154
6748,1271.051
6749,1196.349
6750,1125.993
6751,1092.328
6752,1031.517
6753,1023.463
6754,994.869
6755,975.096
6756,989.756
6757,969.216
6758,1005.864
6759,991.204
6760,1042.512
6761,1066.674
6762,1089.387
6763,1090.836
6764,1125.993
6765,1202.187
6766,1238.111
6767,1266.662
6768,1301.819
6769,1326.748
6770,1370.683
6771,1392.672
6772,1455.698
6773,1453.482
6774,1457.872
6775,1518.682
6776,1490.855
6777,1526.012
6778,1533.341
6779,1515.017
6780,1539.946
6781,1527.461
6782,1507.688
6783,1531.850
6784,1495.969
6785,1472.531
6786,1494.520
6787,1471.806
6788,1431.494
6789,1415.385
6790,1386.067
6791,1371.408
6792,1341.407
6793,1324.532
6794,1310.640
6795,1307.700
6796,1312.813
6797,1306.975
6798,1276.208
6799,1252.727
6800,1274.716
6801,1254.943
6802,1268.878
6803,1250.554
6804,1247.614
6805,1258.608
6806,1260.057
6807,1269.602
6808,1304.035
6809,1301.819
6810,1317.970
6811,1306.975
6812,1317.970
6813,1336.251
6814,1389.732
6815,1409.505
6816,1420.499
6817,1406.607
6818,1427.104
6819,1473.980
6820,1446.877
6821,1462.261
6822,1475.471
6823,1509.136
6824,1483.525
6825,1515.742
6826,1473.255
6827,1490.131
6828,1511.352
6829,1477.645
6830,1477.645
6831,1455.698
6832,1458.596
6833,1454.931
6834,1443.937
6835,1459.321
6836,1427.104
6837,1410.272
6838,1432.218
6839,1396.337
6840,1416.834
6841,1385.342
6842,1355.299
6843,1353.851
6844,1370.683
6845,1342.132
6846,1327.472
6847,1330.413
6848,1313.538
6849,1284.262
6850,1308.424
6851,1256.392
6852,1261.548
6853,1260.057
6854,1229.290
6855,1242.500
6856,1213.181
6857,1213.181
6858,1170.695
6859,1195.624
6860,1194.133
6861,1178.749
6862,1156.036
6863,1134.814
6864,1172.144
6865,1154.587
6866,1158.976
6867,1173.635
6868,1155.311
6869,1139.928
6870,1169.971
6871,1157.527
6872,1159.701
6873,1159.701
6874,1181.690
6875,1202.187
6876,1207.343
6877,1208.068
6878,1216.846
6879,1230.781
6880,1235.170
6881,1224.900
6882,1229.290
6883,1276.932
6884,1280.597
6885,1278.381
6886,1296.705
6887,1339.191
6888,1322.359
6889,1352.402
6890,1399.277
6891,1432.985
6892,1465.201
6893,1532.617
6894,1595.601
6895,1651.297
6896,1699.622
6897,1771.426
6898,1859.339
6899,1921.599
6900,1978.744
6901,2041.046
6902,2136.246
6903,2185.337
6904,2227.824
6905,2303.293
6906,2323.066
6907,2373.607
6908,2377.271
6909,2383.877
6910,2388.266
6911,2395.595
6912,2375.822
6913,2339.174
6914,2277.640
6915,2237.369
6916,2162.624
6917,2122.354
6918,2043.944
6919,1964.852
6920,1854.226
6921,1754.594
6922,1661.525
6923,1567.049
6924,1450.542
6925,1370.683
6926,1281.321
6927,1205.852
6928,1138.479
6929,1047.626
6930,1000.750
6931,948.718
6932,887.908
6933,901.118
6934,886.459
6935,864.470
6936,873.249
6937,912.070
6938,954.599
6939,985.366
6940,1019.031
6941,1035.182
6942,1108.436
6943,1166.306
6944,1205.852
6945,1247.614
6946,1295.256
6947,1331.862
6948,1391.223
6949,1438.099
6950,1473.980
6951,1477.645
6952,1524.563
6953,1513.568
6954,1563.384
6955,1564.109
6956,1556.779
6957,1592.660
6958,1578.768
6959,1613.925
6960,1572.163
6961,1592.660
6962,1564.109
6963,1586.098
6964,1548.001
6965,1580.217
6966,1567.049
6967,1525.287
6968,1539.179
6969,1529.676
6970,1520.131
6971,1519.406
6972,1504.747
6973,1457.147
6974,1449.818
6975,1459.321
6976,1430.769
6977,1421.266
6978,1424.164
6979,1431.494
6980,1408.780
6981,1416.834
6982,1422.715
6983,1375.839
6984,1395.612
6985,1417.601
6986,1377.288
6987,1375.839
6988,1394.888
6989,1421.266
6990,1421.266
6991,1424.888
6992,1430.769
6993,1421.991
6994,1413.937
6995,1420.499
6996,1400.726
6997,1415.385
6998,1444.704
6999,1449.093
7000,1452.034
7001,1441.764
7002,1441.764
7003,1441.764
7004,1441.764
7005,1460.088
7006,1443.212
7007,1461.536
7008,1489.364
7009,1473.255
7010,1462.261
7011,1473.255
7012,1466.650
7013,1460.812
7014,1418.326
7015,1391.223
7016,1372.899
7017,1372.899
7018,1341.407
7019,1346.521
7020,1284.986
7021,1302.543
7022,1277.657
7023,1232.954
7024,1215.397
7025,1177.300
7026,1193.408
7027,1177.300
7028,1156.036
7029,1145.808
7030,1092.328
7031,1087.896
7032,1104.047
7033,1100.382
7034,1106.220
7035,1062.285
7036,1101.106
7037,1068.123
7038,1089.387
7039,1074.004
7040,1050.566
7041,1089.387
7042,1075.453
7043,1079.117
7044,1075.453
7045,1060.069
7046,1064.458
7047,1059.344
7048,1090.112
7049,1095.950
7050,1073.279
7051,1065.950
7052,1043.236
7053,1065.950
7054,1038.080
7055,1032.966
7056,1068.847
7057,1067.398
7058,1065.183
7059,1054.955
7060,1101.831
7061,1112.825
7062,1118.663
7063,1186.803
7064,1238.111
7065,1269.602
7066,1328.921
7067,1358.964
7068,1422.715
7069,1512.077
7070,1567.773
7071,1649.806
7072,1715.730
7073,1758.259
7074,1846.896
7075,1898.161
7076,1931.144
7077,1980.960
7078,2033.716
7079,2076.927
7080,2071.813
7081,2101.814
7082,2112.808
7083,2085.706
7084,2063.717
7085,2051.998
7086,2004.398
7087,1946.528
7088,1885.717
7089,1857.123
7090,1789.750
7091,1724.551
7092,1658.627
7093,1542.844
7094,1498.909
7095,1405.115
7096,1347.970
7097,1287.927
7098,1221.235
7099,1138.479
7100,1090.836
7101,1043.961
7102,1005.139
7103,981.701
7104,962.653
7105,945.053
7106,915.010
7107,911.346
7108,918.675
7109,961.161
7110,949.443
7111,1015.367
7112,1018.307
7113,1077.668
7114,1119.430
7115,1148.706
7116,1164.090
7117,1209.517
7118,1241.008
7119,1297.430
7120,1327.472
7121,1368.510
7122,1394.121
7123,1470.315
7124,1455.698
7125,1499.634
7126,1549.449
7127,1525.287
7128,1562.617
7129,1593.427
7130,1607.319
7131,1574.379
7132,1608.811
7133,1606.595
7134,1584.606
7135,1608.811
7136,1561.893
7137,1586.098
7138,1541.395
7139,1551.665
7140,1551.665
7141,1491.579
7142,1511.352
7143,1487.915
7144,1473.255
7145,1456.423
7146,1435.883
7147,1416.834
7148,1399.277
7149,1345.797
7150,1329.688
7151,1321.592
7152,1345.797
7153,1323.083
7154,1303.310
7155,1279.105
7156,1303.310
7157,1293.765
7158,1312.089
7159,1306.208
7160,1320.143
7161,1306.208
7162,1334.802
7163,1322.359
7164,1357.515
7165,1358.964
7166,1375.072
7167,1384.618
7168,1393.397
7169,1400.002
7170,1407.331
7171,1413.169
7172,1418.326
7173,1418.326
7174,1419.775
7175,1420.499
7176,1419.775
7177,1417.601
7178,1410.996
7179,1409.505
7180,1403.667
7181,1366.294
7182,1372.175
7183,1395.612
7184,1386.834
7185,1354.575
7186,1362.629
7187,1320.867
7188,1320.143
7189,1336.975
7190,1326.748
7191,1272.543
7192,1263.722
7193,1296.705
7194,1267.387
7195,1248.338
7196,1270.327
7197,1265.938
7198,1247.614
7199,1226.392
7200,1205.127
7201,1224.176
7202,1205.852
7203,1216.846
7204,1193.408
7205,1231.505
7206,1230.781
7207,1223.451
7208,1202.911
7209,1215.397
7210,1219.787
7211,1207.343
7212,1246.889
7213,1221.235
7214,1210.241
7215,1236.619
7216,1224.900
7217,1216.846
7218,1207.343
7219,1189.744
7220,1226.392
7221,1208.068
7222,1184.630
7223,1223.451
7224,1208.068
7225,1199.247
7226,1178.025
7227,1189.744
7228,1221.235
7229,1218.295
7230,1216.122
7231,1216.122
7232,1211.733
7233,1199.247
7234,1200.014
7235,1202.911
7236,1230.781
7237,1234.446
7238,1265.938
7239,1277.657
7240,1331.862
7241,1402.942
7242,1442.488
7243,1479.136
7244,1543.569
7245,1623.428
7246,1695.232
7247,1798.529
7248,1890.831
7249,1956.755
7250,2030.776
7251,2116.473
7252,2172.894
7253,2235.878
7254,2309.174
7255,2345.779
7256,2377.271
7257,2395.595
7258,2406.590
7259,2378.038
7260,2364.828
7261,2344.331
7262,2304.742
7263,2245.423
7264,2170.678
7265,2112.808
7266,2029.284
7267,1942.139
7268,1893.047
7269,1775.816
7270,1679.849
7271,1613.925
7272,1516.466
7273,1441.764
7274,1326.748
7275,1279.105
7276,1210.241
7277,1114.998
7278,1079.842
7279,1019.031
7280,969.983
7281,945.053
7282,945.778
7283,972.156
7284,973.647
7285,972.880
7286,968.491
7287,1034.415
7288,1071.063
7289,1073.279
7290,1136.263
7291,1180.965
7292,1210.241
7293,1264.489
7294,1293.765
7295,1329.688
7296,1386.834
7297,1402.942
7298,1432.218
7299,1473.980
7300,1525.287
7301,1504.023
7302,1521.622
7303,1561.893
7304,1548.001
7305,1541.395
7306,1572.887
7307,1567.773
7308,1524.563
7309,1515.017
7310,1520.898
7311,1493.028
7312,1475.471
7313,1465.926
7314,1444.704
7315,1427.829
7316,1407.331
7317,1350.186
7318,1363.354
7319,1312.813
7320,1342.132
7321,1310.640
7322,1272.543
7323,1308.424
7324,1293.040
7325,1280.597
7326,1270.327
7327,1260.057
7328,1255.668
7329,1250.554
7330,1286.435
7331,1291.591
7332,1276.932
7333,1276.208
7334,1296.705
7335,1284.986
7336,1281.321
7337,1326.748
7338,1293.765
7339,1343.581
7340,1306.975
7341,1354.575
7342,1364.121
7343,1329.688
7344,1364.121
7345,1346.521
7346,1375.839
7347,1396.337
7348,1368.510
7349,1394.121
7350,1412.445
7351,1435.883
7352,1417.601
7353,1417.601
7354,1416.834
7355,1423.439
7356,1446.877
7357,1442.488
7358,1436.650
7359,1445.428
7360,1452.034
7361,1458.596
7362,1466.650
7363,1483.525
7364,1446.153
7365,1442.488
7366,1462.261
7367,1468.142
7368,1438.823
7369,1416.110
7370,1394.888
7371,1379.504
7372,1367.018
7373,1350.910
7374,1343.581
7375,1347.970
7376,1298.921
7377,1309.873
7378,1287.927
7379,1265.213
7380,1238.111
7381,1233.679
7382,1228.565
7383,1203.678
7384,1231.505
7385,1224.900
7386,1209.517
7387,1195.624
7388,1194.857
7389,1177.300
7390,1165.581
7391,1169.246
7392,1167.030
7393,1145.041
7394,1138.479
7395,1140.652
7396,1128.933
7397,1096.717
7398,1092.328
7399,1095.950
7400,1082.782
7401,1078.393
7402,1098.166
7403,1063.009
7404,1093.052
7405,1068.847
7406,1034.415
7407,1062.285
7408,1021.972
7409,1017.583
7410,1030.750
7411,1027.086
7412,1034.415
7413,1044.685
7414,1049.074
7415,1064.458
7416,1114.274
7417,1134.814
7418,1191.960
7419,1276.208
7420,1291.591
7421,1358.240
7422,1432.218
7423,1520.898
7424,1574.379
7425,1643.968
7426,1713.556
7427,1784.594
7428,1841.740
7429,1897.436
7430,1967.750
7431,1980.960
7432,2021.997
7433,2060.052
7434,2081.316
7435,2083.532
7436,2089.370
7437,2082.765
7438,2059.327
7439,2035.165
7440,2007.338
7441,1945.803
7442,1935.533
7443,1861.555
7444,1801.469
7445,1745.773
7446,1690.843
7447,1663.740
7448,1579.492
7449,1521.622
7450,1473.980
7451,1380.953
7452,1371.408
7453,1296.705
7454,1269.602
7455,1238.111
7456,1196.349
7457,1189.744
7458,1158.976
7459,1150.198
7460,1162.641
7461,1156.760
7462,1150.922
7463,1179.474
7464,1197.798
7465,1216.122
7466,1237.344
7467,1261.548
7468,1278.381
7469,1284.986
7470,1331.862
7471,1346.521
7472,1394.888
7473,1438.823
7474,1463.752
7475,1488.639
7476,1490.855
7477,1482.801
7478,1540.671
7479,1526.736
7480,1515.017
7481,1561.168
7482,1554.563
7483,1524.563
7484,1517.233
7485,1545.060
7486,1501.082
7487,1508.412
7488,1501.849
7489,1487.915
7490,1464.477
7491,1438.099
7492,1388.283
7493,1381.678
7494,1379.504
7495,1333.353
7496,1317.202
7497,1290.100
7498,1301.819
7499,1271.051
7500,1251.278
7501,1252.003
7502,1239.560
7503,1246.165
7504,1213.181
7505,1213.906
7506,1220.511
7507,1235.170
7508,1234.446
7509,1235.170
7510,1230.057
7511,1238.835
7512,1235.170
7513,1236.619
7514,1249.105
7515,1258.608
7516,1249.830
7517,1250.554
7518,1249.830
7519,1252.727
7520,1290.824
7521,1287.927
7522,1286.435
7523,1301.094
7524,1339.191
7525,1321.592
7526,1319.418
7527,1365.569
7528,1334.802
7529,1385.342
7530,1359.689
7531,1393.397
7532,1363.354
7533,1405.115
7534,1393.397
7535,1381.678
7536,1423.439
7537,1383.169
7538,1400.726
7539,1421.266
7540,1399.277
7541,1421.266
7542,1383.169
7543,1387.558
7544,1414.661
7545,1373.624
7546,1405.115
7547,1361.905
7548,1377.288
7549,1378.013
7550,1349.461
7551,1361.905
7552,1372.175
7553,1326.024
7554,1340.640
7555,1348.737
7556,1327.472
7557,1345.797
7558,1326.748
7559,1336.251
7560,1315.754
7561,1296.705
7562,1308.424
7563,1321.592
7564,1310.640
7565,1313.538
7566,1287.927
7567,1289.375
7568,1283.537
7569,1262.997
7570,1288.651
7571,1257.159
7572,1276.208
7573,1274.716
7574,1228.565
7575,1262.997
7576,1235.895
7577,1234.446
7578,1210.241
7579,1194.133
7580,1199.247
7581,1210.241
7582,1202.187
7583,1201.463
7584,1194.133
7585,1184.630
7586,1200.014
7587,1207.343
7588,1209.517
7589,1208.068
7590,1218.295
7591,1212.457
7592,1214.673
7593,1208.792
7594,1219.062
7595,1270.327
7596,1265.938
7597,1257.159
7598,1303.310
7599,1309.873
7600,1331.862
7601,1375.839
7602,1433.709
7603,1471.806
7604,1504.747
7605,1586.098
7606,1656.411
7607,1698.173
7608,1783.145
7609,1819.793
7610,1876.939
7611,1934.084
7612,1989.014
7613,2058.603
7614,2065.208
7615,2128.959
7616,2145.791
7617,2158.235
7618,2147.240
7619,2157.510
7620,2151.630
7621,2131.857
7622,2110.635
7623,2094.484
7624,2027.836
7625,2011.727
7626,1935.533
7627,1880.604
7628,1824.907
7629,1783.870
7630,1705.502
7631,1654.962
7632,1584.606
7633,1544.336
7634,1491.579
7635,1425.655
7636,1389.732
7637,1364.845
7638,1287.927
7639,1284.986
7640,1246.889
7641,1228.565
7642,1204.403
7643,1206.576
7644,1186.803
7645,1168.479
7646,1213.906
7647,1218.295
7648,1210.241
7649,1227.841
7650,1241.775
7651,1256.392
7652,1251.278
7653,1313.538
7654,1309.873
7655,1335.527
7656,1349.461
7657,1388.283
7658,1407.331
7659,1408.056
7660,1400.726
7661,1424.164
7662,1435.883
7663,1440.272
7664,1467.417
7665,1477.645
7666,1451.266
7667,1463.752
7668,1455.698
7669,1438.823
7670,1443.937
7671,1469.591
7672,1467.417
7673,1419.775
7674,1446.153
7675,1432.985
7676,1427.104
7677,1424.164
7678,1419.050
7679,1425.655
7680,1387.558
7681,1367.785
7682,1364.845
7683,1369.959
7684,1394.888
7685,1348.737
7686,1345.797
7687,1383.169
7688,1340.640
7689,1336.251
7690,1347.245
7691,1375.072
7692,1332.586
7693,1370.683
7694,1358.964
7695,1325.257
7696,1364.845
7697,1325.257
7698,1354.575
7699,1342.132
7700,1345.072
7701,1365.569
7702,1364.121
7703,1386.834
7704,1355.299
7705,1378.737
7706,1379.504
7707,1411.721
7708,1383.169
7709,1386.834
7710,1397.061
7711,1401.451
7712,1405.840
7713,1421.991
7714,1428.553
7715,1435.883
7716,1441.764
7717,1427.829
7718,1432.985
7719,1419.050
7720,1399.277
7721,1399.277
7722,1410.996
7723,1435.158
7724,1407.331
7725,1380.953
7726,1374.348
7727,1364.121
7728,1359.689
7729,1386.067
7730,1355.299
7731,1340.640
7732,1335.527
7733,1310.640
7734,1336.975
7735,1299.645
7736,1312.089
7737,1303.310
7738,1287.160
7739,1287.927
7740,1304.759
7741,1283.537
7742,1275.441
7743,1284.262
7744,1312.089
7745,1292.316
7746,1324.532
7747,1301.819
7748,1302.543
7749,1321.592
7750,1326.748
7751,1309.148
7752,1292.316
7753,1326.024
7754,1276.208
7755,1306.975
7756,1297.430
7757,1275.441
7758,1248.338
7759,1201.463
7760,1169.246
7761,1157.527
7762,1129.658
7763,1072.512
7764,1066.674
7765,1008.080
7766,1003.648
7767,964.102
7768,894.513
7769,893.022
7770,876.189
7771,870.351
7772,876.189
7773,880.578
7774,901.843
7775,921.616
7776,955.323
7777,1025.637
7778,1077.668
7779,1140.652
7780,1205.127
7781,1287.160
7782,1358.240
7783,1449.093
7784,1540.671
7785,1647.632
7786,1716.497
7787,1787.535
7788,1849.836
7789,1916.485
7790,1989.739
7791,2026.387
7792,2042.495
7793,2088.646
7794,2087.921
7795,2114.300
7796,2076.203
7797,2077.651
7798,2062.268
7799,2023.446
7800,1978.744
7801,1917.934
7802,1870.334
7803,1830.021
7804,1749.437
7805,1675.459
7806,1621.979
7807,1539.179
7808,1482.034
7809,1403.667
7810,1314.305
7811,1285.711
7812,1197.798
7813,1145.041
7814,1100.382
7815,1013.193
7816,1010.977
7817,939.215
7818,913.562
7819,904.016
7820,907.681
7821,892.297
7822,898.902
7823,895.962
7824,916.502
7825,931.886
7826,939.215
7827,974.372
7828,997.085
7829,1057.896
7830,1090.836
7831,1137.712
7832,1172.911
7833,1189.744
7834,1265.938
7835,1301.094
7836,1348.737
7837,1380.953
7838,1391.948
7839,1424.164
7840,1454.931
7841,1476.196
7842,1526.736
7843,1516.466
7844,1542.120
7845,1525.287
7846,1545.060
7847,1536.282
7848,1567.049
7849,1546.509
7850,1578.768
7851,1561.893
7852,1534.066
7853,1558.228
7854,1509.136
7855,1504.747
7856,1529.676
7857,1520.898
7858,1487.190
7859,1458.596
7860,1469.591
7861,1459.321
7862,1460.088
7863,1455.698
7864,1445.428
7865,1416.110
7866,1376.564
7867,1382.402
7868,1381.678
7869,1391.948
7870,1358.240
7871,1348.737
7872,1335.527
7873,1353.851
7874,1314.305
7875,1336.251
7876,1302.543
7877,1332.586
7878,1296.705
7879,1291.591
7880,1298.154
7881,1299.645
7882,1282.770
7883,1312.813
7884,1325.257
7885,1286.435
7886,1327.472
7887,1298.921
7888,1328.197
7889,1309.148
7890,1361.905
7891,1372.175
7892,1364.121
7893,1347.245
7894,1358.240
7895,1367.018
7896,1391.948
7897,1419.775
7898,1410.996
7899,1399.277
7900,1443.212
7901,1435.883
7902,1430.769
7903,1421.991
7904,1450.542
7905,1457.872
7906,1432.218
7907,1453.482
7908,1435.883
7909,1430.769
7910,1418.326
7911,1405.840
7912,1398.553
7913,1380.229
7914,1347.970
7915,1342.856
7916,1360.456
7917,1301.819
7918,1331.137
7919,1280.597
7920,1293.040
7921,1265.213
7922,1233.679
7923,1262.273
7924,1238.835
7925,1224.900
7926,1200.738
7927,1230.057
7928,1198.522
7929,1183.138
7930,1207.343
7931,1177.300
7932,1158.976
7933,1135.538
7934,1155.311
7935,1161.192
7936,1143.593
7937,1135.538
7938,1134.047
7939,1134.814
7940,1140.652
7941,1109.160
7942,1158.252
7943,1148.706
7944,1144.317
7945,1159.701
7946,1192.684
7947,1178.025
7948,1203.678
7949,1252.003
7950,1261.548
7951,1279.872
7952,1327.472
7953,1355.299
7954,1434.434
7955,1503.298
7956,1567.773
7957,1637.362
7958,1674.011
7959,1772.875
7960,1827.123
7961,1899.652
7962,1986.074
7963,2074.711
7964,2131.857
7965,2191.943
7966,2250.537
7967,2268.137
7968,2325.282
7969,2327.455
7970,2355.325
7971,2368.493
7972,2342.839
7973,2347.995
7974,2298.904
7975,2289.358
7976,2238.818
7977,2188.278
7978,2127.467
7979,2087.921
7980,1994.128
7981,1923.090
7982,1855.674
7983,1781.696
7984,1718.670
7985,1671.070
7986,1573.612
7987,1520.131
7988,1427.829
7989,1371.408
7990,1309.148
7991,1282.046
7992,1226.392
7993,1184.630
7994,1164.814
7995,1149.431
7996,1137.712
7997,1130.382
7998,1122.328
7999,1127.484
8000,1107.711
8001,1136.263
8002,1153.095
8003,1167.030
8004,1177.300
8005,1246.165
8006,1267.387
8007,1280.597
8008,1282.046
8009,1334.078
8010,1365.569
8011,1372.899
8012,1402.218
8013,1415.385
8014,1424.888
8015,1427.829
8016,1410.996
8017,1421.991
8018,1412.445
8019,1407.331
8020,1399.277
8021,1398.553
8022,1378.737
8023,1375.072
8024,1368.510
8025,1371.408
8026,1330.413
8027,1326.748
8028,1300.370
8029,1309.873
8030,1262.997
8031,1252.727
8032,1235.895
8033,1230.057
8034,1216.122
8035,1200.738
8036,1203.678
8037,1194.857
8038,1211.008
8039,1217.571
8040,1205.852
8041,1200.738
8042,1199.247
8043,1236.619
8044,1238.111
8045,1279.105
8046,1287.927
8047,1279.105
8048,1316.478
8049,1328.197
8050,1336.251
8051,1336.251
8052,1358.964
8053,1416.834
8054,1420.499
8055,1411.721
8056,1470.315
8057,1457.872
8058,1482.034
8059,1508.412
8060,1485.699
8061,1538.455
8062,1520.898
8063,1533.341
8064,1519.406
8065,1555.330
8066,1548.001
8067,1550.174
8068,1567.773
8069,1545.060
8070,1552.390
8071,1561.168
8072,1577.276
8073,1532.617
8074,1539.946
8075,1561.168
8076,1513.568
8077,1515.742
8078,1531.850
8079,1529.676
8080,1490.855
8081,1501.849
8082,1520.131
8083,1485.699
8084,1512.077
8085,1479.136
8086,1469.591
8087,1489.364
8088,1446.877
8089,1471.082
8090,1422.715
8091,1450.542
8092,1408.780
8093,1423.439
8094,1407.331
8095,1361.905
8096,1393.397
8097,1376.564
8098,1338.467
8099,1326.748
8100,1312.813
8101,1306.208
8102,1292.316
8103,1252.727
8104,1238.835
8105,1230.781
8106,1186.079
8107,1169.246
8108,1153.095
8109,1095.226
8110,1112.825
8111,1082.782
8112,1055.680
8113,1009.529
8114,967.767
8115,968.491
8116,899.627
8117,878.405
8118,834.427
8119,808.049
8120,781.671
8121,796.330
8122,763.389
8123,772.168
8124,771.443
8125,797.822
8126,804.384
8127,849.811
8128,861.530
8129,947.269
8130,1005.139
8131,1050.566
8132,1145.808
8133,1235.170
8134,1298.921
8135,1402.942
8136,1476.920
8137,1565.558
8138,1639.578
8139,1696.724
8140,1760.432
8141,1832.961
8142,1911.371
8143,1949.468
8144,1977.295
8145,2010.236
8146,2055.663
8147,2046.884
8148,2043.219
8149,2058.603
8150,2040.279
8151,2015.392
8152,1978.744
8153,1934.809
8154,1904.766
8155,1882.053
8156,1818.302
8157,1772.875
8158,1732.605
8159,1690.119
8160,1625.643
8161,1575.828
8162,1501.082
8163,1444.704
8164,1413.169
8165,1353.851
8166,1270.327
8167,1229.290
8168,1161.917
8169,1141.377
8170,1072.512
8171,1053.464
8172,1025.637
8173,957.497
8174,962.653
8175,956.772
8176,942.837
8177,910.621
8178,947.994
8179,923.064
8180,942.837
8181,986.091
8182,1022.696
8183,1050.566
8184,1071.788
8185,1074.728
8186,1144.317
8187,1142.144
8188,1208.792
8189,1246.889
8190,1268.878
8191,1305.484
8192,1334.078
8193,1337.742
8194,1360.456
8195,1400.002
8196,1446.877
8197,1435.883
8198,1457.147
8199,1454.207
8200,1466.650
8201,1473.255
8202,1474.704
8203,1479.861
8204,1501.849
8205,1518.682
8206,1515.742
8207,1512.077
8208,1493.028
8209,1487.190
8210,1460.812
8211,1457.872
8212,1487.190
8213,1443.937
8214,1467.417
8215,1447.602
8216,1447.602
8217,1446.877
8218,1430.045
8219,1443.212
8220,1457.147
8221,1427.104
8222,1461.536
8223,1435.883
8224,1413.937
8225,1419.775
8226,1437.374
8227,1421.991
8228,1413.937
8229,1441.764
8230,1397.786
8231,1421.266
8232,1408.780
8233,1391.223
8234,1410.272
8235,1376.564
8236,1415.385
8237,1393.397
8238,1363.354
8239,1402.942
8240,1367.018
8241,1395.612
8242,1356.791
8243,1379.504
8244,1345.072
8245,1350.186
8246,1367.018
8247,1314.305
8248,1345.072
8249,1334.078
8250,1324.532
8251,1303.310
8252,1291.591
8253,1295.256
8254,1287.160
8255,1290.824
8256,1288.651
8257,1298.921
8258,1286.435
8259,1268.878
8260,1268.111
8261,1284.986
8262,1289.375
8263,1306.975
8264,1276.932
8265,1282.046
8266,1277.657
8267,1267.387
8268,1274.716
8269,1295.981
8270,1316.478
8271,1304.035
8272,1298.154
8273,1306.208
8274,1310.640
8275,1290.824
8276,1277.657
8277,1271.051
8278,1307.700
8279,1295.256
8280,1297.430
8281,1290.824
8282,1276.932
8283,1274.716
8284,1280.597
8285,1252.727
8286,1238.835
8287,1265.938
8288,1266.662
8289,1253.494
8290,1235.895
8291,1224.900
8292,1209.517
8293,1162.641
8294,1129.658
8295,1131.874
8296,1084.998
8297,1091.561
8298,1087.171
8299,1063.009
8300,1048.350
8301,1037.356
8302,1030.026
8303,1028.577
8304,1013.193
8305,986.815
8306,1000.750
8307,1026.361
8308,1032.242
8309,1067.398
8310,1084.231
8311,1109.160
8312,1156.760
8313,1193.408
8314,1281.321
8315,1344.305
8316,1413.937
8317,1468.866
8318,1585.331
8319,1660.800
8320,1722.335
8321,1826.356
8322,1893.772
8323,1976.571
8324,2067.381
8325,2140.678
8326,2179.499
8327,2240.310
8328,2252.753
8329,2280.580
8330,2298.904
8331,2286.461
8332,2293.023
8333,2245.423
8334,2227.099
8335,2194.158
8336,2148.732
8337,2101.814
8338,2019.781
8339,1975.079
8340,1904.766
8341,1824.183
8342,1755.318
8343,1681.298
8344,1638.087
8345,1583.157
8346,1476.196
8347,1441.764
8348,1351.635
8349,1298.154
8350,1251.278
8351,1221.960
8352,1211.733
8353,1167.755
8354,1122.328
8355,1141.377
8356,1120.879
8357,1107.711
8358,1109.885
8359,1120.879
8360,1104.771
8361,1139.928
8362,1156.036
8363,1185.354
8364,1220.511
8365,1244.673
8366,1274.716
8367,1293.040
8368,1292.316
8369,1308.424
8370,1344.305
8371,1393.397
8372,1397.061
8373,1411.721
8374,1419.775
8375,1433.709
8376,1491.579
8377,1487.190
8378,1476.196
8379,1509.136
8380,1528.952
8381,1506.239
8382,1550.898
8383,1512.077
8384,1533.341
8385,1515.742
8386,1522.347
8387,1527.461
8388,1513.568
8389,1519.406
8390,1482.034
8391,1511.352
8392,1460.812
8393,1493.028
8394,1478.369
8395,1468.866
8396,1460.088
8397,1447.602
8398,1433.709
8399,1422.715
8400,1405.840
8401,1358.240
8402,1347.970
8403,1345.072
8404,1340.640
8405,1343.581
8406,1316.478
8407,1291.591
8408,1304.035
8409,1317.202
8410,1288.651
8411,1287.927
8412,1304.035
8413,1271.051
8414,1296.705
8415,1307.700
8416,1295.256
8417,1323.808
8418,1328.921
8419,1328.921
8420,1335.527
8421,1353.126
8422,1360.456
8423,1361.905
8424,1343.581
8425,1386.067
8426,1354.575
8427,1368.510
8428,1380.229
8429,1404.391
8430,1427.104
8431,1424.888
8432,1424.888
8433,1426.380
8434,1399.277
8435,1403.667
8436,1424.164
8437,1430.045
8438,1406.607
8439,1391.948
8440,1383.894
8441,1401.451
8442,1367.785
8443,1359.689
8444,1345.072
8445,1342.856
8446,1329.688
8447,1336.251
8448,1318.694
8449,1274.716
8450,1287.160
8451,1296.705
8452,1263.722
8453,1262.997
8454,1235.170
8455,1260.824
8456,1243.949
8457,1262.997
8458,1216.122
8459,1213.906
8460,1228.565
8461,1197.073
8462,1195.624
8463,1200.014
8464,1189.019
8465,1138.479
8466,1158.976
8467,1139.203
8468,1114.274
8469,1085.723
8470,1013.193
8471,1013.193
8472,991.929
8473,922.340
8474,890.848
8475,903.292
8476,871.075
8477,846.870
8478,816.870
8479,750.903
8480,772.892
8481,711.358
8482,741.400
8483,718.687
8484,725.292
8485,749.455
8486,767.054
8487,799.995
8488,838.092
8489,856.416
8490,936.275
8491,1010.977
8492,1061.518
8493,1164.814
8494,1266.662
8495,1329.688
8496,1445.428
8497,1523.796
8498,1619.763
8499,1665.914
8500,1754.594
8501,1845.404
8502,1902.550
8503,1977.295
8504,1995.619
8505,2043.219
8506,2084.257
8507,2101.089
8508,2123.803
8509,2123.803
8510,2101.814
8511,2084.981
8512,2057.878
8513,2024.171
8514,1967.025
8515,1937.749
8516,1875.447
8517,1838.842
8518,1769.210
8519,1697.448
8520,1646.141
8521,1573.612
8522,1522.347
8523,1434.434
8524,1383.169
8525,1372.175
8526,1308.424
8527,1284.986
8528,1253.494
8529,1220.511
8530,1205.852
8531,1194.857
8532,1183.863
8533,1207.343
8534,1218.295
8535,1239.560
8536,1264.489
8537,1290.100
8538,1328.921
8539,1355.299
8540,1399.277
8541,1412.445
8542,1485.699
8543,1534.790
8544,1551.665
8545,1602.206
8546,1613.925
8547,1615.373
8548,1675.459
8549,1649.806
8550,1679.849
8551,1685.729
8552,1674.011
8553,1684.962
8554,1679.849
8555,1652.746
8556,1660.076
8557,1623.428
8558,1599.990
8559,1582.433
8560,1575.828
8561,1528.952
8562,1535.515
8563,1471.082
8564,1478.369
8565,1450.542
8566,1423.439
8567,1392.672
8568,1361.180
8569,1342.132
8570,1284.262
8571,1279.872
8572,1251.278
8573,1245.440
8574,1193.408
8575,1202.911
8576,1161.192
8577,1192.684
8578,1167.030
8579,1156.760
8580,1141.377
8581,1142.868
8582,1135.538
8583,1136.263
8584,1122.328
8585,1107.711
8586,1122.328
8587,1147.257
8588,1125.993
8589,1134.047
8590,1131.874
8591,1130.382
8592,1140.652
8593,1144.317
8594,1153.863
8595,1210.241
8596,1207.343
8597,1199.247
8598,1239.560
8599,1258.608
8600,1277.657
8601,1287.160
8602,1301.094
8603,1285.711
8604,1285.711
8605,1297.430
8606,1323.808
8607,1353.126
8608,1372.899
8609,1386.067
8610,1391.223
8611,1400.726
8612,1407.331
8613,1400.002
8614,1394.121
8615,1371.408
8616,1375.072
8617,1411.721
8618,1393.397
8619,1369.959
8620,1394.121
8621,1394.121
8622,1357.515
8623,1339.191
8624,1334.802
8625,1328.197
8626,1321.592
8627,1315.029
8628,1315.029
8629,1346.521
8630,1342.856
8631,1334.802
8632,1328.197
8633,1310.640
8634,1301.094
8635,1304.759
8636,1309.873
8637,1279.105
8638,1258.608
8639,1252.003
8640,1281.321
8641,1284.986
8642,1280.597
8643,1260.824
8644,1240.284
8645,1223.451
8646,1256.392
8647,1206.576
8648,1235.895
8649,1200.738
8650,1160.425
8651,1134.814
8652,1123.820
8653,1112.101
8654,1104.047
8655,1049.799
8656,1045.410
8657,1033.691
8658,972.156
8659,993.420
8660,973.647
8661,949.443
8662,930.394
8663,945.053
8664,905.507
8665,932.610
8666,936.275
8667,919.400
8668,978.037
8669,972.880
8670,1016.134
8671,1039.571
8672,1102.555
8673,1150.922
8674,1219.787
8675,1262.997
8676,1351.635
8677,1427.829
8678,1494.520
8679,1589.762
8680,1691.568
8681,1810.248
8682,1875.447
8683,1974.355
8684,2040.279
8685,2117.964
8686,2203.661
8687,2277.640
