'sample interval','wrist_ppg'
'0.00390625 sec','mV'
0,1394.888
1,1388.283
2,1347.245
3,1375.839
4,1349.461
5,1367.785
6,1361.905
7,1350.186
8,1392.672
9,1364.121
10,1400.002
11,1361.905
12,1394.888
13,1369.959
14,1402.942
15,1383.894
16,1402.218
17,1404.391
18,1394.888
19,1399.277
20,1402.942
21,1423.439
22,1427.829
23,1390.456
24,1397.786
25,1397.061
26,1419.050
27,1383.894
28,1386.834
29,1407.331
30,1425.655
31,1427.104
32,1392.672
33,1417.601
34,1426.380
35,1430.769
36,1446.877
37,1456.423
38,1458.596
39,1446.877
40,1471.806
41,1482.801
42,1471.806
43,1473.255
44,1485.699
45,1497.418
46,1504.023
47,1515.742
48,1519.406
49,1531.850
50,1544.336
51,1550.898
52,1555.330
53,1550.898
54,1565.558
55,1557.503
56,1558.995
57,1567.773
58,1597.816
59,1578.001
60,1580.941
61,1578.001
62,1570.714
63,1556.055
64,1550.898
65,1545.785
66,1540.671
67,1543.569
68,1533.341
69,1517.233
70,1526.012
71,1539.179
72,1507.688
73,1490.855
74,1485.699
75,1488.639
76,1497.418
77,1516.466
78,1490.131
79,1490.855
80,1507.688
81,1508.412
82,1524.563
83,1535.515
84,1534.066
85,1526.012
86,1537.006
87,1539.946
88,1562.617
89,1576.552
90,1561.893
91,1593.427
92,1557.503
93,1588.995
94,1561.168
95,1580.941
96,1564.109
97,1571.438
98,1581.666
99,1558.995
100,1578.001
101,1580.941
102,1570.714
103,1583.882
104,1556.779
105,1579.492
106,1537.006
107,1540.671
108,1536.282
109,1521.622
110,1518.682
111,1514.293
112,1509.904
113,1507.688
114,1508.412
115,1509.136
116,1499.634
117,1497.418
118,1491.579
119,1487.915
120,1487.190
121,1493.753
122,1472.531
123,1462.261
124,1490.855
125,1452.034
126,1473.980
127,1451.266
128,1431.494
129,1452.034
130,1416.834
131,1419.050
132,1432.985
133,1394.888
134,1427.829
135,1383.894
136,1403.667
137,1404.391
138,1366.294
139,1396.337
140,1349.461
141,1387.558
142,1345.072
143,1371.408
144,1358.240
145,1321.592
146,1364.845
147,1336.251
148,1320.867
149,1320.867
150,1341.407
151,1352.402
152,1373.624
153,1366.294
154,1345.797
155,1369.959
156,1397.061
157,1384.618
158,1412.445
159,1425.655
160,1422.715
161,1475.471
162,1460.812
163,1490.131
164,1487.190
165,1455.698
166,1462.985
167,1480.585
168,1484.974
169,1478.369
170,1431.494
171,1438.823
172,1427.104
173,1411.721
174,1424.164
175,1397.061
176,1367.785
177,1364.845
178,1345.072
179,1343.581
180,1365.569
181,1348.737
182,1353.851
183,1328.197
184,1314.305
185,1301.819
186,1308.424
187,1289.375
188,1294.489
189,1298.921
190,1312.813
191,1278.381
192,1283.537
193,1276.208
194,1286.435
195,1279.872
196,1295.981
197,1276.932
198,1261.548
199,1268.878
200,1263.722
201,1285.711
202,1316.478
203,1293.040
204,1287.927
205,1317.202
206,1297.430
207,1293.040
208,1295.256
209,1338.467
210,1311.364
211,1300.370
212,1309.873
213,1336.975
214,1313.538
215,1318.694
216,1336.975
217,1305.484
218,1297.430
219,1300.370
220,1304.759
221,1277.657
222,1275.441
223,1265.213
224,1251.278
225,1240.284
226,1263.722
227,1246.889
228,1216.122
229,1194.857
230,1196.349
231,1209.517
232,1184.630
233,1160.425
234,1160.425
235,1158.252
236,1184.630
237,1191.960
238,1200.738
239,1194.857
240,1194.133
241,1183.863
242,1178.025
243,1186.079
244,1198.522
245,1200.014
246,1208.792
247,1211.008
248,1219.062
249,1222.727
250,1226.392
251,1249.830
252,1264.489
253,1237.344
254,1243.224
255,1249.105
256,1253.494
257,1290.824
258,1297.430
259,1279.872
260,1293.040
261,1322.359
262,1307.700
263,1295.256
264,1329.688
265,1302.543
266,1351.635
267,1318.694
268,1356.791
269,1361.180
270,1345.072
271,1381.678
272,1361.905
273,1386.067
274,1393.397
275,1380.229
276,1402.218
277,1427.829
278,1441.764
279,1408.056
280,1422.715
281,1419.775
282,1437.374
283,1465.926
284,1434.434
285,1443.937
286,1471.082
287,1433.709
288,1462.261
289,1435.883
290,1473.255
291,1436.650
292,1480.585
293,1441.764
294,1487.915
295,1452.758
296,1474.704
297,1494.520
298,1505.514
299,1515.017
300,1506.963
301,1504.747
302,1520.898
303,1534.066
304,1535.515
305,1535.515
306,1547.233
307,1546.509
308,1559.719
309,1558.228
310,1557.503
311,1590.487
312,1578.768
313,1571.438
314,1553.839
315,1550.174
316,1548.725
317,1542.120
318,1537.731
319,1547.233
320,1564.833
321,1542.844
322,1524.563
323,1544.336
324,1542.844
325,1519.406
326,1500.358
327,1521.622
328,1480.585
329,1475.471
330,1498.909
331,1453.482
332,1450.542
333,1452.758
334,1452.034
335,1430.045
336,1460.812
337,1432.985
338,1415.385
339,1441.764
340,1429.320
341,1401.451
342,1383.894
343,1374.348
344,1385.342
345,1390.456
346,1391.223
347,1367.018
348,1351.635
349,1347.970
350,1391.223
351,1371.408
352,1363.354
353,1367.785
354,1357.515
355,1358.964
356,1371.408
357,1383.169
358,1375.839
359,1364.121
360,1393.397
361,1393.397
362,1383.169
363,1364.121
364,1365.569
365,1371.408
366,1382.402
367,1386.067
368,1404.391
369,1414.661
370,1387.558
371,1378.737
372,1376.564
373,1388.283
374,1424.164
375,1386.834
376,1387.558
377,1422.715
378,1386.067
379,1384.618
380,1418.326
381,1393.397
382,1389.732
383,1393.397
384,1414.661
385,1386.067
386,1416.834
387,1416.110
388,1392.672
389,1416.834
390,1405.115
391,1369.959
392,1408.056
393,1376.564
394,1361.180
395,1389.732
396,1365.569
397,1369.234
398,1367.018
399,1354.575
400,1368.510
401,1341.407
402,1364.845
403,1347.245
404,1357.515
405,1375.839
406,1347.245
407,1379.504
408,1365.569
409,1363.354
410,1390.456
411,1381.678
412,1364.121
413,1409.505
414,1382.402
415,1377.288
416,1405.840
417,1387.558
418,1408.056
419,1403.667
420,1431.494
421,1412.445
422,1453.482
423,1429.320
424,1424.164
425,1446.153
426,1462.261
427,1462.985
428,1461.536
429,1482.801
430,1474.704
431,1472.531
432,1488.639
433,1495.244
434,1523.796
435,1531.125
436,1530.401
437,1543.569
438,1555.330
439,1584.606
440,1610.260
441,1597.049
442,1592.660
443,1599.265
444,1591.211
445,1597.049
446,1616.865
447,1602.930
448,1586.822
449,1602.930
450,1594.876
451,1564.833
452,1556.779
453,1550.174
454,1575.103
455,1561.893
456,1541.395
457,1526.012
458,1519.406
459,1517.233
460,1517.233
461,1515.017
462,1516.466
463,1514.293
464,1514.293
465,1510.628
466,1537.006
467,1508.412
468,1509.904
469,1517.958
470,1473.980
471,1492.304
472,1457.147
473,1490.131
474,1452.758
475,1446.153
476,1465.201
477,1435.158
478,1465.926
479,1482.034
480,1466.650
481,1479.136
482,1509.136
483,1489.364
484,1509.136
485,1543.569
486,1513.568
487,1521.622
488,1547.233
489,1537.006
490,1532.617
491,1539.179
492,1561.168
493,1523.796
494,1517.233
495,1524.563
496,1533.341
497,1488.639
498,1490.855
499,1478.369
500,1499.634
501,1480.585
502,1479.861
503,1471.082
504,1487.915
505,1490.855
506,1465.926
507,1474.704
508,1474.704
509,1450.542
510,1483.525
511,1479.861
512,1473.255
513,1460.088
514,1495.244
515,1469.591
516,1452.758
517,1473.980
518,1452.758
519,1471.082
520,1445.428
521,1430.769
522,1466.650
523,1438.823
524,1419.050
525,1414.661
526,1445.428
527,1440.272
528,1398.553
529,1386.067
530,1421.266
531,1387.558
532,1370.683
533,1389.732
534,1386.067
535,1353.126
536,1389.732
537,1344.305
538,1347.245
539,1375.839
540,1347.245
541,1324.532
542,1328.197
543,1318.694
544,1332.586
545,1284.986
546,1313.538
547,1304.759
548,1272.543
549,1271.051
550,1291.591
551,1244.673
552,1275.441
553,1248.338
554,1257.159
555,1241.008
556,1215.397
557,1248.338
558,1207.343
559,1190.468
560,1185.354
561,1218.295
562,1194.133
563,1164.090
564,1180.965
565,1194.857
566,1178.749
567,1182.414
568,1180.241
569,1176.576
570,1173.635
571,1161.917
572,1151.647
573,1134.814
574,1149.431
575,1149.431
576,1172.144
577,1161.917
578,1141.377
579,1185.354
580,1171.420
581,1153.863
582,1184.630
583,1159.701
584,1197.798
585,1206.576
586,1184.630
587,1221.960
588,1196.349
589,1235.170
590,1256.392
591,1272.543
592,1284.262
593,1287.927
594,1273.267
595,1312.813
596,1347.245
597,1337.742
598,1342.132
599,1348.737
600,1354.575
601,1386.834
602,1375.072
603,1384.618
604,1413.169
605,1413.169
606,1441.764
607,1413.937
608,1438.099
609,1460.812
610,1444.704
611,1438.823
612,1474.704
613,1478.369
614,1460.088
615,1498.185
616,1476.196
617,1502.574
618,1471.082
619,1519.406
620,1482.801
621,1514.293
622,1533.341
623,1505.514
624,1502.574
625,1539.946
626,1530.401
627,1510.628
628,1509.136
629,1539.946
630,1534.790
631,1508.412
632,1491.579
633,1522.347
634,1479.136
635,1512.801
636,1465.926
637,1495.244
638,1456.423
639,1443.212
640,1465.926
641,1427.829
642,1421.266
643,1434.434
644,1442.488
645,1421.991
646,1400.002
647,1435.158
648,1405.840
649,1438.099
650,1397.061
651,1393.397
652,1427.829
653,1402.218
654,1439.548
655,1413.937
656,1403.667
657,1417.601
658,1412.445
659,1421.266
660,1410.996
661,1413.937
662,1415.385
663,1441.039
664,1452.034
665,1454.931
666,1414.661
667,1444.704
668,1452.034
669,1422.715
670,1406.607
671,1412.445
672,1409.505
673,1416.834
674,1431.494
675,1427.104
676,1413.169
677,1383.894
678,1375.839
679,1383.169
680,1370.683
681,1402.942
682,1397.061
683,1372.899
684,1378.737
685,1369.959
686,1383.894
687,1363.354
688,1350.186
689,1349.461
690,1343.581
691,1341.407
692,1345.072
693,1386.067
694,1372.899
695,1372.175
696,1354.575
697,1370.683
698,1408.780
699,1382.402
700,1375.839
701,1415.385
702,1419.050
703,1390.456
704,1405.840
705,1439.548
706,1413.937
707,1458.596
708,1432.218
709,1442.488
710,1475.471
711,1457.147
712,1498.909
713,1475.471
714,1499.634
715,1484.974
716,1490.855
717,1493.753
718,1504.023
719,1504.023
720,1506.239
721,1506.239
722,1509.136
723,1506.963
724,1520.131
725,1514.293
726,1525.287
727,1526.012
728,1493.753
729,1507.688
730,1502.574
731,1490.855
732,1486.466
733,1493.028
734,1447.602
735,1439.548
736,1425.655
737,1461.536
738,1415.385
739,1427.104
740,1424.164
741,1387.558
742,1389.732
743,1416.834
744,1386.834
745,1380.953
746,1395.612
747,1414.661
748,1405.840
749,1391.223
750,1396.337
751,1413.937
752,1438.099
753,1429.320
754,1437.374
755,1432.218
756,1422.715
757,1459.321
758,1457.872
759,1450.542
760,1454.931
761,1452.034
762,1429.320
763,1432.985
764,1441.039
765,1450.542
766,1431.494
767,1457.147
768,1451.266
769,1446.877
770,1452.758
771,1424.164
772,1402.218
773,1403.667
774,1408.056
775,1391.948
776,1386.834
777,1384.618
778,1393.397
779,1383.894
780,1385.342
781,1383.169
782,1381.678
783,1383.894
784,1375.072
785,1383.894
786,1389.732
787,1388.283
788,1386.067
789,1372.175
790,1358.240
791,1356.024
792,1359.689
793,1367.018
794,1380.953
795,1391.223
796,1367.018
797,1358.240
798,1381.678
799,1394.888
800,1403.667
801,1397.786
802,1364.845
803,1370.683
804,1364.845
805,1380.953
806,1400.726
807,1399.277
808,1366.294
809,1353.851
810,1359.689
811,1372.899
812,1384.618
813,1345.797
814,1344.305
815,1346.521
816,1379.504
817,1374.348
818,1336.975
819,1338.467
820,1342.132
821,1375.839
822,1375.839
823,1383.169
824,1342.132
825,1355.299
826,1353.851
827,1358.240
828,1367.018
829,1380.229
830,1417.601
831,1426.380
832,1430.045
833,1438.099
834,1427.104
835,1425.655
836,1443.212
837,1431.494
838,1424.164
839,1434.434
840,1440.272
841,1434.434
842,1423.439
843,1420.499
844,1446.153
845,1475.471
846,1465.201
847,1470.315
848,1476.920
849,1526.012
850,1518.682
851,1556.779
852,1561.893
853,1544.336
854,1567.049
855,1567.049
856,1605.871
857,1593.427
858,1572.887
859,1574.379
860,1568.498
861,1602.206
862,1560.444
863,1591.936
864,1548.725
865,1551.665
866,1578.768
867,1536.282
868,1540.671
869,1566.282
870,1532.617
871,1522.347
872,1533.341
873,1531.850
874,1534.066
875,1526.736
876,1504.747
877,1484.974
878,1488.639
879,1502.574
880,1495.969
881,1509.904
882,1471.806
883,1482.034
884,1454.931
885,1449.093
886,1445.428
887,1443.937
888,1441.764
889,1442.488
890,1451.266
891,1454.207
892,1446.877
893,1484.250
894,1453.482
895,1488.639
896,1456.423
897,1490.855
898,1448.369
899,1490.855
900,1460.088
901,1450.542
902,1454.931
903,1473.255
904,1474.704
905,1465.201
906,1441.039
907,1430.769
908,1417.601
909,1416.110
910,1405.840
911,1398.553
912,1394.121
913,1405.840
914,1406.607
915,1374.348
916,1365.569
917,1367.785
918,1360.456
919,1348.737
920,1356.791
921,1353.851
922,1361.905
923,1329.688
924,1345.072
925,1339.191
926,1302.543
927,1299.645
928,1296.705
929,1306.975
930,1323.083
931,1288.651
932,1306.208
933,1275.441
934,1285.711
935,1318.694
936,1284.986
937,1273.992
938,1312.813
939,1276.208
940,1312.089
941,1303.310
942,1301.094
943,1289.375
944,1335.527
945,1294.489
946,1339.191
947,1327.472
948,1322.359
949,1323.808
950,1350.910
951,1378.013
952,1348.737
953,1369.959
954,1383.169
955,1369.234
956,1416.834
957,1385.342
958,1401.451
959,1419.775
960,1405.115
961,1429.320
962,1443.937
963,1431.494
964,1443.937
965,1454.207
966,1476.920
967,1509.136
968,1491.579
969,1485.699
970,1500.358
971,1506.963
972,1524.563
973,1509.904
974,1523.796
975,1553.839
976,1530.401
977,1544.336
978,1523.796
979,1550.898
980,1527.461
981,1570.714
982,1537.731
983,1559.719
984,1540.671
985,1548.001
986,1588.995
987,1592.660
988,1557.503
989,1584.606
990,1572.887
991,1600.714
992,1613.200
993,1578.768
994,1614.649
995,1585.331
996,1616.865
997,1586.098
998,1591.936
999,1617.589
1000,1620.530
1001,1579.492
1002,1575.828
1003,1575.828
1004,1602.930
1005,1572.887
1006,1557.503
1007,1577.276
1008,1535.515
1009,1563.384
1010,1556.055
1011,1504.747
1012,1515.017
1013,1501.082
1014,1470.315
1015,1463.752
1016,1471.082
1017,1476.920
1018,1477.645
1019,1467.417
1020,1465.201
1021,1439.548
1022,1434.434
1023,1411.721
1024,1416.110
1025,1406.607
1026,1400.002
1027,1403.667
1028,1392.672
1029,1402.942
1030,1410.996
1031,1389.007
1032,1406.607
1033,1408.780
1034,1414.661
1035,1387.558
1036,1367.018
1037,1385.342
1038,1357.515
1039,1348.737
1040,1350.910
1041,1346.521
1042,1367.018
1043,1331.862
1044,1316.478
1045,1323.808
1046,1299.645
1047,1331.137
1048,1287.927
1049,1289.375
1050,1316.478
1051,1274.716
1052,1273.267
1053,1284.986
1054,1254.943
1055,1241.775
1056,1253.494
1057,1265.213
1058,1257.159
1059,1219.062
1060,1216.846
1061,1206.576
1062,1231.505
1063,1222.727
1064,1177.300
1065,1161.192
1066,1191.193
1067,1179.474
1068,1175.809
1069,1137.712
1070,1142.144
1071,1135.538
1072,1164.814
1073,1160.425
1074,1155.311
1075,1156.760
1076,1169.971
1077,1178.749
1078,1194.857
1079,1205.852
1080,1226.392
1081,1244.673
1082,1290.100
1083,1298.921
1084,1287.927
1085,1342.856
1086,1319.418
1087,1347.970
1088,1364.845
1089,1393.397
1090,1437.374
1091,1413.169
1092,1435.158
1093,1448.369
1094,1469.591
1095,1495.244
1096,1507.688
1097,1519.406
1098,1523.796
1099,1533.341
1100,1555.330
1101,1586.098
1102,1553.114
1103,1590.487
1104,1575.828
1105,1559.719
1106,1575.103
1107,1553.114
1108,1583.882
1109,1542.120
1110,1572.887
1111,1540.671
1112,1556.779
1113,1515.017
1114,1544.336
1115,1518.682
1116,1493.753
1117,1503.298
1118,1485.699
1119,1489.364
1120,1476.920
1121,1462.985
1122,1441.764
1123,1472.531
1124,1465.926
1125,1436.650
1126,1446.877
1127,1453.482
1128,1454.207
1129,1440.272
1130,1463.752
1131,1447.602
1132,1435.158
1133,1451.266
1134,1465.201
1135,1423.439
1136,1418.326
1137,1430.045
1138,1454.207
1139,1432.985
1140,1411.721
1141,1430.769
1142,1439.548
1143,1418.326
1144,1401.451
1145,1400.726
1146,1413.937
1147,1432.985
1148,1394.888
1149,1407.331
1150,1429.320
1151,1407.331
1152,1388.283
1153,1394.121
1154,1426.380
1155,1402.942
1156,1386.834
1157,1397.061
1158,1424.164
1159,1408.780
1160,1406.607
1161,1397.061
1162,1388.283
1163,1397.061
1164,1399.277
1165,1397.786
1166,1416.834
1167,1393.397
1168,1386.067
1169,1383.894
1170,1380.953
1171,1392.672
1172,1391.948
1173,1390.456
1174,1371.408
1175,1366.294
1176,1372.175
1177,1361.180
1178,1354.575
1179,1349.461
1180,1357.515
1181,1341.407
1182,1341.407
1183,1353.126
1184,1324.532
1185,1316.478
1186,1315.029
1187,1314.305
1188,1326.748
1189,1347.970
1190,1350.910
1191,1350.910
1192,1330.413
1193,1328.197
1194,1325.257
1195,1331.137
1196,1336.975
1197,1333.353
1198,1338.467
1199,1348.737
1200,1387.558
1201,1389.007
1202,1375.839
1203,1389.732
1204,1372.175
1205,1364.121
1206,1360.456
1207,1383.894
1208,1360.456
1209,1338.467
1210,1353.851
1211,1370.683
1212,1348.737
1213,1317.970
1214,1316.478
1215,1312.813
1216,1320.867
1217,1332.586
1218,1334.078
1219,1346.521
1220,1370.683
1221,1364.121
1222,1385.342
1223,1387.558
1224,1400.002
1225,1402.218
1226,1372.899
1227,1370.683
1228,1372.175
1229,1372.899
1230,1374.348
1231,1388.283
1232,1401.451
1233,1406.607
1234,1399.277
1235,1391.223
1236,1364.845
1237,1341.407
1238,1364.121
1239,1331.862
1240,1334.802
1241,1336.975
1242,1359.689
1243,1341.407
1244,1308.424
1245,1340.640
1246,1298.921
1247,1331.137
1248,1304.035
1249,1329.688
1250,1315.754
1251,1290.100
1252,1287.927
1253,1310.640
1254,1310.640
1255,1298.154
1256,1284.986
1257,1308.424
1258,1281.321
1259,1274.716
1260,1275.441
1261,1305.484
1262,1282.770
1263,1266.662
1264,1282.046
1265,1306.208
1266,1269.602
1267,1306.975
1268,1271.051
1269,1306.208
1270,1279.872
1271,1308.424
1272,1277.657
1273,1304.035
1274,1274.716
1275,1285.711
1276,1280.597
1277,1284.986
1278,1288.651
1279,1295.981
1280,1296.705
1281,1336.975
1282,1335.527
1283,1304.035
1284,1297.430
1285,1334.078
1286,1335.527
1287,1320.143
1288,1306.975
1289,1285.711
1290,1279.105
1291,1313.538
1292,1298.154
1293,1273.992
1294,1279.872
1295,1252.727
1296,1237.344
1297,1225.625
1298,1224.900
1299,1244.673
1300,1200.014
1301,1223.451
1302,1224.176
1303,1178.749
1304,1213.906
1305,1178.749
1306,1175.084
1307,1156.036
1308,1176.576
1309,1127.484
1310,1161.917
1311,1134.814
1312,1120.879
1313,1128.209
1314,1123.820
1315,1085.723
1316,1067.398
1317,1088.663
1318,1066.674
1319,1046.901
1320,1029.301
1321,1044.685
1322,1059.344
1323,1058.620
1324,1051.290
1325,1030.750
1326,1034.415
1327,1018.307
1328,1054.231
1329,1071.788
1330,1063.734
1331,1050.566
1332,1052.015
1333,1107.711
1334,1082.058
1335,1123.095
1336,1147.257
1337,1122.328
1338,1159.701
1339,1150.198
1340,1164.814
1341,1181.690
1342,1201.463
1343,1211.733
1344,1223.451
1345,1249.830
1346,1285.711
1347,1282.046
1348,1288.651
1349,1315.754
1350,1285.711
1351,1328.921
1352,1336.251
1353,1337.742
1354,1339.191
1355,1315.029
1356,1332.586
1357,1366.294
1358,1340.640
1359,1356.791
1360,1383.169
1361,1361.905
1362,1402.218
1363,1389.732
1364,1389.732
1365,1435.158
1366,1412.445
1367,1449.093
1368,1432.985
1369,1439.548
1370,1446.153
1371,1471.806
1372,1454.931
1373,1493.753
1374,1464.477
1375,1470.315
1376,1500.358
1377,1478.369
1378,1471.806
1379,1493.753
1380,1469.591
1381,1500.358
1382,1471.082
1383,1500.358
1384,1482.034
1385,1494.520
1386,1484.250
1387,1490.855
1388,1493.753
1389,1501.082
1390,1513.568
1391,1513.568
1392,1521.622
1393,1533.341
1394,1540.671
1395,1556.055
1396,1594.152
1397,1593.427
1398,1592.660
1399,1594.152
1400,1603.655
1401,1643.968
1402,1631.482
1403,1651.297
1404,1676.184
1405,1656.411
1406,1677.675
1407,1683.513
1408,1685.729
1409,1681.298
1410,1693.059
1411,1682.065
1412,1684.238
1413,1707.676
1414,1709.892
1415,1694.508
1416,1702.562
1417,1691.568
1418,1672.519
1419,1652.746
1420,1649.081
1421,1651.297
1422,1626.368
1423,1619.038
1424,1608.811
1425,1602.206
1426,1588.995
1427,1594.152
1428,1597.049
1429,1577.276
1430,1556.779
1431,1542.120
1432,1534.066
1433,1523.796
1434,1527.461
1435,1512.801
1436,1533.341
1437,1497.418
1438,1486.466
1439,1465.201
1440,1476.920
1441,1449.818
1442,1431.494
1443,1457.872
1444,1420.499
1445,1414.661
1446,1410.996
1447,1393.397
1448,1388.283
1449,1372.899
1450,1361.905
1451,1353.851
1452,1349.461
1453,1372.175
1454,1345.072
1455,1323.808
1456,1317.202
1457,1331.862
1458,1346.521
1459,1308.424
1460,1298.154
1461,1303.310
1462,1326.024
1463,1306.975
1464,1306.975
1465,1334.078
1466,1304.759
1467,1298.154
1468,1312.089
1469,1326.024
1470,1333.353
1471,1344.305
1472,1336.251
1473,1351.635
1474,1370.683
1475,1374.348
1476,1381.678
1477,1383.894
1478,1386.834
1479,1414.661
1480,1402.218
1481,1411.721
1482,1410.996
1483,1412.445
1484,1419.775
1485,1427.104
1486,1439.548
1487,1480.585
1488,1447.602
1489,1492.304
1490,1460.812
1491,1476.920
1492,1482.034
1493,1501.082
1494,1468.866
1495,1481.309
1496,1506.239
1497,1467.417
1498,1504.747
1499,1487.915
1500,1472.531
1501,1479.861
1502,1473.255
1503,1499.634
1504,1463.752
1505,1457.872
1506,1466.650
1507,1488.639
1508,1462.261
1509,1466.650
1510,1454.931
1511,1471.082
1512,1470.315
1513,1462.985
1514,1482.801
1515,1484.250
1516,1472.531
1517,1497.418
1518,1482.801
1519,1503.298
1520,1484.250
1521,1511.352
1522,1504.747
1523,1498.909
1524,1522.347
1525,1531.850
1526,1500.358
1527,1498.185
1528,1513.568
1529,1512.801
1530,1517.958
1531,1498.909
1532,1501.082
1533,1523.071
1534,1500.358
1535,1534.066
1536,1507.688
1537,1533.341
1538,1499.634
1539,1518.682
1540,1503.298
1541,1495.244
1542,1522.347
1543,1498.909
1544,1534.066
1545,1496.693
1546,1515.017
1547,1534.790
1548,1497.418
1549,1501.082
1550,1498.185
1551,1493.753
1552,1492.304
1553,1488.639
1554,1487.190
1555,1502.574
1556,1482.801
1557,1515.742
1558,1478.369
1559,1504.747
1560,1477.645
1561,1466.650
1562,1471.082
1563,1465.926
1564,1456.423
1565,1457.872
1566,1482.801
1567,1475.471
1568,1465.926
1569,1461.536
1570,1451.266
1571,1468.866
1572,1462.985
1573,1484.250
1574,1459.321
1575,1473.980
1576,1462.985
1577,1466.650
1578,1444.704
1579,1476.196
1580,1457.872
1581,1432.218
1582,1449.093
1583,1435.883
1584,1421.991
1585,1443.212
1586,1428.553
1587,1405.840
1588,1408.056
1589,1421.266
1590,1432.218
1591,1427.829
1592,1399.277
1593,1403.667
1594,1407.331
1595,1402.942
1596,1390.456
1597,1400.726
1598,1436.650
1599,1404.391
1600,1419.050
1601,1427.104
1602,1409.505
1603,1439.548
1604,1416.834
1605,1453.482
1606,1454.207
1607,1456.423
1608,1448.369
1609,1482.034
1610,1450.542
1611,1450.542
1612,1470.315
1613,1452.758
1614,1451.266
1615,1432.985
1616,1465.201
1617,1424.888
1618,1438.823
1619,1419.775
1620,1399.277
1621,1427.829
1622,1410.996
1623,1381.678
1624,1363.354
1625,1377.288
1626,1388.283
1627,1372.899
1628,1350.186
1629,1353.851
1630,1330.413
1631,1344.305
1632,1358.964
1633,1334.078
1634,1307.700
1635,1301.819
1636,1327.472
1637,1306.208
1638,1314.305
1639,1329.688
1640,1295.256
1641,1282.770
1642,1302.543
1643,1320.867
1644,1320.867
1645,1300.370
1646,1304.759
1647,1333.353
1648,1308.424
1649,1308.424
1650,1317.970
1651,1318.694
1652,1324.532
1653,1328.921
1654,1334.802
1655,1347.970
1656,1348.737
1657,1358.964
1658,1353.851
1659,1350.910
1660,1351.635
1661,1344.305
1662,1359.689
1663,1345.072
1664,1357.515
1665,1349.461
1666,1359.689
1667,1355.299
1668,1332.586
1669,1333.353
1670,1328.197
1671,1312.813
1672,1302.543
1673,1299.645
1674,1306.975
1675,1323.083
1676,1273.992
1677,1265.938
1678,1298.921
1679,1265.938
1680,1235.170
1681,1270.327
1682,1227.116
1683,1216.846
1684,1241.008
1685,1193.408
1686,1219.787
1687,1186.079
1688,1181.690
1689,1207.343
1690,1187.528
1691,1167.755
1692,1193.408
1693,1190.468
1694,1169.246
1695,1204.403
1696,1163.365
1697,1194.133
1698,1183.138
1699,1181.690
1700,1211.733
1701,1202.187
1702,1197.073
1703,1243.949
1704,1209.517
1705,1240.284
1706,1265.938
1707,1244.673
1708,1301.094
1709,1273.992
1710,1326.748
1711,1325.257
1712,1309.873
1713,1332.586
1714,1348.737
1715,1369.234
1716,1391.223
1717,1399.277
1718,1403.667
1719,1396.337
1720,1405.115
1721,1421.991
1722,1461.536
1723,1439.548
1724,1451.266
1725,1456.423
1726,1464.477
1727,1498.909
1728,1472.531
1729,1470.315
1730,1503.298
1731,1477.645
1732,1482.801
1733,1500.358
1734,1495.969
1735,1486.466
1736,1471.806
1737,1496.693
1738,1493.028
1739,1468.866
1740,1487.915
1741,1476.196
1742,1460.088
1743,1434.434
1744,1450.542
1745,1435.158
1746,1414.661
1747,1428.553
1748,1400.002
1749,1398.553
1750,1424.164
1751,1417.601
1752,1386.067
1753,1379.504
1754,1393.397
1755,1356.791
1756,1388.283
1757,1362.629
1758,1345.072
1759,1350.186
1760,1342.132
1761,1331.137
1762,1331.137
1763,1335.527
1764,1329.688
1765,1319.418
1766,1325.257
1767,1331.137
1768,1319.418
1769,1317.202
1770,1320.143
1771,1315.754
1772,1312.813
1773,1313.538
1774,1319.418
1775,1318.694
1776,1323.808
1777,1336.975
1778,1361.180
1779,1339.916
1780,1331.862
1781,1361.905
1782,1337.742
1783,1329.688
1784,1345.072
1785,1345.072
1786,1364.845
1787,1361.180
1788,1349.461
1789,1350.910
1790,1339.191
1791,1310.640
1792,1308.424
1793,1307.700
1794,1315.029
1795,1342.132
1796,1353.851
1797,1316.478
1798,1319.418
1799,1342.856
1800,1336.251
1801,1334.078
1802,1348.737
1803,1345.072
1804,1337.742
1805,1345.072
1806,1384.618
1807,1361.180
1808,1361.180
1809,1400.726
1810,1383.169
1811,1362.629
1812,1393.397
1813,1389.007
1814,1355.299
1815,1384.618
1816,1355.299
1817,1346.521
1818,1358.240
1819,1353.126
1820,1323.083
1821,1318.694
1822,1345.797
1823,1331.862
1824,1315.029
1825,1281.321
1826,1282.046
1827,1279.872
1828,1267.387
1829,1219.062
1830,1220.511
1831,1230.057
1832,1191.193
1833,1180.241
1834,1186.803
1835,1132.598
1836,1152.371
1837,1116.490
1838,1096.717
1839,1093.052
1840,1100.382
1841,1082.782
1842,1068.123
1843,1052.015
1844,1027.086
1845,1013.918
1846,967.042
1847,955.323
1848,984.599
1849,935.550
1850,946.502
1851,953.832
1852,916.502
1853,953.832
1854,915.735
1855,945.053
1856,932.610
1857,939.940
1858,931.886
1859,961.161
1860,989.756
1861,1002.199
1862,1014.642
1863,1030.750
1864,1032.966
1865,1028.577
1866,1074.728
1867,1086.447
1868,1132.598
1869,1109.885
1870,1151.647
1871,1194.857
1872,1176.576
1873,1191.193
1874,1247.614
1875,1250.554
1876,1249.105
1877,1276.932
1878,1299.645
1879,1271.776
1880,1287.160
1881,1306.208
1882,1306.975
1883,1285.711
1884,1304.759
1885,1317.202
1886,1313.538
1887,1311.364
1888,1300.370
1889,1282.046
1890,1247.614
1891,1238.111
1892,1251.278
1893,1249.105
1894,1223.451
1895,1248.338
1896,1206.576
1897,1202.187
1898,1210.241
1899,1227.116
1900,1243.949
1901,1234.446
1902,1206.576
1903,1214.673
1904,1213.906
1905,1219.062
1906,1241.008
1907,1252.003
1908,1252.727
1909,1266.662
1910,1262.273
1911,1271.051
1912,1275.441
1913,1287.160
1914,1295.981
1915,1331.137
1916,1335.527
1917,1348.737
1918,1352.402
1919,1356.791
1920,1344.305
1921,1369.234
1922,1401.451
1923,1374.348
1924,1385.342
1925,1420.499
1926,1411.721
1927,1410.996
1928,1412.445
1929,1419.050
1930,1415.385
1931,1419.050
1932,1449.093
1933,1414.661
1934,1452.034
1935,1413.169
1936,1434.434
1937,1448.369
1938,1412.445
1939,1443.212
1940,1429.320
1941,1453.482
1942,1419.050
1943,1425.655
1944,1445.428
1945,1416.110
1946,1457.147
1947,1419.775
1948,1433.709
1949,1442.488
1950,1476.196
1951,1468.866
1952,1458.596
1953,1479.136
1954,1484.250
1955,1493.028
1956,1500.358
1957,1509.136
1958,1531.125
1959,1537.731
1960,1563.384
1961,1594.152
1962,1611.709
1963,1628.584
1964,1608.044
1965,1652.746
1966,1652.746
1967,1659.351
1968,1695.232
1969,1709.892
1970,1701.838
1971,1723.059
1972,1715.005
1973,1730.389
1974,1746.540
1975,1734.778
1976,1753.102
1977,1734.778
1978,1748.713
1979,1739.210
1980,1753.102
1981,1716.497
1982,1740.659
1983,1703.286
1984,1715.730
1985,1716.497
1986,1701.113
1987,1679.849
1988,1662.292
1989,1669.579
1990,1666.681
1991,1676.908
1992,1654.962
1993,1630.033
1994,1627.092
1995,1627.092
1996,1637.362
1997,1644.692
1998,1627.859
1999,1646.141
2000,1635.146
2001,1621.979
2002,1619.763
2003,1615.373
2004,1616.865
2005,1626.368
2006,1636.638
2007,1613.200
2008,1596.325
2009,1595.601
2010,1569.947
2011,1561.168
2012,1528.185
2013,1520.898
2014,1520.131
2015,1501.849
2016,1506.239
2017,1446.877
2018,1473.255
2019,1449.093
2020,1426.380
2021,1391.223
2022,1420.499
2023,1392.672
2024,1390.456
2025,1396.337
2026,1383.894
2027,1355.299
2028,1335.527
2029,1331.862
2030,1325.257
2031,1320.143
2032,1315.754
2033,1324.532
2034,1311.364
2035,1311.364
2036,1340.640
2037,1350.186
2038,1328.921
2039,1320.143
2040,1359.689
2041,1358.240
2042,1343.581
2043,1356.024
2044,1351.635
2045,1382.402
2046,1409.505
2047,1402.942
2048,1390.456
2049,1430.045
2050,1423.439
2051,1415.385
2052,1449.093
2053,1434.434
2054,1449.818
2055,1449.093
2056,1428.553
2057,1471.806
2058,1449.818
2059,1430.045
2060,1443.937
2061,1435.883
2062,1438.823
2063,1415.385
2064,1449.093
2065,1410.996
2066,1410.996
2067,1425.655
2068,1426.380
2069,1412.445
2070,1386.067
2071,1418.326
2072,1416.110
2073,1385.342
2074,1358.240
2075,1354.575
2076,1353.851
2077,1361.180
2078,1342.132
2079,1320.143
2080,1313.538
2081,1305.484
2082,1310.640
2083,1328.197
2084,1317.202
2085,1321.592
2086,1287.927
2087,1272.543
2088,1282.770
2089,1306.975
2090,1321.592
2091,1324.532
2092,1334.078
2093,1336.975
2094,1347.970
2095,1331.137
2096,1332.586
2097,1363.354
2098,1377.288
2099,1349.461
2100,1374.348
2101,1372.899
2102,1409.505
2103,1391.223
2104,1386.067
2105,1424.888
2106,1394.121
2107,1430.045
2108,1425.655
2109,1407.331
2110,1428.553
2111,1413.937
2112,1435.883
2113,1446.877
2114,1435.883
2115,1458.596
2116,1441.764
2117,1450.542
2118,1483.525
2119,1460.812
2120,1488.639
2121,1493.028
2122,1476.920
2123,1493.753
2124,1517.958
2125,1495.969
2126,1506.963
2127,1534.790
2128,1503.298
2129,1515.742
2130,1524.563
2131,1501.082
2132,1535.515
2133,1500.358
2134,1506.239
2135,1503.298
2136,1493.753
2137,1516.466
2138,1476.196
2139,1506.239
2140,1479.136
2141,1478.369
2142,1473.255
2143,1462.985
2144,1495.969
2145,1460.812
2146,1472.531
2147,1492.304
2148,1457.147
2149,1457.872
2150,1463.752
2151,1504.023
2152,1471.082
2153,1514.293
2154,1499.634
2155,1517.958
2156,1540.671
2157,1535.515
2158,1516.466
2159,1531.125
2160,1541.395
2161,1553.839
2162,1558.995
2163,1572.887
2164,1579.492
2165,1583.157
2166,1597.816
2167,1613.200
2168,1600.714
2169,1600.714
2170,1597.049
2171,1616.865
2172,1612.433
2173,1597.049
2174,1599.990
2175,1580.217
2176,1589.762
2177,1583.157
2178,1597.049
2179,1561.168
2180,1564.109
2181,1539.179
2182,1557.503
2183,1517.233
2184,1545.785
2185,1507.688
2186,1512.077
2187,1501.849
2188,1495.969
2189,1472.531
2190,1490.855
2191,1457.872
2192,1454.931
2193,1471.806
2194,1469.591
2195,1461.536
2196,1452.758
2197,1436.650
2198,1431.494
2199,1381.678
2200,1407.331
2201,1376.564
2202,1368.510
2203,1347.245
2204,1341.407
2205,1361.905
2206,1362.629
2207,1360.456
2208,1353.126
2209,1329.688
2210,1300.370
2211,1297.430
2212,1294.489
2213,1297.430
2214,1294.489
2215,1325.257
2216,1328.197
2217,1287.927
2218,1306.975
2219,1325.257
2220,1316.478
2221,1317.970
2222,1287.160
2223,1277.657
2224,1271.051
2225,1268.878
2226,1276.208
2227,1285.711
2228,1294.489
2229,1263.722
2230,1264.489
2231,1273.267
2232,1260.057
2233,1265.938
2234,1270.327
2235,1238.111
2236,1247.614
2237,1279.105
2238,1241.775
2239,1241.008
2240,1241.775
2241,1243.224
2242,1251.278
2243,1247.614
2244,1249.830
2245,1287.927
2246,1296.705
2247,1304.759
2248,1295.981
2249,1317.202
2250,1282.770
2251,1293.040
2252,1303.310
2253,1317.202
2254,1328.921
2255,1361.905
2256,1386.834
2257,1378.013
2258,1419.050
2259,1402.942
2260,1430.769
2261,1422.715
2262,1464.477
2263,1436.650
2264,1481.309
2265,1449.093
2266,1490.131
2267,1490.131
2268,1476.196
2269,1481.309
2270,1451.266
2271,1449.093
2272,1464.477
2273,1460.088
2274,1471.806
2275,1432.218
2276,1434.434
2277,1454.207
2278,1408.780
2279,1443.212
2280,1405.840
2281,1397.786
2282,1420.499
2283,1380.953
2284,1405.840
2285,1380.229
2286,1388.283
2287,1371.408
2288,1391.948
2289,1386.067
2290,1374.348
2291,1353.851
2292,1392.672
2293,1363.354
2294,1356.024
2295,1358.964
2296,1355.299
2297,1360.456
2298,1359.689
2299,1396.337
2300,1398.553
2301,1389.007
2302,1375.839
2303,1365.569
2304,1405.115
2305,1412.445
2306,1414.661
2307,1386.067
2308,1390.456
2309,1410.996
2310,1398.553
2311,1421.991
2312,1413.169
2313,1399.277
2314,1416.110
2315,1404.391
2316,1446.153
2317,1416.834
2318,1408.780
2319,1431.494
2320,1431.494
2321,1432.218
2322,1417.601
2323,1413.169
2324,1424.888
2325,1426.380
2326,1450.542
2327,1426.380
2328,1417.601
2329,1448.369
2330,1421.266
2331,1419.775
2332,1454.207
2333,1438.823
2334,1419.775
2335,1437.374
2336,1429.320
2337,1473.255
2338,1454.931
2339,1466.650
2340,1489.364
2341,1456.423
2342,1500.358
2343,1472.531
2344,1509.136
2345,1472.531
2346,1512.077
2347,1483.525
2348,1507.688
2349,1481.309
2350,1488.639
2351,1465.201
2352,1500.358
2353,1463.752
2354,1469.591
2355,1464.477
2356,1493.753
2357,1471.806
2358,1492.304
2359,1487.190
2360,1484.250
2361,1484.974
2362,1480.585
2363,1480.585
2364,1487.190
2365,1504.023
2366,1468.142
2367,1476.196
2368,1482.034
2369,1502.574
2370,1468.142
2371,1449.818
2372,1452.034
2373,1441.039
2374,1424.888
2375,1416.110
2376,1413.169
2377,1431.494
2378,1430.769
2379,1413.937
2380,1389.007
2381,1378.013
2382,1368.510
2383,1371.408
2384,1373.624
2385,1378.013
2386,1380.229
2387,1386.067
2388,1405.115
2389,1411.721
2390,1413.169
2391,1405.840
2392,1433.709
2393,1430.045
2394,1458.596
2395,1443.212
2396,1438.823
2397,1478.369
2398,1449.093
2399,1484.250
2400,1452.034
2401,1448.369
2402,1476.920
2403,1457.872
2404,1428.553
2405,1463.752
2406,1433.709
2407,1420.499
2408,1443.937
2409,1408.056
2410,1416.110
2411,1414.661
2412,1396.337
2413,1395.612
2414,1394.888
2415,1391.223
2416,1415.385
2417,1400.726
2418,1380.953
2419,1415.385
2420,1391.948
2421,1385.342
2422,1427.829
2423,1399.277
2424,1394.888
2425,1428.553
2426,1398.553
2427,1441.764
2428,1416.834
2429,1408.780
2430,1411.721
2431,1446.153
2432,1441.764
2433,1423.439
2434,1421.266
2435,1417.601
2436,1426.380
2437,1426.380
2438,1430.045
2439,1424.164
2440,1463.752
2441,1442.488
2442,1432.218
2443,1465.926
2444,1434.434
2445,1430.769
2446,1418.326
2447,1450.542
2448,1446.877
2449,1415.385
2450,1416.110
2451,1446.877
2452,1419.775
2453,1413.937
2454,1400.002
2455,1382.402
2456,1405.840
2457,1400.002
2458,1364.845
2459,1391.948
2460,1360.456
2461,1352.402
2462,1340.640
2463,1325.257
2464,1328.921
2465,1333.353
2466,1283.537
2467,1306.975
2468,1258.608
2469,1277.657
2470,1231.505
2471,1246.889
2472,1205.127
2473,1234.446
2474,1221.235
2475,1201.463
2476,1170.695
2477,1152.371
2478,1145.041
2479,1126.760
2480,1123.820
2481,1136.987
2482,1124.544
2483,1095.226
2484,1087.896
2485,1123.820
2486,1134.047
2487,1113.550
2488,1104.047
2489,1104.771
2490,1136.987
2491,1155.311
2492,1138.479
2493,1191.960
2494,1176.576
2495,1221.235
2496,1190.468
2497,1205.127
2498,1238.111
2499,1265.938
2500,1278.381
2501,1288.651
2502,1308.424
2503,1317.970
2504,1325.257
2505,1334.802
2506,1306.208
2507,1311.364
2508,1315.754
2509,1364.121
2510,1372.899
2511,1378.737
2512,1367.018
2513,1352.402
2514,1375.839
2515,1381.678
2516,1408.056
2517,1411.721
2518,1402.942
2519,1390.456
2520,1403.667
2521,1411.721
2522,1410.272
2523,1425.655
2524,1430.769
2525,1443.212
2526,1457.872
2527,1454.207
2528,1460.812
2529,1495.969
2530,1496.693
2531,1493.753
2532,1475.471
2533,1490.131
2534,1508.412
2535,1482.801
2536,1506.239
2537,1523.796
2538,1520.131
2539,1506.963
2540,1537.006
2541,1502.574
2542,1539.179
2543,1509.904
2544,1540.671
2545,1510.628
2546,1539.946
2547,1523.796
2548,1539.179
2549,1508.412
2550,1512.077
2551,1532.617
2552,1505.514
2553,1502.574
2554,1480.585
2555,1482.801
2556,1495.244
2557,1484.974
2558,1442.488
2559,1444.704
2560,1457.872
2561,1424.164
2562,1412.445
2563,1398.553
2564,1393.397
2565,1397.061
2566,1376.564
2567,1409.505
2568,1413.937
2569,1395.612
2570,1380.953
2571,1386.834
2572,1413.937
2573,1410.996
2574,1397.061
2575,1403.667
2576,1399.277
2577,1402.218
2578,1406.607
2579,1410.272
2580,1421.991
2581,1438.099
2582,1413.169
2583,1426.380
2584,1419.775
2585,1443.937
2586,1454.207
2587,1439.548
2588,1420.499
2589,1408.780
2590,1407.331
2591,1405.115
2592,1432.218
2593,1394.888
2594,1394.121
2595,1369.959
2596,1365.569
2597,1375.839
2598,1347.970
2599,1368.510
2600,1345.072
2601,1321.592
2602,1326.748
2603,1330.413
2604,1281.321
2605,1314.305
2606,1268.111
2607,1289.375
2608,1248.338
2609,1230.781
2610,1260.057
2611,1236.619
2612,1214.673
2613,1202.187
2614,1232.230
2615,1203.678
2616,1216.122
2617,1236.619
2618,1213.906
2619,1205.127
2620,1240.284
2621,1224.176
2622,1227.116
2623,1271.051
2624,1263.722
2625,1266.662
2626,1273.992
2627,1301.819
2628,1320.143
2629,1332.586
2630,1349.461
2631,1364.845
2632,1398.553
2633,1409.505
2634,1472.531
2635,1458.596
2636,1509.904
2637,1509.904
2638,1524.563
2639,1569.222
2640,1561.168
2641,1591.211
2642,1626.368
2643,1643.243
2644,1619.038
2645,1648.357
2646,1642.476
2647,1652.746
2648,1659.351
2649,1655.686
2650,1639.578
2651,1646.141
2652,1632.249
2653,1627.859
2654,1627.092
2655,1621.979
2656,1593.427
2657,1577.276
2658,1592.660
2659,1545.060
2660,1561.168
2661,1524.563
2662,1516.466
2663,1498.185
2664,1474.704
2665,1464.477
2666,1464.477
2667,1446.877
2668,1434.434
2669,1432.218
2670,1437.374
2671,1451.266
2672,1429.320
2673,1408.780
2674,1401.451
2675,1416.834
2676,1423.439
2677,1396.337
2678,1393.397
2679,1393.397
2680,1420.499
2681,1397.061
2682,1392.672
2683,1416.834
2684,1410.272
2685,1416.110
2686,1442.488
2687,1410.996
2688,1427.829
2689,1438.823
2690,1458.596
2691,1423.439
2692,1441.764
2693,1425.655
2694,1438.823
2695,1438.823
2696,1413.169
2697,1446.153
2698,1402.218
2699,1415.385
2700,1394.121
2701,1422.715
2702,1391.948
2703,1380.953
2704,1378.013
2705,1386.067
2706,1389.732
2707,1369.234
2708,1359.689
2709,1359.689
2710,1378.737
2711,1363.354
2712,1357.515
2713,1344.305
2714,1370.683
2715,1362.629
2716,1321.592
2717,1322.359
2718,1317.970
2719,1336.975
2720,1350.910
2721,1335.527
2722,1326.024
2723,1318.694
2724,1322.359
2725,1326.024
2726,1353.126
2727,1356.024
2728,1375.072
2729,1384.618
2730,1369.959
2731,1366.294
2732,1395.612
2733,1379.504
2734,1362.629
2735,1384.618
2736,1373.624
2737,1387.558
2738,1374.348
2739,1363.354
2740,1357.515
2741,1353.851
2742,1352.402
2743,1350.910
2744,1363.354
2745,1366.294
2746,1358.964
2747,1353.851
2748,1375.839
2749,1331.862
2750,1349.461
2751,1363.354
2752,1333.353
2753,1331.137
2754,1350.910
2755,1372.175
2756,1341.407
2757,1345.797
2758,1385.342
2759,1393.397
2760,1364.121
2761,1378.013
2762,1406.607
2763,1394.888
2764,1416.110
2765,1378.737
2766,1398.553
2767,1408.780
2768,1386.067
2769,1379.504
2770,1378.737
2771,1376.564
2772,1378.737
2773,1382.402
2774,1416.110
2775,1415.385
2776,1378.737
2777,1369.959
2778,1403.667
2779,1405.840
2780,1408.780
2781,1378.737
2782,1394.888
2783,1414.661
2784,1372.899
2785,1416.834
2786,1405.115
2787,1375.839
2788,1409.505
2789,1375.839
2790,1383.169
2791,1394.888
2792,1354.575
2793,1391.223
2794,1378.737
2795,1355.299
2796,1380.953
2797,1369.234
2798,1336.975
2799,1378.013
2800,1344.305
2801,1357.515
2802,1347.245
2803,1363.354
2804,1351.635
2805,1387.558
2806,1350.910
2807,1364.845
2808,1405.840
2809,1373.624
2810,1385.342
2811,1399.277
2812,1402.942
2813,1408.056
2814,1386.067
2815,1414.661
2816,1413.937
2817,1386.067
2818,1405.115
2819,1386.067
2820,1413.937
2821,1390.456
2822,1385.342
2823,1424.164
2824,1405.115
2825,1391.948
2826,1399.277
2827,1415.385
2828,1408.780
2829,1378.013
2830,1372.899
2831,1388.283
2832,1413.169
2833,1409.505
2834,1367.018
2835,1372.899
2836,1389.007
2837,1361.180
2838,1368.510
2839,1358.964
2840,1323.808
2841,1345.797
2842,1306.975
2843,1312.089
2844,1311.364
2845,1288.651
2846,1271.051
2847,1286.435
2848,1252.727
2849,1284.262
2850,1237.344
2851,1267.387
2852,1243.949
2853,1237.344
2854,1220.511
2855,1199.247
2856,1189.019
2857,1193.408
2858,1178.749
2859,1181.690
2860,1195.624
2861,1211.733
2862,1191.960
2863,1175.084
2864,1220.511
2865,1186.079
2866,1205.852
2867,1232.230
2868,1225.625
2869,1217.571
2870,1213.181
2871,1219.787
2872,1229.290
2873,1258.608
2874,1286.435
2875,1257.159
2876,1303.310
2877,1288.651
2878,1325.257
2879,1301.819
2880,1333.353
2881,1344.305
2882,1328.197
2883,1336.251
2884,1347.245
2885,1350.910
2886,1372.175
2887,1385.342
2888,1390.456
2889,1381.678
2890,1388.283
2891,1394.888
2892,1403.667
2893,1408.056
2894,1410.996
2895,1412.445
2896,1425.655
2897,1463.752
2898,1465.926
2899,1442.488
2900,1433.709
2901,1441.039
2902,1473.980
2903,1476.196
2904,1445.428
2905,1476.920
2906,1451.266
2907,1490.855
2908,1495.244
2909,1504.023
2910,1509.136
2911,1487.915
2912,1479.861
2913,1526.012
2914,1489.364
2915,1527.461
2916,1530.401
2917,1503.298
2918,1525.287
2919,1540.671
2920,1531.125
2921,1514.293
2922,1528.952
2923,1533.341
2924,1509.136
2925,1530.401
2926,1517.233
2927,1526.736
2928,1543.569
2929,1535.515
2930,1507.688
2931,1537.731
2932,1507.688
2933,1509.904
2934,1534.066
2935,1506.239
2936,1484.974
2937,1518.682
2938,1509.136
2939,1490.855
2940,1471.082
2941,1505.514
2942,1501.082
2943,1499.634
2944,1478.369
2945,1468.866
2946,1447.602
2947,1445.428
2948,1436.650
2949,1438.099
2950,1432.985
2951,1429.320
2952,1419.775
2953,1413.937
2954,1419.775
2955,1416.110
2956,1404.391
2957,1405.840
2958,1409.505
2959,1399.277
2960,1430.045
2961,1434.434
2962,1421.266
2963,1403.667
2964,1408.056
2965,1390.456
2966,1390.456
2967,1375.839
2968,1378.737
2969,1369.959
2970,1367.785
2971,1362.629
2972,1379.504
2973,1357.515
2974,1374.348
2975,1384.618
2976,1328.921
2977,1320.143
2978,1316.478
2979,1323.083
2980,1285.711
2981,1257.884
2982,1280.597
2983,1232.954
2984,1226.392
2985,1213.181
2986,1207.343
2987,1174.360
2988,1191.193
2989,1194.857
2990,1173.635
2991,1145.808
2992,1147.257
2993,1180.965
2994,1161.192
2995,1146.533
2996,1189.744
2997,1178.025
2998,1168.479
2999,1167.030
3000,1215.397
3001,1205.127
3002,1220.511
3003,1211.733
3004,1248.338
3005,1265.938
3006,1247.614
3007,1291.591
3008,1323.808
3009,1328.197
3010,1318.694
3011,1350.186
3012,1380.229
3013,1383.169
3014,1394.121
3015,1422.715
3016,1421.991
3017,1439.548
3018,1479.861
3019,1477.645
3020,1475.471
3021,1489.364
3022,1476.196
3023,1500.358
3024,1485.699
3025,1520.898
3026,1495.244
3027,1498.185
3028,1490.855
3029,1508.412
3030,1466.650
3031,1476.920
3032,1454.931
3033,1457.872
3034,1452.758
3035,1424.888
3036,1397.786
3037,1381.678
3038,1391.948
3039,1366.294
3040,1341.407
3041,1347.970
3042,1324.532
3043,1323.808
3044,1342.856
3045,1312.089
3046,1326.748
3047,1338.467
3048,1306.975
3049,1336.975
3050,1350.186
3051,1350.910
3052,1324.532
3053,1339.191
3054,1360.456
3055,1370.683
3056,1419.775
3057,1431.494
3058,1422.715
3059,1429.320
3060,1476.920
3061,1457.872
3062,1502.574
3063,1477.645
3064,1490.131
3065,1497.418
3066,1515.742
3067,1542.120
3068,1534.066
3069,1524.563
3070,1528.952
3071,1521.622
3072,1522.347
3073,1526.012
3074,1529.676
3075,1531.125
3076,1540.671
3077,1522.347
3078,1520.131
3079,1546.509
3080,1520.898
3081,1515.742
3082,1539.179
3083,1544.336
3084,1520.898
3085,1503.298
3086,1504.023
3087,1520.131
3088,1490.131
3089,1479.136
3090,1484.974
3091,1478.369
3092,1493.753
3093,1468.866
3094,1453.482
3095,1441.039
3096,1455.698
3097,1423.439
3098,1446.877
3099,1428.553
3100,1413.937
3101,1411.721
3102,1406.607
3103,1398.553
3104,1412.445
3105,1417.601
3106,1393.397
3107,1400.002
3108,1421.266
3109,1433.709
3110,1416.834
3111,1398.553
3112,1436.650
3113,1443.937
3114,1446.877
3115,1447.602
3116,1421.266
3117,1423.439
3118,1457.872
3119,1421.266
3120,1452.034
3121,1441.039
3122,1439.548
3123,1470.315
3124,1462.261
3125,1438.823
3126,1471.806
3127,1444.704
3128,1457.147
3129,1473.980
3130,1457.872
3131,1473.255
3132,1493.028
3133,1471.806
3134,1501.082
3135,1486.466
3136,1501.082
3137,1539.946
3138,1518.682
3139,1523.071
3140,1560.444
3141,1532.617
3142,1561.893
3143,1570.714
3144,1546.509
3145,1562.617
3146,1565.558
3147,1580.941
3148,1560.444
3149,1545.785
3150,1561.893
3151,1567.049
3152,1527.461
3153,1550.174
3154,1507.688
3155,1526.012
3156,1484.250
3157,1466.650
3158,1471.806
3159,1476.920
3160,1440.272
3161,1432.218
3162,1425.655
3163,1418.326
3164,1381.678
3165,1376.564
3166,1364.845
3167,1352.402
3168,1349.461
3169,1356.791
3170,1378.737
3171,1348.737
3172,1331.862
3173,1328.921
3174,1321.592
3175,1353.126
3176,1366.294
3177,1357.515
3178,1346.521
3179,1333.353
3180,1356.024
3181,1345.072
3182,1364.121
3183,1380.229
3184,1385.342
3185,1367.785
3186,1357.515
3187,1400.726
3188,1400.726
3189,1393.397
3190,1401.451
3191,1394.888
3192,1401.451
3193,1406.607
3194,1408.056
3195,1409.505
3196,1410.996
3197,1394.888
3198,1381.678
3199,1396.337
3200,1386.067
3201,1393.397
3202,1390.456
3203,1397.061
3204,1428.553
3205,1419.775
3206,1419.050
3207,1416.110
3208,1415.385
3209,1414.661
3210,1421.266
3211,1419.775
3212,1413.937
3213,1427.829
3214,1409.505
3215,1413.169
3216,1411.721
3217,1454.207
3218,1454.207
3219,1450.542
3220,1427.104
3221,1425.655
3222,1400.002
3223,1389.007
3224,1380.953
3225,1380.229
3226,1361.905
3227,1357.515
3228,1347.245
3229,1360.456
3230,1318.694
3231,1323.083
3232,1283.537
3233,1290.824
3234,1274.716
3235,1235.895
3236,1266.662
3237,1227.116
3238,1252.003
3239,1221.235
3240,1206.576
3241,1223.451
3242,1243.949
3243,1200.014
3244,1243.949
3245,1221.960
3246,1219.787
3247,1238.111
3248,1241.775
3249,1227.116
3250,1262.997
3251,1276.208
3252,1259.332
3253,1293.765
3254,1326.024
3255,1339.191
3256,1324.532
3257,1331.862
3258,1350.910
3259,1401.451
3260,1386.834
3261,1408.056
3262,1435.158
3263,1428.553
3264,1452.034
3265,1451.266
3266,1460.812
3267,1496.693
3268,1479.136
3269,1497.418
3270,1519.406
3271,1500.358
3272,1509.136
3273,1528.185
3274,1518.682
3275,1507.688
3276,1513.568
3277,1532.617
3278,1501.849
3279,1519.406
3280,1523.796
3281,1495.244
3282,1504.023
3283,1521.622
3284,1491.579
3285,1512.801
3286,1484.974
3287,1523.071
3288,1495.244
3289,1512.801
3290,1484.250
3291,1517.233
3292,1484.250
3293,1506.239
3294,1506.239
3295,1472.531
3296,1501.082
3297,1468.142
3298,1512.801
3299,1499.634
3300,1482.801
3301,1500.358
3302,1464.477
3303,1453.482
3304,1468.142
3305,1458.596
3306,1427.829
3307,1435.883
3308,1443.937
3309,1414.661
3310,1421.266
3311,1413.937
3312,1413.937
3313,1411.721
3314,1388.283
3315,1358.964
3316,1351.635
3317,1359.689
3318,1374.348
3319,1365.569
3320,1369.234
3321,1328.921
3322,1325.257
3323,1318.694
3324,1328.921
3325,1353.851
3326,1314.305
3327,1312.813
3328,1342.132
3329,1342.856
3330,1324.532
3331,1356.791
3332,1319.418
3333,1342.132
3334,1357.515
3335,1327.472
3336,1337.742
3337,1358.964
3338,1371.408
3339,1361.905
3340,1369.959
3341,1367.785
3342,1329.688
3343,1328.197
3344,1327.472
3345,1329.688
3346,1326.024
3347,1350.910
3348,1323.808
3349,1350.910
3350,1343.581
3351,1325.257
3352,1318.694
3353,1345.072
3354,1324.532
3355,1302.543
3356,1312.089
3357,1325.257
3358,1281.321
3359,1288.651
3360,1304.759
3361,1267.387
3362,1257.884
3363,1287.927
3364,1260.824
3365,1230.057
3366,1265.938
3367,1227.841
3368,1218.295
3369,1205.127
3370,1221.235
3371,1202.187
3372,1200.738
3373,1200.738
3374,1211.733
3375,1223.451
3376,1213.906
3377,1221.235
3378,1247.614
3379,1243.949
3380,1214.673
3381,1255.668
3382,1247.614
3383,1237.344
3384,1247.614
3385,1282.770
3386,1297.430
3387,1309.873
3388,1296.705
3389,1290.100
3390,1337.742
3391,1312.089
3392,1334.802
3393,1347.245
3394,1369.959
3395,1395.612
3396,1406.607
3397,1411.721
3398,1421.266
3399,1419.775
3400,1433.709
3401,1410.996
3402,1416.834
3403,1435.158
3404,1456.423
3405,1430.769
3406,1464.477
3407,1470.315
3408,1453.482
3409,1468.866
3410,1443.937
3411,1438.823
3412,1452.758
3413,1428.553
3414,1409.505
3415,1403.667
3416,1400.002
3417,1393.397
3418,1388.283
3419,1401.451
3420,1415.385
3421,1396.337
3422,1367.018
3423,1383.894
3424,1387.558
3425,1391.948
3426,1397.786
3427,1407.331
3428,1388.283
3429,1375.072
3430,1416.834
3431,1424.164
3432,1413.169
3433,1416.110
3434,1395.612
3435,1402.218
3436,1414.661
3437,1414.661
3438,1427.104
3439,1436.650
3440,1438.099
3441,1455.698
3442,1443.937
3443,1475.471
3444,1449.093
3445,1490.131
3446,1472.531
3447,1465.926
3448,1471.082
3449,1487.915
3450,1468.142
3451,1497.418
3452,1465.201
3453,1501.082
3454,1457.872
3455,1479.861
3456,1490.855
3457,1450.542
3458,1477.645
3459,1446.153
3460,1444.704
3461,1450.542
3462,1435.883
3463,1459.321
3464,1435.158
3465,1411.721
3466,1432.985
3467,1416.834
3468,1397.786
3469,1398.553
3470,1432.218
3471,1421.266
3472,1392.672
3473,1389.732
3474,1427.104
3475,1410.996
3476,1391.223
3477,1386.067
3478,1391.223
3479,1386.834
3480,1392.672
3481,1389.732
3482,1398.553
3483,1410.272
3484,1405.840
3485,1426.380
3486,1417.601
3487,1410.272
3488,1406.607
3489,1405.115
3490,1408.056
3491,1417.601
3492,1407.331
3493,1399.277
3494,1389.007
3495,1386.067
3496,1383.169
3497,1394.121
3498,1393.397
3499,1361.180
3500,1364.121
3501,1373.624
3502,1321.592
3503,1320.143
3504,1334.802
3505,1325.257
3506,1298.921
3507,1333.353
3508,1294.489
3509,1326.024
3510,1313.538
3511,1326.748
3512,1333.353
3513,1339.191
3514,1351.635
3515,1361.180
3516,1380.229
3517,1400.002
3518,1432.985
3519,1445.428
3520,1462.261
3521,1489.364
3522,1525.287
3523,1544.336
3524,1544.336
3525,1567.773
3526,1593.427
3527,1615.373
3528,1586.822
3529,1612.433
3530,1609.535
3531,1608.044
3532,1630.033
3533,1602.206
3534,1590.487
3535,1624.919
3536,1586.822
3537,1575.103
3538,1566.282
3539,1563.384
3540,1569.947
3541,1562.617
3542,1518.682
3543,1517.958
3544,1515.742
3545,1488.639
3546,1485.699
3547,1462.261
3548,1444.704
3549,1434.434
3550,1434.434
3551,1427.104
3552,1410.996
3553,1413.937
3554,1401.451
3555,1360.456
3556,1364.845
3557,1392.672
3558,1352.402
3559,1360.456
3560,1363.354
3561,1349.461
3562,1375.839
3563,1363.354
3564,1350.186
3565,1389.732
3566,1364.845
3567,1375.072
3568,1392.672
3569,1350.186
3570,1351.635
3571,1368.510
3572,1397.786
3573,1381.678
3574,1374.348
3575,1365.569
3576,1383.894
3577,1373.624
3578,1364.121
3579,1374.348
3580,1374.348
3581,1384.618
3582,1389.732
3583,1372.899
3584,1385.342
3585,1380.229
3586,1380.229
3587,1415.385
3588,1390.456
3589,1378.737
3590,1369.959
3591,1397.061
3592,1407.331
3593,1372.175
3594,1382.402
3595,1382.402
3596,1350.910
3597,1353.851
3598,1367.018
3599,1366.294
3600,1356.024
3601,1342.856
3602,1329.688
3603,1304.759
3604,1269.602
3605,1242.500
3606,1245.440
3607,1237.344
3608,1201.463
3609,1190.468
3610,1221.235
3611,1163.365
3612,1175.084
3613,1191.193
3614,1174.360
3615,1136.987
3616,1142.868
3617,1170.695
3618,1128.209
3619,1162.641
3620,1159.701
3621,1142.144
3622,1135.538
3623,1175.084
3624,1161.192
3625,1145.808
3626,1190.468
3627,1191.193
3628,1176.576
3629,1230.781
3630,1213.906
3631,1253.494
3632,1225.625
3633,1255.668
3634,1268.878
3635,1262.273
3636,1283.537
3637,1295.256
3638,1320.143
3639,1326.748
3640,1330.413
3641,1354.575
3642,1356.024
3643,1358.240
3644,1386.067
3645,1383.169
3646,1402.942
3647,1426.380
3648,1413.937
3649,1412.445
3650,1429.320
3651,1439.548
3652,1429.320
3653,1438.823
3654,1461.536
3655,1462.261
3656,1449.093
3657,1438.099
3658,1474.704
3659,1441.039
3660,1439.548
3661,1465.926
3662,1444.704
3663,1462.985
3664,1456.423
3665,1454.931
3666,1460.088
3667,1459.321
3668,1459.321
3669,1465.926
3670,1491.579
3671,1461.536
3672,1494.520
3673,1463.752
3674,1498.185
3675,1493.028
3676,1473.255
3677,1487.190
3678,1511.352
3679,1480.585
3680,1491.579
3681,1508.412
3682,1479.136
3683,1506.239
3684,1496.693
3685,1495.244
3686,1469.591
3687,1490.131
3688,1491.579
3689,1454.207
3690,1491.579
3691,1449.818
3692,1481.309
3693,1443.937
3694,1441.764
3695,1449.093
3696,1448.369
3697,1433.709
3698,1469.591
3699,1467.417
3700,1462.985
3701,1445.428
3702,1463.752
3703,1469.591
3704,1468.866
3705,1499.634
3706,1466.650
3707,1491.579
3708,1482.801
3709,1474.704
3710,1488.639
3711,1484.250
3712,1458.596
3713,1447.602
3714,1468.866
3715,1444.704
3716,1415.385
3717,1441.764
3718,1402.942
3719,1419.775
3720,1418.326
3721,1408.780
3722,1396.337
3723,1373.624
3724,1358.964
3725,1343.581
3726,1336.251
3727,1319.418
3728,1309.873
3729,1304.759
3730,1298.154
3731,1285.711
3732,1284.986
3733,1278.381
3734,1276.208
3735,1279.872
3736,1287.160
3737,1298.921
3738,1298.154
3739,1292.316
3740,1286.435
3741,1291.591
3742,1294.489
3743,1284.986
3744,1281.321
3745,1288.651
3746,1314.305
3747,1286.435
3748,1282.046
3749,1307.700
3750,1291.591
3751,1329.688
3752,1331.137
3753,1309.148
3754,1308.424
3755,1325.257
3756,1350.186
3757,1330.413
3758,1358.240
3759,1356.791
3760,1398.553
3761,1377.288
3762,1391.223
3763,1413.169
3764,1413.937
3765,1456.423
3766,1427.829
3767,1441.039
3768,1462.261
3769,1498.185
3770,1477.645
3771,1483.525
3772,1490.131
3773,1496.693
3774,1507.688
3775,1509.904
3776,1513.568
3777,1522.347
3778,1542.120
3779,1514.293
3780,1522.347
3781,1539.946
3782,1515.742
3783,1504.747
3784,1503.298
3785,1502.574
3786,1487.190
3787,1505.514
3788,1495.969
3789,1464.477
3790,1455.698
3791,1451.266
3792,1447.602
3793,1438.099
3794,1441.764
3795,1456.423
3796,1464.477
3797,1432.218
3798,1422.715
3799,1421.266
3800,1422.715
3801,1434.434
3802,1427.104
3803,1430.045
3804,1441.764
3805,1444.704
3806,1460.812
3807,1476.920
3808,1462.985
3809,1451.266
3810,1451.266
3811,1452.758
3812,1456.423
3813,1454.931
3814,1452.758
3815,1450.542
3816,1469.591
3817,1483.525
3818,1448.369
3819,1437.374
3820,1435.883
3821,1468.142
3822,1424.888
3823,1425.655
3824,1446.153
3825,1427.829
3826,1422.715
3827,1408.780
3828,1388.283
3829,1394.121
3830,1417.601
3831,1375.839
3832,1407.331
3833,1387.558
3834,1368.510
3835,1385.342
3836,1367.785
3837,1360.456
3838,1370.683
3839,1366.294
3840,1375.839
3841,1380.229
3842,1351.635
3843,1367.018
3844,1361.180
3845,1365.569
3846,1331.137
3847,1334.078
3848,1361.180
3849,1320.143
3850,1305.484
3851,1328.197
3852,1294.489
3853,1334.078
3854,1334.078
3855,1323.083
3856,1312.813
3857,1307.700
3858,1336.975
3859,1322.359
3860,1339.916
3861,1364.121
3862,1386.834
3863,1358.240
3864,1375.839
3865,1389.732
3866,1364.121
3867,1381.678
3868,1377.288
3869,1387.558
3870,1383.169
3871,1408.056
3872,1395.612
3873,1369.234
3874,1369.959
3875,1393.397
3876,1386.067
3877,1369.959
3878,1383.169
3879,1361.905
3880,1401.451
3881,1396.337
3882,1374.348
3883,1423.439
3884,1416.110
3885,1408.780
3886,1409.505
3887,1421.266
3888,1453.482
3889,1449.818
3890,1461.536
3891,1473.255
3892,1511.352
3893,1483.525
3894,1498.909
3895,1530.401
3896,1496.693
3897,1503.298
3898,1511.352
3899,1532.617
3900,1494.520
3901,1489.364
3902,1495.244
3903,1475.471
3904,1496.693
3905,1471.806
3906,1479.861
3907,1443.212
3908,1449.093
3909,1420.499
3910,1396.337
3911,1394.888
3912,1379.504
3913,1410.272
3914,1394.888
3915,1377.288
3916,1382.402
3917,1358.964
3918,1342.132
3919,1330.413
3920,1359.689
3921,1355.299
3922,1352.402
3923,1350.186
3924,1320.143
3925,1306.975
3926,1304.759
3927,1349.461
3928,1329.688
3929,1312.089
3930,1345.797
3931,1329.688
3932,1371.408
3933,1378.013
3934,1383.169
3935,1385.342
3936,1393.397
3937,1380.229
3938,1389.007
3939,1429.320
3940,1445.428
3941,1451.266
3942,1447.602
3943,1475.471
3944,1480.585
3945,1504.747
3946,1487.190
3947,1501.849
3948,1492.304
3949,1520.898
3950,1498.909
3951,1541.395
3952,1501.082
3953,1516.466
3954,1515.742
3955,1522.347
3956,1520.131
3957,1491.579
3958,1503.298
3959,1482.034
3960,1484.250
3961,1490.131
3962,1472.531
3963,1487.915
3964,1487.915
3965,1443.212
3966,1468.866
3967,1416.834
3968,1443.212
3969,1394.121
3970,1395.612
3971,1413.937
3972,1397.061
3973,1354.575
3974,1342.132
3975,1346.521
3976,1353.126
3977,1345.797
3978,1342.856
3979,1334.802
3980,1320.143
3981,1301.819
3982,1271.776
3983,1268.878
3984,1268.878
3985,1258.608
3986,1238.111
3987,1225.625
3988,1224.176
3989,1223.451
3990,1238.111
3991,1224.176
3992,1233.679
3993,1241.775
3994,1244.673
3995,1251.278
3996,1284.986
3997,1312.089
3998,1302.543
3999,1295.981
4000,1306.975
4001,1361.180
4002,1336.975
4003,1370.683
4004,1386.067
4005,1367.785
4006,1408.780
4007,1410.272
4008,1410.272
4009,1410.996
4010,1457.147
4011,1430.769
4012,1441.039
4013,1478.369
4014,1452.758
4015,1490.855
4016,1461.536
4017,1496.693
4018,1493.753
4019,1511.352
4020,1500.358
4021,1513.568
4022,1516.466
4023,1505.514
4024,1515.742
4025,1519.406
4026,1532.617
4027,1506.963
4028,1531.850
4029,1500.358
4030,1495.969
4031,1517.958
4032,1489.364
4033,1504.747
4034,1460.088
4035,1471.082
4036,1446.877
4037,1465.926
4038,1473.255
4039,1449.818
4040,1439.548
4041,1461.536
4042,1466.650
4043,1451.266
4044,1431.494
4045,1453.482
4046,1421.991
4047,1422.715
4048,1435.158
4049,1443.937
4050,1447.602
4051,1400.002
4052,1424.888
4053,1391.948
4054,1389.732
4055,1372.175
4056,1382.402
4057,1361.180
4058,1350.186
4059,1375.839
4060,1355.299
4061,1325.257
4062,1312.813
4063,1301.819
4064,1305.484
4065,1301.819
4066,1281.321
4067,1300.370
4068,1293.765
4069,1301.819
4070,1281.321
4071,1277.657
4072,1286.435
4073,1283.537
4074,1295.256
4075,1298.921
4076,1331.862
4077,1342.856
4078,1330.413
4079,1345.797
4080,1340.640
4081,1337.742
4082,1336.251
4083,1344.305
4084,1344.305
4085,1353.126
4086,1370.683
4087,1366.294
4088,1359.689
4089,1333.353
4090,1328.197
4091,1326.748
4092,1341.407
4093,1324.532
4094,1326.024
4095,1299.645
4096,1290.100
4097,1301.819
4098,1275.441
4099,1249.830
4100,1280.597
4101,1227.116
4102,1221.235
4103,1205.852
4104,1210.241
4105,1228.565
4106,1219.062
4107,1180.965
4108,1189.744
4109,1169.246
4110,1134.814
4111,1167.755
4112,1144.317
4113,1124.544
4114,1151.647
4115,1133.323
4116,1123.095
4117,1147.982
4118,1173.635
4119,1157.527
4120,1195.624
4121,1181.690
4122,1174.360
4123,1187.528
4124,1220.511
4125,1252.727
4126,1235.170
4127,1289.375
4128,1311.364
4129,1303.310
4130,1306.208
4131,1364.845
4132,1342.856
4133,1404.391
4134,1392.672
4135,1414.661
4136,1457.872
4137,1460.812
4138,1461.536
4139,1495.969
4140,1525.287
4141,1528.185
4142,1525.287
4143,1552.390
4144,1582.433
4145,1598.541
4146,1602.930
4147,1586.822
4148,1584.606
4149,1587.546
4150,1587.546
4151,1588.995
4152,1624.195
4153,1613.200
4154,1608.811
4155,1589.762
4156,1556.779
4157,1581.666
4158,1569.222
4159,1532.617
4160,1546.509
4161,1511.352
4162,1493.753
4163,1495.969
4164,1475.471
4165,1463.752
4166,1452.034
4167,1443.212
4168,1438.099
4169,1435.158
4170,1430.045
4171,1435.883
4172,1442.488
4173,1448.369
4174,1429.320
4175,1438.823
4176,1430.769
4177,1413.169
4178,1409.505
4179,1408.780
4180,1411.721
4181,1419.050
4182,1421.266
4183,1457.872
4184,1437.374
4185,1419.775
4186,1444.704
4187,1460.088
4188,1457.147
4189,1449.818
4190,1452.034
4191,1438.823
4192,1443.937
4193,1451.266
4194,1465.926
4195,1446.153
4196,1432.985
4197,1454.931
4198,1431.494
4199,1453.482
4200,1435.158
4201,1431.494
4202,1444.704
4203,1470.315
4204,1446.877
4205,1436.650
4206,1452.034
4207,1470.315
4208,1449.818
4209,1441.039
4210,1456.423
4211,1471.082
4212,1449.093
4213,1470.315
4214,1476.920
4215,1455.698
4216,1483.525
4217,1490.131
4218,1465.201
4219,1468.142
4220,1501.849
4221,1464.477
4222,1472.531
4223,1481.309
4224,1479.136
4225,1484.250
4226,1464.477
4227,1481.309
4228,1446.153
4229,1455.698
4230,1437.374
4231,1451.266
4232,1455.698
4233,1423.439
4234,1443.937
4235,1442.488
4236,1412.445
4237,1403.667
4238,1413.169
4239,1408.056
4240,1400.002
4241,1385.342
4242,1389.007
4243,1375.839
4244,1393.397
4245,1362.629
4246,1385.342
4247,1397.786
4248,1358.964
4249,1357.515
4250,1375.839
4251,1372.899
4252,1392.672
4253,1368.510
4254,1360.456
4255,1389.007
4256,1369.959
4257,1370.683
4258,1376.564
4259,1418.326
4260,1420.499
4261,1390.456
4262,1435.158
4263,1432.985
4264,1419.775
4265,1464.477
4266,1439.548
4267,1483.525
4268,1469.591
4269,1469.591
4270,1497.418
4271,1507.688
4272,1480.585
4273,1495.969
4274,1488.639
4275,1471.806
4276,1482.801
4277,1462.985
4278,1468.142
4279,1479.136
4280,1478.369
4281,1431.494
4282,1422.715
4283,1443.212
4284,1407.331
4285,1399.277
4286,1397.061
4287,1374.348
4288,1396.337
4289,1378.013
4290,1366.294
4291,1325.257
4292,1311.364
4293,1340.640
4294,1314.305
4295,1294.489
4296,1290.100
4297,1321.592
4298,1312.089
4299,1295.256
4300,1300.370
4301,1305.484
4302,1312.089
4303,1334.802
4304,1341.407
4305,1331.862
4306,1321.592
4307,1326.748
4308,1375.839
4309,1344.305
4310,1379.504
4311,1364.121
4312,1378.013
4313,1390.456
4314,1419.775
4315,1384.618
4316,1406.607
4317,1436.650
4318,1426.380
4319,1405.115
4320,1410.272
4321,1430.045
4322,1410.996
4323,1395.612
4324,1404.391
4325,1402.218
4326,1406.607
4327,1399.277
4328,1385.342
4329,1385.342
4330,1341.407
4331,1372.175
4332,1323.808
4333,1352.402
4334,1324.532
4335,1297.430
4336,1283.537
4337,1266.662
4338,1258.608
4339,1230.057
4340,1218.295
4341,1200.738
4342,1199.247
4343,1191.193
4344,1182.414
4345,1153.095
4346,1144.317
4347,1128.209
4348,1095.226
4349,1122.328
4350,1086.447
4351,1063.734
4352,1052.015
4353,1077.668
4354,1044.685
4355,1040.296
4356,1037.356
4357,1032.242
4358,1032.242
4359,1027.086
4360,1020.523
4361,1046.134
4362,1061.518
4363,1065.950
4364,1059.344
4365,1062.285
4366,1089.387
4367,1068.847
4368,1082.782
4369,1081.333
4370,1136.987
4371,1109.885
4372,1167.030
4373,1138.479
4374,1160.425
4375,1180.965
4376,1222.727
4377,1251.278
4378,1259.332
4379,1268.878
4380,1272.543
4381,1271.051
4382,1301.819
4383,1336.251
4384,1323.083
4385,1324.532
4386,1378.737
4387,1343.581
4388,1390.456
4389,1381.678
4390,1378.737
4391,1386.834
4392,1408.056
4393,1396.337
4394,1393.397
4395,1430.045
4396,1398.553
4397,1438.823
4398,1407.331
4399,1408.056
4400,1445.428
4401,1406.607
4402,1415.385
4403,1438.099
4404,1393.397
4405,1413.937
4406,1427.104
4407,1386.834
4408,1427.829
4409,1404.391
4410,1397.061
4411,1401.451
4412,1372.899
4413,1394.888
4414,1364.845
4415,1385.342
4416,1361.905
4417,1393.397
4418,1366.294
4419,1378.013
4420,1382.402
4421,1350.910
4422,1350.910
4423,1374.348
4424,1370.683
4425,1346.521
4426,1340.640
4427,1360.456
4428,1345.072
4429,1349.461
4430,1353.126
4431,1331.862
4432,1317.202
4433,1310.640
4434,1347.970
4435,1344.305
4436,1338.467
4437,1315.029
4438,1294.489
4439,1289.375
4440,1320.867
4441,1317.970
4442,1284.986
4443,1296.705
4444,1317.202
4445,1290.100
4446,1315.754
4447,1301.819
4448,1295.256
4449,1287.927
4450,1309.873
4451,1329.688
4452,1334.078
4453,1317.202
4454,1321.592
4455,1298.921
4456,1328.197
4457,1301.819
4458,1345.797
4459,1302.543
4460,1326.024
4461,1333.353
4462,1304.759
4463,1333.353
4464,1306.208
4465,1349.461
4466,1327.472
4467,1331.137
4468,1314.305
4469,1346.521
4470,1330.413
4471,1344.305
4472,1354.575
4473,1323.808
4474,1328.197
4475,1351.635
4476,1373.624
4477,1338.467
4478,1350.910
4479,1335.527
4480,1375.072
4481,1339.916
4482,1339.191
4483,1354.575
4484,1322.359
4485,1353.851
4486,1314.305
4487,1353.126
4488,1308.424
4489,1348.737
4490,1309.873
4491,1314.305
4492,1319.418
4493,1351.635
4494,1350.186
4495,1369.234
4496,1362.629
4497,1358.240
4498,1405.840
4499,1387.558
4500,1397.061
4501,1404.391
4502,1422.715
4503,1460.088
4504,1458.596
4505,1451.266
4506,1454.931
4507,1456.423
4508,1462.985
4509,1499.634
4510,1496.693
4511,1506.239
4512,1508.412
4513,1513.568
4514,1509.136
4515,1545.785
4516,1545.060
4517,1530.401
4518,1534.066
4519,1539.179
4520,1552.390
4521,1558.228
4522,1593.427
4523,1591.211
4524,1594.876
4525,1568.498
4526,1566.282
4527,1589.762
4528,1572.163
4529,1566.282
4530,1568.498
4531,1560.444
4532,1556.779
4533,1561.168
4534,1547.233
4535,1545.060
4536,1560.444
4537,1564.109
4538,1550.174
4539,1526.736
4540,1546.509
4541,1529.676
4542,1511.352
4543,1506.963
4544,1526.012
4545,1526.736
4546,1513.568
4547,1505.514
4548,1513.568
4549,1545.060
4550,1506.963
4551,1540.671
4552,1527.461
4553,1524.563
4554,1542.120
4555,1561.893
4556,1528.952
4557,1568.498
4558,1567.773
4559,1555.330
4560,1567.049
4561,1560.444
4562,1581.666
4563,1582.433
4564,1577.276
4565,1584.606
4566,1591.936
4567,1605.146
4568,1618.314
4569,1637.362
4570,1642.476
4571,1619.038
4572,1614.649
4573,1621.979
4574,1632.973
4575,1635.146
4576,1621.254
4577,1627.859
4578,1637.362
4579,1634.422
4580,1638.811
4581,1669.579
4582,1663.016
4583,1641.752
4584,1659.351
4585,1671.795
4586,1663.016
4587,1655.686
4588,1648.357
4589,1664.465
4590,1657.135
4591,1645.416
4592,1645.416
4593,1652.746
4594,1610.984
4595,1637.362
4596,1596.325
4597,1618.314
4598,1586.822
4599,1573.612
4600,1550.174
4601,1537.731
4602,1532.617
4603,1542.844
4604,1507.688
4605,1499.634
4606,1505.514
4607,1519.406
4608,1479.136
4609,1498.185
4610,1476.920
4611,1501.082
4612,1464.477
4613,1479.136
4614,1455.698
4615,1478.369
4616,1440.272
4617,1471.082
4618,1422.715
4619,1460.088
4620,1411.721
4621,1444.704
4622,1402.942
4623,1441.039
4624,1398.553
4625,1430.045
4626,1408.780
4627,1392.672
4628,1409.505
4629,1406.607
4630,1377.288
4631,1368.510
4632,1393.397
4633,1363.354
4634,1364.121
4635,1402.218
4636,1384.618
4637,1363.354
4638,1405.840
4639,1402.218
4640,1376.564
4641,1413.937
4642,1403.667
4643,1383.894
4644,1405.115
4645,1421.991
4646,1405.840
4647,1404.391
4648,1378.013
4649,1354.575
4650,1358.964
4651,1374.348
4652,1334.078
4653,1327.472
4654,1364.121
4655,1350.910
4656,1350.910
4657,1351.635
4658,1324.532
4659,1326.748
4660,1320.867
4661,1333.353
4662,1339.916
4663,1385.342
4664,1367.785
4665,1369.234
4666,1369.959
4667,1418.326
4668,1383.894
4669,1427.104
4670,1396.337
4671,1446.153
4672,1411.721
4673,1453.482
4674,1424.888
4675,1465.926
4676,1431.494
4677,1465.201
4678,1466.650
4679,1441.039
4680,1452.034
4681,1485.699
4682,1447.602
4683,1457.147
4684,1483.525
4685,1448.369
4686,1437.374
4687,1443.937
4688,1476.196
4689,1430.769
4690,1459.321
4691,1449.818
4692,1438.099
4693,1454.207
4694,1416.834
4695,1452.758
4696,1411.721
4697,1442.488
4698,1410.996
4699,1420.499
4700,1435.158
4701,1427.104
4702,1389.732
4703,1397.786
4704,1404.391
4705,1372.899
4706,1403.667
4707,1378.737
4708,1352.402
4709,1361.180
4710,1358.240
4711,1312.813
4712,1335.527
4713,1317.202
4714,1284.262
4715,1281.321
4716,1271.776
4717,1274.716
4718,1216.122
4719,1221.960
4720,1189.744
4721,1178.749
4722,1183.863
4723,1183.138
4724,1151.647
4725,1131.149
4726,1154.587
4727,1112.101
4728,1131.874
4729,1122.328
4730,1095.226
4731,1093.777
4732,1125.268
4733,1094.501
4734,1106.220
4735,1090.112
4736,1139.203
4737,1123.095
4738,1112.825
4739,1162.641
4740,1131.149
4741,1161.192
4742,1201.463
4743,1177.300
4744,1207.343
4745,1238.835
4746,1257.884
4747,1269.602
4748,1295.981
4749,1319.418
4750,1333.353
4751,1306.208
4752,1350.910
4753,1327.472
4754,1375.839
4755,1350.186
4756,1350.186
4757,1383.894
4758,1356.024
4759,1380.953
4760,1366.294
4761,1391.948
4762,1371.408
4763,1413.169
4764,1409.505
4765,1373.624
4766,1378.737
4767,1408.056
4768,1383.169
4769,1384.618
4770,1383.169
4771,1383.894
4772,1385.342
4773,1382.402
4774,1397.786
4775,1397.786
4776,1375.839
4777,1373.624
4778,1345.072
4779,1387.558
4780,1369.959
4781,1357.515
4782,1351.635
4783,1355.299
4784,1377.288
4785,1378.013
4786,1356.791
4787,1350.186
4788,1361.180
4789,1386.067
4790,1366.294
4791,1353.126
4792,1373.624
4793,1350.910
4794,1391.948
4795,1365.569
4796,1362.629
4797,1381.678
4798,1367.018
4799,1376.564
4800,1363.354
4801,1387.558
4802,1350.186
4803,1373.624
4804,1362.629
4805,1367.018
4806,1398.553
4807,1369.959
4808,1378.737
4809,1394.888
4810,1402.218
4811,1376.564
4812,1385.342
4813,1424.164
4814,1423.439
4815,1387.558
4816,1402.942
4817,1405.115
4818,1433.709
4819,1402.218
4820,1408.780
4821,1413.937
4822,1423.439
4823,1430.769
4824,1447.602
4825,1457.147
4826,1488.639
4827,1509.904
4828,1483.525
4829,1494.520
4830,1500.358
4831,1529.676
4832,1508.412
4833,1537.731
4834,1540.671
4835,1542.120
4836,1540.671
4837,1537.731
4838,1529.676
4839,1529.676
4840,1523.071
4841,1484.974
4842,1515.017
4843,1506.963
4844,1466.650
4845,1452.758
4846,1473.980
4847,1435.158
4848,1405.840
4849,1433.709
4850,1379.504
4851,1367.785
4852,1396.337
4853,1360.456
4854,1328.197
4855,1352.402
4856,1330.413
4857,1296.705
4858,1286.435
4859,1282.046
4860,1284.262
4861,1279.872
4862,1294.489
4863,1248.338
4864,1252.003
4865,1260.824
4866,1268.878
4867,1248.338
4868,1278.381
4869,1301.094
4870,1268.878
4871,1290.100
4872,1304.035
4873,1319.418
4874,1345.072
4875,1342.856
4876,1349.461
4877,1355.299
4878,1378.737
4879,1430.769
4880,1404.391
4881,1428.553
4882,1441.039
4883,1453.482
4884,1465.201
4885,1487.915
4886,1520.131
4887,1539.946
4888,1528.185
4889,1517.958
4890,1526.012
4891,1552.390
4892,1566.282
4893,1573.612
4894,1572.163
4895,1546.509
4896,1558.995
4897,1525.287
4898,1520.131
4899,1517.233
4900,1517.958
4901,1540.671
4902,1491.579
4903,1493.753
4904,1484.250
4905,1478.369
4906,1465.926
4907,1481.309
4908,1447.602
4909,1427.829
4910,1457.872
4911,1411.721
4912,1445.428
4913,1396.337
4914,1426.380
4915,1392.672
4916,1422.715
4917,1398.553
4918,1378.737
4919,1421.991
4920,1408.780
4921,1379.504
4922,1391.948
4923,1409.505
4924,1388.283
4925,1431.494
4926,1408.780
4927,1396.337
4928,1427.104
4929,1415.385
4930,1439.548
4931,1413.169
4932,1424.164
4933,1431.494
4934,1450.542
4935,1421.266
4936,1417.601
4937,1421.266
4938,1437.374
4939,1466.650
4940,1449.093
4941,1446.877
4942,1471.806
4943,1498.909
4944,1479.861
4945,1475.471
4946,1511.352
4947,1514.293
4948,1489.364
4949,1492.304
4950,1494.520
4951,1504.023
4952,1524.563
4953,1500.358
4954,1502.574
4955,1522.347
4956,1478.369
4957,1476.196
4958,1487.190
4959,1463.752
4960,1468.142
4961,1454.207
4962,1449.818
4963,1446.877
4964,1441.039
4965,1439.548
4966,1455.698
4967,1441.039
4968,1428.553
4969,1445.428
4970,1423.439
4971,1413.937
4972,1427.829
4973,1428.553
4974,1405.840
4975,1405.115
4976,1424.164
4977,1438.099
4978,1404.391
4979,1441.039
4980,1400.726
4981,1416.110
4982,1443.212
4983,1416.834
4984,1410.272
4985,1402.942
4986,1445.428
4987,1418.326
4988,1400.726
4989,1435.883
4990,1414.661
4991,1396.337
4992,1431.494
4993,1398.553
4994,1424.164
4995,1385.342
4996,1410.272
4997,1379.504
4998,1422.715
4999,1391.223
5000,1396.337
5001,1405.840
5002,1386.834
5003,1395.612
5004,1436.650
5005,1400.002
5006,1438.823
5007,1431.494
5008,1461.536
5009,1441.764
5010,1453.482
5011,1450.542
5012,1486.466
5013,1464.477
5014,1449.093
5015,1484.974
5016,1445.428
5017,1467.417
5018,1459.321
5019,1459.321
5020,1440.272
5021,1465.201
5022,1465.201
5023,1441.764
5024,1417.601
5025,1452.758
5026,1435.883
5027,1403.667
5028,1433.709
5029,1424.164
5030,1386.834
5031,1386.067
5032,1411.721
5033,1403.667
5034,1376.564
5035,1350.910
5036,1364.121
5037,1380.953
5038,1368.510
5039,1361.180
5040,1347.245
5041,1336.975
5042,1332.586
5043,1292.316
5044,1298.921
5045,1293.040
5046,1287.927
5047,1277.657
5048,1272.543
5049,1313.538
5050,1316.478
5051,1302.543
5052,1291.591
5053,1286.435
5054,1324.532
5055,1334.078
5056,1323.808
5057,1308.424
5058,1309.873
5059,1315.029
5060,1325.257
5061,1339.916
5062,1331.137
5063,1378.737
5064,1363.354
5065,1344.305
5066,1389.007
5067,1384.618
5068,1390.456
5069,1385.342
5070,1391.948
5071,1389.732
5072,1371.408
5073,1358.964
5074,1356.791
5075,1350.910
5076,1358.964
5077,1359.689
5078,1363.354
5079,1350.910
5080,1321.592
5081,1315.754
5082,1291.591
5083,1282.770
5084,1269.602
5085,1292.316
5086,1249.830
5087,1221.960
5088,1228.565
5089,1211.733
5090,1176.576
5091,1186.803
5092,1189.019
5093,1174.360
5094,1148.706
5095,1120.879
5096,1122.328
5097,1117.214
5098,1113.550
5099,1109.160
5100,1057.128
5101,1050.566
5102,1081.333
5103,1079.117
5104,1041.020
5105,1052.015
5106,1070.339
5107,1071.788
5108,1072.512
5109,1055.680
5110,1065.183
5111,1056.404
5112,1070.339
5113,1054.231
5114,1065.183
5115,1079.842
5116,1091.561
5117,1145.041
5118,1129.658
5119,1146.533
5120,1142.144
5121,1178.749
5122,1211.733
5123,1204.403
5124,1193.408
5125,1204.403
5126,1228.565
5127,1233.679
5128,1286.435
5129,1295.981
5130,1306.208
5131,1310.640
5132,1293.040
5133,1305.484
5134,1332.586
5135,1334.802
5136,1312.089
5137,1325.257
5138,1340.640
5139,1364.845
5140,1327.472
5141,1324.532
5142,1326.024
5143,1349.461
5144,1342.132
5145,1334.802
5146,1324.532
5147,1345.797
5148,1339.916
5149,1364.845
5150,1332.586
5151,1332.586
5152,1342.132
5153,1350.910
5154,1330.413
5155,1365.569
5156,1329.688
5157,1355.299
5158,1335.527
5159,1376.564
5160,1370.683
5161,1368.510
5162,1344.305
5163,1365.569
5164,1370.683
5165,1393.397
5166,1373.624
5167,1384.618
5168,1413.937
5169,1376.564
5170,1402.942
5171,1410.996
5172,1431.494
5173,1400.726
5174,1398.553
5175,1427.829
5176,1408.780
5177,1413.937
5178,1435.158
5179,1436.650
5180,1410.996
5181,1441.764
5182,1411.721
5183,1420.499
5184,1441.039
5185,1426.380
5186,1449.818
5187,1452.034
5188,1416.834
5189,1449.818
5190,1415.385
5191,1433.709
5192,1427.104
5193,1421.991
5194,1432.218
5195,1402.942
5196,1413.169
5197,1422.715
5198,1437.374
5199,1435.158
5200,1401.451
5201,1398.553
5202,1406.607
5203,1402.942
5204,1371.408
5205,1367.018
5206,1360.456
5207,1380.953
5208,1386.067
5209,1362.629
5210,1342.856
5211,1362.629
5212,1356.791
5213,1343.581
5214,1364.121
5215,1380.229
5216,1341.407
5217,1377.288
5218,1349.461
5219,1360.456
5220,1369.959
5221,1357.515
5222,1347.970
5223,1386.834
5224,1358.964
5225,1345.797
5226,1384.618
5227,1364.845
5228,1341.407
5229,1364.845
5230,1338.467
5231,1367.785
5232,1336.975
5233,1336.975
5234,1358.964
5235,1335.527
5236,1328.921
5237,1372.899
5238,1331.137
5239,1377.288
5240,1356.791
5241,1349.461
5242,1371.408
5243,1354.575
5244,1401.451
5245,1369.959
5246,1419.775
5247,1394.121
5248,1424.164
5249,1432.218
5250,1412.445
5251,1422.715
5252,1457.872
5253,1454.207
5254,1472.531
5255,1482.034
5256,1508.412
5257,1532.617
5258,1521.622
5259,1554.563
5260,1545.785
5261,1569.947
5262,1575.103
5263,1567.049
5264,1610.984
5265,1574.379
5266,1580.941
5267,1592.660
5268,1579.492
5269,1575.828
5270,1568.498
5271,1562.617
5272,1553.114
5273,1537.006
5274,1531.850
5275,1523.796
5276,1509.136
5277,1501.082
5278,1516.466
5279,1495.969
5280,1477.645
5281,1488.639
5282,1490.855
5283,1471.806
5284,1446.877
5285,1431.494
5286,1457.147
5287,1417.601
5288,1415.385
5289,1424.888
5290,1452.034
5291,1416.110
5292,1445.428
5293,1426.380
5294,1428.553
5295,1445.428
5296,1424.164
5297,1456.423
5298,1422.715
5299,1459.321
5300,1473.255
5301,1435.883
5302,1469.591
5303,1452.758
5304,1452.034
5305,1479.861
5306,1457.147
5307,1483.525
5308,1484.974
5309,1449.093
5310,1474.704
5311,1461.536
5312,1488.639
5313,1450.542
5314,1485.699
5315,1446.153
5316,1448.369
5317,1480.585
5318,1441.039
5319,1456.423
5320,1475.471
5321,1470.315
5322,1463.752
5323,1435.158
5324,1461.536
5325,1441.764
5326,1465.201
5327,1448.369
5328,1460.088
5329,1478.369
5330,1449.818
5331,1465.926
5332,1484.250
5333,1468.142
5334,1486.466
5335,1458.596
5336,1454.931
5337,1458.596
5338,1454.207
5339,1457.872
5340,1464.477
5341,1462.985
5342,1481.309
5343,1450.542
5344,1446.877
5345,1473.255
5346,1471.806
5347,1434.434
5348,1426.380
5349,1436.650
5350,1452.034
5351,1416.110
5352,1429.320
5353,1400.726
5354,1391.223
5355,1422.715
5356,1383.894
5357,1402.218
5358,1360.456
5359,1354.575
5360,1342.856
5361,1335.527
5362,1337.742
5363,1323.083
5364,1327.472
5365,1364.121
5366,1361.905
5367,1360.456
5368,1367.785
5369,1350.186
5370,1349.461
5371,1350.186
5372,1391.223
5373,1383.894
5374,1427.104
5375,1405.840
5376,1430.045
5377,1472.531
5378,1440.272
5379,1464.477
5380,1493.753
5381,1483.525
5382,1462.261
5383,1485.699
5384,1484.974
5385,1490.855
5386,1466.650
5387,1486.466
5388,1443.937
5389,1455.698
5390,1442.488
5391,1435.158
5392,1456.423
5393,1457.147
5394,1414.661
5395,1428.553
5396,1452.758
5397,1422.715
5398,1417.601
5399,1452.034
5400,1414.661
5401,1422.715
5402,1424.888
5403,1406.607
5404,1406.607
5405,1415.385
5406,1397.061
5407,1432.218
5408,1405.115
5409,1383.894
5410,1422.715
5411,1378.737
5412,1389.732
5413,1406.607
5414,1386.834
5415,1372.899
5416,1384.618
5417,1410.272
5418,1385.342
5419,1365.569
5420,1365.569
5421,1372.899
5422,1389.732
5423,1367.018
5424,1369.234
5425,1396.337
5426,1400.726
5427,1372.899
5428,1391.223
5429,1394.888
5430,1380.229
5431,1366.294
5432,1375.839
5433,1369.959
5434,1375.839
5435,1372.899
5436,1409.505
5437,1387.558
5438,1370.683
5439,1388.283
5440,1411.721
5441,1384.618
5442,1367.785
5443,1398.553
5444,1403.667
5445,1395.612
5446,1370.683
5447,1365.569
5448,1384.618
5449,1379.504
5450,1379.504
5451,1360.456
5452,1365.569
5453,1353.851
5454,1332.586
5455,1327.472
5456,1339.916
5457,1356.024
5458,1347.245
5459,1335.527
5460,1326.024
5461,1302.543
5462,1290.824
5463,1290.824
5464,1257.159
5465,1249.105
5466,1235.170
5467,1230.781
5468,1235.895
5469,1245.440
5470,1210.241
5471,1205.852
5472,1202.911
5473,1192.684
5474,1227.841
5475,1186.079
5476,1205.852
5477,1186.079
5478,1194.133
5479,1169.971
5480,1211.733
5481,1171.420
5482,1209.517
5483,1180.241
5484,1213.181
5485,1195.624
5486,1217.571
5487,1243.224
5488,1232.230
5489,1227.116
5490,1237.344
5491,1269.602
5492,1297.430
5493,1306.975
5494,1297.430
5495,1299.645
5496,1307.700
5497,1312.089
5498,1338.467
5499,1359.689
5500,1391.223
5501,1372.899
5502,1380.229
5503,1391.948
5504,1421.266
5505,1394.888
5506,1437.374
5507,1411.721
5508,1448.369
5509,1412.445
5510,1443.937
5511,1441.039
5512,1429.320
5513,1450.542
5514,1439.548
5515,1437.374
5516,1460.088
5517,1457.147
5518,1439.548
5519,1476.920
5520,1438.099
5521,1435.883
5522,1452.758
5523,1456.423
5524,1465.926
5525,1468.142
5526,1452.758
5527,1434.434
5528,1454.931
5529,1476.920
5530,1444.704
5531,1480.585
5532,1454.931
5533,1480.585
5534,1474.704
5535,1458.596
5536,1495.244
5537,1473.980
5538,1488.639
5539,1467.417
5540,1503.298
5541,1461.536
5542,1502.574
5543,1467.417
5544,1501.082
5545,1456.423
5546,1482.801
5547,1445.428
5548,1459.321
5549,1431.494
5550,1453.482
5551,1425.655
5552,1424.888
5553,1441.039
5554,1405.115
5555,1397.061
5556,1425.655
5557,1418.326
5558,1386.067
5559,1395.612
5560,1393.397
5561,1368.510
5562,1361.905
5563,1351.635
5564,1392.672
5565,1374.348
5566,1355.299
5567,1397.061
5568,1372.899
5569,1366.294
5570,1394.121
5571,1378.737
5572,1375.072
5573,1387.558
5574,1378.737
5575,1405.115
5576,1370.683
5577,1391.223
5578,1369.234
5579,1363.354
5580,1358.964
5581,1358.964
5582,1377.288
5583,1357.515
5584,1358.964
5585,1336.975
5586,1333.353
5587,1322.359
5588,1335.527
5589,1326.024
5590,1298.154
5591,1323.083
5592,1297.430
5593,1279.872
5594,1299.645
5595,1282.770
5596,1309.148
5597,1307.700
5598,1279.105
5599,1282.046
5600,1305.484
5601,1272.543
5602,1306.975
5603,1273.267
5604,1293.040
5605,1300.370
5606,1287.927
5607,1303.310
5608,1328.921
5609,1336.251
5610,1333.353
5611,1334.078
5612,1363.354
5613,1400.002
5614,1405.840
5615,1392.672
5616,1436.650
5617,1423.439
5618,1472.531
5619,1454.207
5620,1492.304
5621,1480.585
5622,1520.131
5623,1550.898
5624,1520.898
5625,1556.779
5626,1581.666
5627,1572.887
5628,1557.503
5629,1564.833
5630,1567.773
5631,1563.384
5632,1567.049
5633,1573.612
5634,1564.833
5635,1573.612
5636,1579.492
5637,1577.276
5638,1549.449
5639,1556.055
5640,1552.390
5641,1512.077
5642,1501.849
5643,1509.136
5644,1517.958
5645,1494.520
5646,1465.926
5647,1450.542
5648,1470.315
5649,1460.088
5650,1431.494
5651,1426.380
5652,1437.374
5653,1430.769
5654,1390.456
5655,1398.553
5656,1402.942
5657,1373.624
5658,1389.732
5659,1409.505
5660,1392.672
5661,1374.348
5662,1375.072
5663,1403.667
5664,1373.624
5665,1419.050
5666,1414.661
5667,1401.451
5668,1427.829
5669,1401.451
5670,1409.505
5671,1427.829
5672,1457.872
5673,1423.439
5674,1428.553
5675,1441.764
5676,1443.212
5677,1465.201
5678,1482.034
5679,1499.634
5680,1498.185
5681,1478.369
5682,1517.958
5683,1517.958
5684,1493.753
5685,1497.418
5686,1522.347
5687,1516.466
5688,1496.693
5689,1490.131
5690,1496.693
5691,1501.082
5692,1478.369
5693,1485.699
5694,1471.082
5695,1466.650
5696,1443.212
5697,1436.650
5698,1459.321
5699,1432.985
5700,1428.553
5701,1438.099
5702,1440.272
5703,1424.888
5704,1405.840
5705,1401.451
5706,1414.661
5707,1433.709
5708,1403.667
5709,1403.667
5710,1403.667
5711,1421.991
5712,1387.558
5713,1414.661
5714,1414.661
5715,1383.894
5716,1382.402
5717,1372.175
5718,1368.510
5719,1370.683
5720,1373.624
5721,1369.234
5722,1394.121
5723,1407.331
5724,1367.785
5725,1411.721
5726,1373.624
5727,1394.888
5728,1421.991
5729,1417.601
5730,1386.067
5731,1410.996
5732,1394.888
5733,1422.715
5734,1397.786
5735,1427.829
5736,1400.002
5737,1417.601
5738,1404.391
5739,1437.374
5740,1401.451
5741,1440.272
5742,1398.553
5743,1441.764
5744,1418.326
5745,1402.942
5746,1407.331
5747,1426.380
5748,1436.650
5749,1449.818
5750,1443.937
5751,1413.169
5752,1421.266
5753,1441.764
5754,1438.099
5755,1405.840
5756,1431.494
5757,1424.164
5758,1403.667
5759,1433.709
5760,1421.991
5761,1412.445
5762,1395.612
5763,1406.607
5764,1406.607
5765,1394.888
5766,1387.558
5767,1375.839
5768,1353.851
5769,1347.245
5770,1367.018
5771,1372.899
5772,1367.018
5773,1358.240
5774,1326.748
5775,1302.543
5776,1311.364
5777,1295.981
5778,1288.651
5779,1293.040
5780,1290.100
5781,1289.375
5782,1306.975
5783,1331.862
5784,1334.802
5785,1299.645
5786,1318.694
5787,1338.467
5788,1352.402
5789,1365.569
5790,1331.862
5791,1342.856
5792,1355.299
5793,1347.970
5794,1358.964
5795,1380.229
5796,1371.408
5797,1376.564
5798,1382.402
5799,1394.888
5800,1421.266
5801,1427.104
5802,1402.942
5803,1405.115
5804,1445.428
5805,1408.780
5806,1454.931
5807,1414.661
5808,1457.147
5809,1419.775
5810,1454.207
5811,1424.164
5812,1466.650
5813,1424.888
5814,1453.482
5815,1462.985
5816,1423.439
5817,1435.158
5818,1448.369
5819,1421.991
5820,1407.331
5821,1432.218
5822,1424.164
5823,1408.056
5824,1396.337
5825,1343.581
5826,1328.197
5827,1328.921
5828,1331.862
5829,1282.770
5830,1299.645
5831,1249.105
5832,1274.716
5833,1243.224
5834,1197.798
5835,1182.414
5836,1192.684
5837,1198.522
5838,1167.755
5839,1169.246
5840,1125.993
5841,1116.490
5842,1117.214
5843,1119.430
5844,1106.220
5845,1114.998
5846,1135.538
5847,1145.041
5848,1158.252
5849,1147.257
5850,1145.041
5851,1147.257
5852,1184.630
5853,1191.193
5854,1169.971
5855,1226.392
5856,1196.349
5857,1241.008
5858,1216.846
5859,1269.602
5860,1232.954
5861,1268.111
5862,1285.711
5863,1299.645
5864,1307.700
5865,1320.867
5866,1313.538
5867,1296.705
5868,1300.370
5869,1311.364
5870,1326.024
5871,1336.975
5872,1328.921
5873,1335.527
5874,1341.407
5875,1338.467
5876,1347.245
5877,1344.305
5878,1344.305
5879,1353.851
5880,1375.839
5881,1380.953
5882,1378.013
5883,1386.067
5884,1391.223
5885,1392.672
5886,1364.845
5887,1391.948
5888,1392.672
5889,1369.234
5890,1370.683
5891,1371.408
5892,1389.732
5893,1395.612
5894,1386.067
5895,1371.408
5896,1378.013
5897,1363.354
5898,1369.959
5899,1371.408
5900,1376.564
5901,1395.612
5902,1380.229
5903,1416.834
5904,1377.288
5905,1383.894
5906,1386.834
5907,1386.067
5908,1388.283
5909,1383.894
5910,1399.277
5911,1392.672
5912,1395.612
5913,1401.451
5914,1398.553
5915,1382.402
5916,1377.288
5917,1381.678
5918,1379.504
5919,1425.655
5920,1394.888
5921,1435.158
5922,1412.445
5923,1445.428
5924,1429.320
5925,1471.806
5926,1484.250
5927,1479.136
5928,1471.082
5929,1487.190
5930,1494.520
5931,1515.017
5932,1523.796
5933,1535.515
5934,1542.120
5935,1551.665
5936,1588.271
5937,1570.714
5938,1570.714
5939,1580.941
5940,1594.876
5941,1605.871
5942,1609.535
5943,1580.941
5944,1599.265
5945,1599.990
5946,1573.612
5947,1599.265
5948,1564.833
5949,1578.001
5950,1574.379
5951,1553.839
5952,1563.384
5953,1526.012
5954,1549.449
5955,1546.509
5956,1506.963
5957,1529.676
5958,1493.028
5959,1490.855
5960,1503.298
5961,1472.531
5962,1453.482
5963,1429.320
5964,1414.661
5965,1401.451
5966,1389.732
5967,1379.504
5968,1369.959
5969,1383.169
5970,1388.283
5971,1336.251
5972,1368.510
5973,1324.532
5974,1350.186
5975,1312.089
5976,1346.521
5977,1299.645
5978,1313.538
5979,1325.257
5980,1297.430
5981,1318.694
5982,1317.970
5983,1342.132
5984,1312.089
5985,1333.353
5986,1347.970
5987,1342.856
5988,1353.851
5989,1360.456
5990,1368.510
5991,1419.050
5992,1396.337
5993,1443.937
5994,1416.834
5995,1457.872
5996,1445.428
5997,1475.471
5998,1501.849
5999,1473.980
6000,1519.406
6001,1496.693
6002,1503.298
6003,1509.136
6004,1520.131
6005,1531.125
6006,1539.179
6007,1545.785
6008,1545.060
6009,1533.341
6010,1558.995
6011,1545.785
6012,1528.185
6013,1528.952
6014,1517.233
6015,1537.006
6016,1506.963
6017,1531.850
6018,1499.634
6019,1528.185
6020,1497.418
6021,1512.077
6022,1472.531
6023,1503.298
6024,1482.801
6025,1468.142
6026,1479.136
6027,1462.261
6028,1449.093
6029,1454.207
6030,1460.812
6031,1474.704
6032,1437.374
6033,1436.650
6034,1430.045
6035,1436.650
6036,1456.423
6037,1418.326
6038,1435.158
6039,1435.883
6040,1414.661
6041,1453.482
6042,1413.937
6043,1440.272
6044,1427.104
6045,1451.266
6046,1445.428
6047,1448.369
6048,1446.877
6049,1479.136
6050,1441.039
6051,1450.542
6052,1478.369
6053,1498.909
6054,1478.369
6055,1472.531
6056,1476.920
6057,1493.753
6058,1507.688
6059,1504.747
6060,1501.082
6061,1470.315
6062,1469.591
6063,1462.985
6064,1454.931
6065,1480.585
6066,1479.861
6067,1471.082
6068,1457.147
6069,1433.709
6070,1418.326
6071,1408.056
6072,1403.667
6073,1413.169
6074,1435.883
6075,1394.121
6076,1416.110
6077,1430.045
6078,1406.607
6079,1415.385
6080,1403.667
6081,1418.326
6082,1416.110
6083,1397.786
6084,1395.612
6085,1398.553
6086,1394.888
6087,1412.445
6088,1414.661
6089,1425.655
6090,1405.115
6091,1419.050
6092,1410.272
6093,1416.834
6094,1426.380
6095,1409.505
6096,1402.218
6097,1395.612
6098,1381.678
6099,1370.683
6100,1390.456
6101,1389.007
6102,1363.354
6103,1348.737
6104,1367.785
6105,1339.191
6106,1308.424
6107,1304.035
6108,1309.873
6109,1321.592
6110,1336.251
6111,1326.024
6112,1293.040
6113,1297.430
6114,1301.819
6115,1304.035
6116,1348.737
6117,1339.916
6118,1323.083
6119,1327.472
6120,1328.197
6121,1344.305
6122,1359.689
6123,1373.624
6124,1361.180
6125,1345.797
6126,1323.808
6127,1320.143
6128,1301.094
6129,1303.310
6130,1303.310
6131,1292.316
6132,1298.921
6133,1283.537
6134,1249.105
6135,1239.560
6136,1254.219
6137,1254.219
6138,1257.159
6139,1213.181
6140,1249.830
6141,1204.403
6142,1238.835
6143,1200.738
6144,1227.841
6145,1184.630
6146,1226.392
6147,1177.300
6148,1207.343
6149,1177.300
6150,1218.295
6151,1178.749
6152,1216.122
6153,1178.749
6154,1202.187
6155,1182.414
6156,1223.451
6157,1227.116
6158,1200.014
6159,1241.775
6160,1215.397
6161,1224.176
6162,1270.327
6163,1285.711
6164,1301.094
6165,1311.364
6166,1318.694
6167,1329.688
6168,1340.640
6169,1389.007
6170,1375.839
6171,1413.169
6172,1401.451
6173,1433.709
6174,1471.806
6175,1443.937
6176,1473.255
6177,1506.239
6178,1480.585
6179,1523.796
6180,1501.849
6181,1506.239
6182,1533.341
6183,1544.336
6184,1530.401
6185,1524.563
6186,1541.395
6187,1534.066
6188,1520.898
6189,1527.461
6190,1538.455
6191,1497.418
6192,1506.963
6193,1493.028
6194,1473.980
6195,1432.218
6196,1434.434
6197,1418.326
6198,1367.018
6199,1336.975
6200,1345.797
6201,1275.441
6202,1240.284
6203,1248.338
6204,1177.300
6205,1191.960
6206,1150.922
6207,1134.047
6208,1105.496
6209,1097.441
6210,1080.566
6211,1052.015
6212,1038.847
6213,1031.517
6214,1054.231
6215,1068.847
6216,1082.782
6217,1101.106
6218,1094.501
6219,1161.192
6220,1166.306
6221,1205.852
6222,1214.673
6223,1223.451
6224,1279.872
6225,1314.305
6226,1328.921
6227,1345.072
6228,1360.456
6229,1421.266
6230,1408.780
6231,1472.531
6232,1480.585
6233,1482.034
6234,1491.579
6235,1508.412
6236,1553.839
6237,1539.946
6238,1542.120
6239,1543.569
6240,1556.779
6241,1566.282
6242,1577.276
6243,1602.930
6244,1592.660
6245,1600.714
6246,1576.552
6247,1568.498
6248,1567.773
6249,1589.762
6250,1587.546
6251,1583.157
6252,1572.163
6253,1586.098
6254,1595.601
6255,1593.427
6256,1610.984
6257,1631.482
6258,1628.584
6259,1632.973
6260,1658.627
6261,1664.465
6262,1645.416
6263,1657.860
6264,1674.735
6265,1693.059
6266,1695.957
6267,1689.394
6268,1682.789
6269,1721.610
6270,1693.783
6271,1694.508
6272,1712.832
6273,1707.676
6274,1721.610
6275,1706.951
6276,1711.340
6277,1736.994
6278,1707.676
6279,1714.281
6280,1742.875
6281,1761.923
6282,1750.162
6283,1749.437
6284,1756.043
6285,1775.091
6286,1779.480
6287,1792.691
6288,1818.302
6289,1824.183
6290,1827.847
6291,1841.015
6292,1856.399
6293,1873.999
6294,1892.323
6295,1917.209
6296,1918.701
6297,1961.187
6298,1956.031
6299,1988.290
6300,1975.804
6301,1992.679
6302,1998.517
6303,2008.787
6304,2024.171
6305,2038.106
6306,2054.214
6307,2048.333
6308,2035.165
6309,2036.614
6310,2020.506
6311,2018.333
6312,1990.463
6313,1980.960
6314,1961.187
6315,1957.522
6316,1936.258
6317,1899.652
6318,1875.447
6319,1849.069
6320,1822.691
6321,1801.469
6322,1775.816
6323,1759.707
6324,1753.102
6325,1722.335
6326,1703.286
6327,1706.951
6328,1660.800
6329,1646.865
6330,1668.854
6331,1654.195
6332,1638.087
6333,1617.589
6334,1599.265
6335,1599.990
6336,1604.379
6337,1626.368
6338,1622.703
6339,1613.200
6340,1588.271
6341,1597.816
6342,1610.984
6343,1588.995
6344,1578.001
6345,1586.822
6346,1584.606
6347,1601.481
6348,1605.871
6349,1609.535
6350,1625.643
6351,1642.476
6352,1654.195
6353,1663.740
6354,1665.914
6355,1685.729
6356,1690.843
6357,1689.394
6358,1698.173
6359,1708.443
6360,1721.610
6361,1721.610
6362,1731.880
6363,1720.886
6364,1698.173
6365,1723.826
6366,1715.730
6367,1682.065
6368,1660.800
6369,1654.962
6370,1657.135
6371,1637.362
6372,1627.092
6373,1617.589
6374,1599.990
6375,1594.152
6376,1589.762
6377,1558.995
6378,1549.449
6379,1529.676
6380,1521.622
6381,1504.023
6382,1518.682
6383,1480.585
6384,1471.082
6385,1440.272
6386,1428.553
6387,1432.985
6388,1424.888
6389,1381.678
6390,1356.791
6391,1347.970
6392,1356.024
6393,1370.683
6394,1336.975
6395,1333.353
6396,1358.964
6397,1362.629
6398,1378.013
6399,1375.072
6400,1372.175
6401,1366.294
6402,1369.234
6403,1385.342
6404,1360.456
6405,1363.354
6406,1364.845
6407,1361.905
6408,1378.013
6409,1369.959
6410,1361.905
6411,1350.186
6412,1339.191
6413,1308.424
6414,1290.100
6415,1295.256
6416,1283.537
6417,1262.273
6418,1273.267
6419,1284.262
6420,1275.441
6421,1246.165
6422,1286.435
6423,1296.705
6424,1262.273
6425,1304.035
6426,1315.029
6427,1279.872
6428,1308.424
6429,1322.359
6430,1337.742
6431,1354.575
6432,1326.748
6433,1336.975
6434,1358.240
6435,1350.910
6436,1361.180
6437,1367.785
6438,1381.678
6439,1421.991
6440,1393.397
6441,1388.283
6442,1398.553
6443,1421.266
6444,1438.099
6445,1430.045
6446,1416.834
6447,1452.034
6448,1460.812
6449,1452.758
6450,1443.937
6451,1458.596
6452,1465.201
6453,1468.142
6454,1441.764
6455,1471.082
6456,1471.806
6457,1464.477
6458,1455.698
6459,1470.315
6460,1448.369
6461,1478.369
6462,1482.034
6463,1463.752
6464,1437.374
6465,1435.158
6466,1459.321
6467,1416.834
6468,1389.007
6469,1380.229
6470,1353.851
6471,1327.472
6472,1312.813
6473,1305.484
6474,1235.895
6475,1232.230
6476,1183.138
6477,1153.863
6478,1125.268
6479,1104.047
6480,1053.464
6481,995.594
6482,1008.804
6483,946.502
6484,942.837
6485,905.507
6486,857.865
6487,845.422
6488,859.356
6489,816.103
6490,790.492
6491,825.649
6492,789.725
6493,770.676
6494,809.540
6495,783.162
6496,787.552
6497,779.497
6498,775.108
6499,769.227
6500,816.870
6501,822.708
6502,796.330
6503,794.157
6504,801.486
6505,825.649
6506,842.481
6507,845.422
6508,851.302
6509,857.140
6510,863.746
6511,868.859
6512,886.459
6513,887.908
6514,901.843
6515,905.507
6516,901.843
6517,893.022
6518,939.940
6519,936.275
6520,943.604
6521,936.275
6522,994.869
6523,972.880
6524,987.540
6525,1013.193
6526,1052.015
6527,1070.339
6528,1076.177
6529,1091.561
6530,1085.723
6531,1143.593
6532,1115.766
6533,1148.706
6534,1178.749
6535,1193.408
6536,1224.900
6537,1238.835
6538,1210.241
6539,1224.900
6540,1252.727
6541,1262.273
6542,1268.111
6543,1283.537
6544,1292.316
6545,1308.424
6546,1349.461
6547,1361.905
6548,1334.078
6549,1336.975
6550,1341.407
6551,1338.467
6552,1341.407
6553,1342.856
6554,1335.527
6555,1334.078
6556,1342.132
6557,1323.083
6558,1323.808
6559,1312.089
6560,1304.035
6561,1310.640
6562,1301.094
6563,1310.640
6564,1291.591
6565,1271.051
6566,1287.160
6567,1306.208
6568,1258.608
6569,1291.591
6570,1252.727
6571,1261.548
6572,1273.267
6573,1255.668
6574,1234.446
6575,1242.500
6576,1258.608
6577,1232.954
6578,1248.338
6579,1217.571
6580,1231.505
6581,1254.219
6582,1215.397
6583,1243.949
6584,1260.057
6585,1226.392
6586,1235.170
6587,1252.003
6588,1265.213
6589,1255.668
6590,1260.824
6591,1268.111
6592,1278.381
6593,1306.208
6594,1307.700
6595,1309.148
6596,1290.824
6597,1290.100
6598,1293.765
6599,1323.083
6600,1339.191
6601,1317.970
6602,1315.754
6603,1323.808
6604,1339.191
6605,1348.737
6606,1370.683
6607,1373.624
6608,1369.959
6609,1379.504
6610,1396.337
6611,1382.402
6612,1378.013
6613,1367.018
6614,1375.839
6615,1389.732
6616,1405.840
6617,1389.732
6618,1372.899
6619,1372.175
6620,1393.397
6621,1408.056
6622,1402.218
6623,1379.504
6624,1421.266
6625,1380.229
6626,1415.385
6627,1379.504
6628,1418.326
6629,1375.839
6630,1394.121
6631,1414.661
6632,1374.348
6633,1391.948
6634,1396.337
6635,1361.905
6636,1363.354
6637,1343.581
6638,1327.472
6639,1320.143
6640,1302.543
6641,1291.591
6642,1281.321
6643,1273.267
6644,1268.111
6645,1298.921
6646,1254.943
6647,1242.500
6648,1263.722
6649,1268.878
6650,1281.321
6651,1279.872
6652,1246.889
6653,1252.727
6654,1251.278
6655,1266.662
6656,1282.770
6657,1295.256
6658,1306.975
6659,1310.640
6660,1320.143
6661,1322.359
6662,1306.975
6663,1307.700
6664,1292.316
6665,1300.370
6666,1304.035
6667,1304.759
6668,1311.364
6669,1350.186
6670,1347.970
6671,1350.910
6672,1347.245
6673,1349.461
6674,1326.748
6675,1325.257
6676,1320.867
6677,1346.521
6678,1328.197
6679,1331.862
6680,1359.689
6681,1364.121
6682,1358.964
6683,1347.245
6684,1343.581
6685,1339.191
6686,1352.402
6687,1339.916
6688,1307.700
6689,1304.759
6690,1315.029
6691,1341.407
6692,1310.640
6693,1293.040
6694,1304.035
6695,1301.094
6696,1302.543
6697,1290.100
6698,1283.537
6699,1301.094
6700,1329.688
6701,1294.489
6702,1314.305
6703,1312.813
6704,1307.700
6705,1321.592
6706,1325.257
6707,1331.862
6708,1350.910
6709,1363.354
6710,1409.505
6711,1425.655
6712,1407.331
6713,1443.212
6714,1466.650
6715,1446.877
6716,1501.082
6717,1479.136
6718,1533.341
6719,1510.628
6720,1551.665
6721,1551.665
6722,1566.282
6723,1593.427
6724,1591.936
6725,1608.044
6726,1594.152
6727,1638.811
6728,1622.703
6729,1643.968
6730,1620.530
6731,1621.254
6732,1643.243
6733,1610.984
6734,1615.373
6735,1622.703
6736,1597.049
6737,1602.930
6738,1603.655
6739,1594.876
6740,1548.725
6741,1561.893
6742,1534.790
6743,1529.676
6744,1520.898
6745,1517.958
6746,1490.131
6747,1509.136
6748,1478.369
6749,1457.872
6750,1459.321
6751,1458.596
6752,1441.039
6753,1451.266
6754,1443.212
6755,1446.153
6756,1452.034
6757,1435.158
6758,1431.494
6759,1405.840
6760,1419.050
6761,1427.104
6762,1419.050
6763,1409.505
6764,1417.601
6765,1441.764
6766,1432.218
6767,1427.104
6768,1421.266
6769,1420.499
6770,1422.715
6771,1457.872
6772,1465.926
6773,1467.417
6774,1448.369
6775,1455.698
6776,1470.315
6777,1465.201
6778,1479.861
6779,1493.028
6780,1482.034
6781,1487.915
6782,1497.418
6783,1509.904
6784,1526.012
6785,1514.293
6786,1537.006
6787,1537.006
6788,1554.563
6789,1558.995
6790,1535.515
6791,1560.444
6792,1560.444
6793,1542.120
6794,1569.222
6795,1556.055
6796,1555.330
6797,1548.725
6798,1554.563
6799,1564.109
6800,1556.055
6801,1529.676
6802,1561.893
6803,1538.455
6804,1563.384
6805,1528.185
6806,1520.131
6807,1528.185
6808,1537.006
6809,1501.082
6810,1526.012
6811,1498.185
6812,1520.131
6813,1472.531
6814,1503.298
6815,1460.812
6816,1465.926
6817,1471.806
6818,1447.602
6819,1429.320
6820,1453.482
6821,1456.423
6822,1409.505
6823,1402.942
6824,1404.391
6825,1417.601
6826,1402.218
6827,1397.786
6828,1402.218
6829,1400.726
6830,1398.553
6831,1386.834
6832,1386.834
6833,1386.834
6834,1386.834
6835,1387.558
6836,1391.948
6837,1392.672
6838,1431.494
6839,1405.840
6840,1392.672
6841,1399.277
6842,1396.337
6843,1403.667
6844,1421.991
6845,1415.385
6846,1415.385
6847,1439.548
6848,1425.655
6849,1418.326
6850,1434.434
6851,1407.331
6852,1409.505
6853,1446.153
6854,1422.715
6855,1400.726
6856,1441.764
6857,1435.883
6858,1424.888
6859,1392.672
6860,1415.385
6861,1404.391
6862,1426.380
6863,1380.229
6864,1405.115
6865,1419.050
6866,1391.948
6867,1373.624
6868,1381.678
6869,1408.056
6870,1398.553
6871,1379.504
6872,1375.839
6873,1382.402
6874,1380.229
6875,1383.894
6876,1428.553
6877,1413.937
6878,1412.445
6879,1404.391
6880,1441.039
6881,1407.331
6882,1419.775
6883,1449.818
6884,1435.883
6885,1418.326
6886,1452.034
6887,1416.834
6888,1416.110
6889,1441.039
6890,1436.650
6891,1399.277
6892,1425.655
6893,1414.661
6894,1386.834
6895,1392.672
6896,1425.655
6897,1413.937
6898,1385.342
6899,1372.899
6900,1378.013
6901,1369.959
6902,1386.067
6903,1363.354
6904,1358.964
6905,1368.510
6906,1379.504
6907,1375.839
6908,1342.856
6909,1329.688
6910,1326.024
6911,1324.532
6912,1313.538
6913,1303.310
6914,1302.543
6915,1313.538
6916,1292.316
6917,1268.111
6918,1290.100
6919,1291.591
6920,1262.997
6921,1261.548
6922,1257.884
6923,1260.057
6924,1230.781
6925,1268.111
6926,1225.625
6927,1252.727
6928,1219.787
6929,1262.997
6930,1219.787
6931,1222.727
6932,1265.938
6933,1243.224
6934,1276.932
6935,1256.392
6936,1295.981
6937,1272.543
6938,1279.872
6939,1282.770
6940,1331.862
6941,1304.759
6942,1358.964
6943,1326.748
6944,1367.785
6945,1334.802
6946,1376.564
6947,1338.467
6948,1384.618
6949,1340.640
6950,1361.905
6951,1371.408
6952,1342.856
6953,1363.354
6954,1361.180
6955,1364.121
6956,1372.899
6957,1367.785
6958,1326.024
6959,1342.856
6960,1365.569
6961,1323.083
6962,1332.586
6963,1352.402
6964,1327.472
6965,1349.461
6966,1342.132
6967,1328.197
6968,1361.180
6969,1326.748
6970,1364.121
6971,1329.688
6972,1360.456
6973,1326.024
6974,1342.132
6975,1363.354
6976,1339.916
6977,1324.532
6978,1341.407
6979,1351.635
6980,1321.592
6981,1309.148
6982,1326.024
6983,1338.467
6984,1342.132
6985,1329.688
6986,1296.705
6987,1305.484
6988,1317.202
6989,1329.688
6990,1289.375
6991,1315.754
6992,1337.742
6993,1341.407
6994,1313.538
6995,1318.694
6996,1340.640
6997,1338.467
6998,1381.678
6999,1377.288
7000,1376.564
7001,1410.272
7002,1447.602
7003,1439.548
7004,1440.272
7005,1471.806
7006,1489.364
7007,1505.514
7008,1537.006
7009,1546.509
7010,1557.503
7011,1582.433
7012,1607.319
7013,1632.249
7014,1647.632
7015,1684.962
7016,1699.622
7017,1698.173
7018,1723.059
7019,1757.492
7020,1747.989
7021,1764.821
7022,1777.307
7023,1800.745
7024,1830.021
7025,1816.129
7026,1826.356
7027,1851.285
7028,1835.177
7029,1825.632
7030,1837.350
7031,1854.226
7032,1822.691
7033,1819.026
7034,1823.458
7035,1812.464
7036,1826.356
7037,1792.691
7038,1813.188
7039,1775.816
7040,1794.864
7041,1766.313
7042,1769.977
7043,1764.821
7044,1730.389
7045,1745.048
7046,1703.286
7047,1713.556
7048,1696.724
7049,1654.195
7050,1635.913
7051,1604.379
7052,1587.546
7053,1578.001
7054,1563.384
7055,1513.568
7056,1514.293
7057,1454.207
7058,1458.596
7059,1441.039
7060,1408.056
7061,1374.348
7062,1358.240
7063,1332.586
7064,1336.975
7065,1307.700
7066,1274.716
7067,1268.111
7068,1235.170
7069,1225.625
7070,1232.954
7071,1205.852
7072,1227.841
7073,1199.247
7074,1211.008
7075,1185.354
7076,1210.241
7077,1232.230
7078,1211.008
7079,1247.614
7080,1219.787
7081,1248.338
7082,1270.327
7083,1249.830
7084,1254.219
7085,1268.878
7086,1262.997
7087,1295.256
7088,1309.873
7089,1291.591
7090,1274.716
7091,1288.651
7092,1308.424
7093,1267.387
7094,1270.327
7095,1291.591
7096,1256.392
7097,1258.608
7098,1230.057
7099,1232.954
7100,1206.576
7101,1204.403
7102,1222.727
7103,1183.138
7104,1158.252
7105,1191.193
7106,1137.712
7107,1161.917
7108,1121.604
7109,1152.371
7110,1104.771
7111,1135.538
7112,1132.598
7113,1119.430
7114,1087.896
7115,1079.842
7116,1087.171
7117,1108.436
7118,1097.441
7119,1090.836
7120,1083.507
7121,1113.550
7122,1138.479
7123,1145.041
7124,1153.095
7125,1148.706
7126,1147.257
7127,1138.479
7128,1143.593
7129,1189.744
7130,1165.581
7131,1172.144
7132,1221.235
7133,1200.014
7134,1208.792
7135,1202.911
7136,1225.625
7137,1251.278
7138,1236.619
7139,1236.619
7140,1269.602
7141,1292.316
7142,1294.489
7143,1266.662
7144,1263.722
7145,1290.824
7146,1280.597
7147,1299.645
7148,1306.208
7149,1314.305
7150,1317.202
7151,1299.645
7152,1288.651
7153,1294.489
7154,1298.921
7155,1306.208
7156,1296.705
7157,1295.256
7158,1295.256
7159,1304.759
7160,1327.472
7161,1344.305
7162,1329.688
7163,1310.640
7164,1323.083
7165,1323.083
7166,1331.862
7167,1361.180
7168,1336.251
7169,1375.072
7170,1350.186
7171,1353.126
7172,1375.839
7173,1392.672
7174,1393.397
7175,1382.402
7176,1355.299
7177,1360.456
7178,1394.888
7179,1367.785
7180,1347.245
7181,1367.018
7182,1353.851
7183,1350.186
7184,1373.624
7185,1372.899
7186,1374.348
7187,1375.072
7188,1380.953
7189,1387.558
7190,1391.948
7191,1398.553
7192,1409.505
7193,1400.002
7194,1421.266
7195,1415.385
7196,1409.505
7197,1444.704
7198,1471.806
7199,1456.423
7200,1446.877
7201,1482.801
7202,1471.082
7203,1506.239
7204,1484.974
7205,1515.742
7206,1497.418
7207,1489.364
7208,1501.849
7209,1499.634
7210,1508.412
7211,1536.282
7212,1516.466
7213,1517.958
7214,1529.676
7215,1499.634
7216,1514.293
7217,1493.753
7218,1526.736
7219,1498.185
7220,1488.639
7221,1504.747
7222,1463.752
7223,1495.244
7224,1457.147
7225,1446.877
7226,1424.888
7227,1456.423
7228,1417.601
7229,1401.451
7230,1394.121
7231,1383.169
7232,1361.180
7233,1358.240
7234,1358.240
7235,1356.791
7236,1364.845
7237,1375.839
7238,1350.186
7239,1329.688
7240,1339.916
7241,1345.072
7242,1358.240
7243,1337.742
7244,1336.251
7245,1362.629
7246,1373.624
7247,1355.299
7248,1367.018
7249,1364.121
7250,1367.785
7251,1361.180
7252,1361.180
7253,1359.689
7254,1345.072
7255,1383.894
7256,1358.240
7257,1354.575
7258,1371.408
7259,1369.234
7260,1353.851
7261,1380.229
7262,1372.899
7263,1355.299
7264,1396.337
7265,1355.299
7266,1358.964
7267,1384.618
7268,1382.402
7269,1341.407
7270,1329.688
7271,1324.532
7272,1338.467
7273,1314.305
7274,1306.208
7275,1295.981
7276,1287.160
7277,1279.105
7278,1269.602
7279,1265.213
7280,1286.435
7281,1273.267
7282,1248.338
7283,1225.625
7284,1232.954
7285,1233.679
7286,1249.830
7287,1230.781
7288,1237.344
7289,1233.679
7290,1238.835
7291,1234.446
7292,1221.235
7293,1208.792
7294,1210.241
7295,1230.781
7296,1243.224
7297,1212.457
7298,1234.446
7299,1268.111
7300,1271.776
7301,1278.381
7302,1284.986
7303,1268.111
7304,1265.938
7305,1273.267
7306,1281.321
7307,1312.813
7308,1320.143
7309,1309.148
7310,1312.089
7311,1325.257
7312,1316.478
7313,1337.742
7314,1365.569
7315,1368.510
7316,1378.013
7317,1359.689
7318,1367.018
7319,1374.348
7320,1415.385
7321,1405.115
7322,1391.223
7323,1391.223
7324,1408.056
7325,1433.709
7326,1395.612
7327,1438.099
7328,1393.397
7329,1421.266
7330,1424.888
7331,1399.277
7332,1424.164
7333,1391.223
7334,1430.045
7335,1402.218
7336,1384.618
7337,1405.115
7338,1419.050
7339,1386.067
7340,1413.169
7341,1408.780
7342,1384.618
7343,1424.164
7344,1385.342
7345,1411.721
7346,1425.655
7347,1410.996
7348,1380.229
7349,1419.775
7350,1402.942
7351,1383.169
7352,1378.013
7353,1402.942
7354,1402.218
7355,1378.737
7356,1384.618
7357,1421.266
7358,1424.888
7359,1420.499
7360,1406.607
7361,1400.002
7362,1422.715
7363,1429.320
7364,1413.169
7365,1457.147
7366,1453.482
7367,1442.488
7368,1430.045
7369,1469.591
7370,1443.212
7371,1482.801
7372,1461.536
7373,1454.207
7374,1471.082
7375,1452.034
7376,1485.699
7377,1449.818
7378,1479.861
7379,1458.596
7380,1488.639
7381,1461.536
7382,1461.536
7383,1479.136
7384,1459.321
7385,1499.634
7386,1465.926
7387,1495.969
7388,1462.985
7389,1462.261
7390,1461.536
7391,1460.812
7392,1474.704
7393,1476.196
7394,1481.309
7395,1457.147
7396,1435.883
7397,1432.218
7398,1455.698
7399,1405.115
7400,1432.218
7401,1399.277
7402,1375.839
7403,1348.737
7404,1356.791
7405,1353.126
7406,1322.359
7407,1320.867
7408,1295.981
7409,1310.640
7410,1285.711
7411,1279.872
7412,1298.921
7413,1316.478
7414,1315.029
7415,1296.705
7416,1297.430
7417,1306.208
7418,1317.202
7419,1326.748
7420,1345.072
7421,1391.223
7422,1392.672
7423,1383.169
7424,1433.709
7425,1456.423
7426,1438.099
7427,1496.693
7428,1482.801
7429,1514.293
7430,1538.455
7431,1559.719
7432,1572.887
7433,1599.265
7434,1608.811
7435,1586.098
7436,1587.546
7437,1586.098
7438,1598.541
7439,1598.541
7440,1594.152
7441,1582.433
7442,1571.438
7443,1556.055
7444,1559.719
7445,1546.509
7446,1527.461
7447,1512.077
7448,1498.909
7449,1504.747
7450,1512.801
7451,1465.926
7452,1454.207
7453,1471.806
7454,1421.266
7455,1441.039
7456,1402.218
7457,1412.445
7458,1375.072
7459,1353.126
7460,1345.072
7461,1339.191
7462,1333.353
7463,1334.802
7464,1329.688
7465,1350.186
7466,1371.408
7467,1350.186
7468,1342.856
7469,1347.970
7470,1394.121
7471,1402.942
7472,1369.234
7473,1378.737
7474,1399.277
7475,1414.661
7476,1396.337
7477,1428.553
7478,1411.721
7479,1447.602
7480,1418.326
7481,1463.752
7482,1439.548
7483,1471.082
7484,1459.321
7485,1465.201
7486,1481.309
7487,1511.352
7488,1510.628
7489,1517.233
7490,1502.574
7491,1505.514
7492,1512.077
7493,1526.012
7494,1531.125
7495,1539.946
7496,1547.233
7497,1527.461
7498,1563.384
7499,1531.125
7500,1526.012
7501,1534.790
7502,1540.671
7503,1534.790
7504,1543.569
7505,1524.563
7506,1515.017
7507,1525.287
7508,1487.190
7509,1496.693
7510,1496.693
7511,1506.963
7512,1464.477
7513,1488.639
7514,1442.488
7515,1474.704
7516,1432.218
7517,1470.315
7518,1421.266
7519,1430.769
7520,1414.661
7521,1435.158
7522,1403.667
7523,1398.553
7524,1420.499
7525,1400.726
7526,1382.402
7527,1360.456
7528,1350.910
7529,1359.689
7530,1366.294
7531,1351.635
7532,1326.748
7533,1334.802
7534,1333.353
7535,1323.808
7536,1339.191
7537,1363.354
7538,1341.407
7539,1335.527
7540,1342.132
7541,1349.461
7542,1356.024
7543,1361.905
7544,1378.737
7545,1372.175
7546,1386.834
7547,1372.899
7548,1376.564
7549,1396.337
7550,1408.780
7551,1421.991
7552,1432.985
7553,1417.601
7554,1423.439
7555,1470.315
7556,1467.417
7557,1446.153
7558,1472.531
7559,1501.849
7560,1479.861
7561,1506.239
7562,1468.866
7563,1500.358
7564,1470.315
7565,1484.250
7566,1478.369
7567,1455.698
7568,1484.250
7569,1454.207
7570,1432.218
7571,1468.866
7572,1457.872
7573,1427.104
7574,1415.385
7575,1427.829
7576,1391.223
7577,1391.223
7578,1414.661
7579,1372.899
7580,1370.683
7581,1367.785
7582,1374.348
7583,1399.277
7584,1394.121
7585,1394.121
7586,1375.839
7587,1372.899
7588,1375.072
7589,1391.223
7590,1379.504
7591,1379.504
7592,1379.504
7593,1384.618
7594,1383.894
7595,1372.899
7596,1336.975
7597,1353.126
7598,1345.072
7599,1342.856
7600,1375.072
7601,1350.910
7602,1336.251
7603,1358.964
7604,1359.689
7605,1336.975
7606,1337.742
7607,1339.191
7608,1340.640
7609,1344.305
7610,1347.970
7611,1355.299
7612,1358.240
7613,1401.451
7614,1372.175
7615,1410.272
7616,1389.732
7617,1427.829
7618,1424.164
7619,1434.434
7620,1426.380
7621,1435.158
7622,1446.877
7623,1467.417
7624,1493.753
7625,1479.136
7626,1490.855
7627,1519.406
7628,1499.634
7629,1491.579
7630,1520.898
7631,1480.585
7632,1493.028
7633,1507.688
7634,1459.321
7635,1444.704
7636,1437.374
7637,1454.207
7638,1445.428
7639,1411.721
7640,1440.272
7641,1404.391
7642,1416.110
7643,1442.488
7644,1421.266
7645,1443.937
7646,1484.974
7647,1482.034
7648,1483.525
7649,1484.974
7650,1489.364
7651,1495.244
7652,1504.747
7653,1516.466
7654,1510.628
7655,1503.298
7656,1501.849
7657,1493.028
7658,1476.920
7659,1462.985
7660,1458.596
7661,1400.726
7662,1394.888
7663,1336.975
7664,1302.543
7665,1293.040
7666,1317.202
7667,1324.532
7668,1339.916
7669,1353.126
7670,1347.970
7671,1405.115
7672,1429.320
7673,1464.477
7674,1509.904
7675,1561.168
7676,1558.995
7677,1597.049
7678,1631.482
7679,1623.428
7680,1618.314
7681,1621.254
7682,1625.643
7683,1621.254
7684,1630.757
7685,1601.481
7686,1583.157
7687,1591.936
7688,1543.569
7689,1519.406
7690,1532.617
7691,1517.958
7692,1473.255
7693,1446.877
7694,1424.164
7695,1449.818
7696,1429.320
7697,1388.283
7698,1366.294
7699,1397.061
7700,1353.851
7701,1350.186
7702,1354.575
7703,1312.813
7704,1346.521
7705,1298.154
7706,1301.094
7707,1326.024
7708,1280.597
7709,1294.489
7710,1309.873
7711,1263.722
7712,1287.927
7713,1284.262
7714,1272.543
7715,1304.035
7716,1309.873
7717,1298.921
7718,1335.527
7719,1369.959
7720,1370.683
7721,1402.942
7722,1446.877
7723,1487.190
7724,1550.898
7725,1605.871
7726,1660.800
7727,1705.502
7728,1737.719
7729,1789.026
7730,1839.566
7731,1891.556
7732,1896.712
7733,1956.031
7734,1954.582
7735,2008.787
7736,2008.063
7737,2023.446
7738,2052.765
7739,2067.381
7740,2090.862
7741,2062.992
7742,2073.262
7743,2058.603
7744,2051.998
7745,2051.273
7746,2015.392
7747,1986.798
7748,1953.133
7749,1901.101
7750,1891.556
7751,1836.626
7752,1812.464
7753,1745.773
7754,1697.448
7755,1674.735
7756,1635.913
7757,1576.552
7758,1553.114
7759,1532.617
7760,1484.250
7761,1462.985
7762,1389.007
7763,1361.180
7764,1316.478
7765,1282.046
7766,1257.884
7767,1240.284
7768,1239.560
7769,1167.755
7770,1172.911
7771,1117.214
7772,1141.377
7773,1071.063
7774,1092.328
7775,1031.517
7776,1012.469
7777,1038.080
7778,989.031
7779,970.707
7780,957.497
7781,952.383
7782,969.216
7783,954.599
7784,942.113
7785,930.394
7786,922.340
7787,919.400
7788,920.891
7789,915.010
7790,927.454
7791,936.999
7792,929.670
7793,958.221
7794,964.102
7795,973.647
7796,971.431
7797,986.091
7798,1035.907
7799,1024.912
7800,1081.333
7801,1071.788
7802,1124.544
7803,1095.226
7804,1140.652
7805,1140.652
7806,1125.268
7807,1151.647
7808,1130.382
7809,1129.658
7810,1138.479
7811,1099.615
7812,1061.518
7813,1061.518
7814,1049.074
7815,1001.474
7816,977.270
7817,991.929
7818,978.037
7819,958.221
7820,906.232
7821,913.562
7822,884.243
7823,908.405
7824,873.249
7825,909.172
7826,887.183
7827,897.453
7828,926.729
7829,945.053
7830,917.226
7831,966.318
7832,982.426
7833,994.145
7834,998.534
7835,1010.977
7836,999.983
7837,996.318
7838,995.594
7839,1047.626
7840,1049.074
7841,1044.685
7842,1030.026
7843,1072.512
7844,1056.404
7845,1060.793
7846,1087.896
7847,1064.458
7848,1083.507
7849,1123.820
7850,1119.430
7851,1145.808
7852,1137.712
7853,1123.820
7854,1144.317
7855,1170.695
7856,1131.149
7857,1144.317
7858,1162.641
7859,1178.025
7860,1142.144
7861,1139.203
7862,1142.144
7863,1156.760
7864,1179.474
7865,1150.922
7866,1128.933
7867,1125.993
7868,1136.987
7869,1125.993
7870,1103.280
7871,1121.604
7872,1118.663
7873,1096.717
7874,1082.782
7875,1101.106
7876,1090.112
7877,1054.231
7878,1063.734
7879,1053.464
7880,1010.253
7881,1046.134
7882,1005.864
7883,1010.253
7884,1008.080
7885,972.880
7886,1012.469
7887,967.767
7888,986.815
7889,969.216
7890,965.551
7891,997.810
7892,1021.247
7893,1005.864
7894,1011.702
7895,997.085
7896,1031.517
7897,1010.253
7898,1046.134
7899,1044.685
7900,1059.344
7901,1093.052
7902,1066.674
7903,1079.117
7904,1108.436
7905,1132.598
7906,1141.377
7907,1148.706
7908,1153.863
7909,1172.911
7910,1175.809
7911,1176.576
7912,1179.474
7913,1163.365
7914,1204.403
7915,1183.863
7916,1197.798
7917,1189.744
7918,1154.587
7919,1169.971
7920,1143.593
7921,1140.652
7922,1161.192
7923,1142.868
7924,1137.712
7925,1142.144
7926,1131.874
7927,1136.263
7928,1112.825
7929,1093.777
7930,1101.106
7931,1090.112
7932,1088.663
7933,1109.160
7934,1115.766
7935,1100.382
7936,1097.441
7937,1058.620
7938,1070.339
7939,1077.668
7940,1080.566
7941,1063.009
7942,1026.361
7943,1051.290
7944,1049.799
7945,1016.134
7946,1053.464
7947,1029.301
7948,1016.134
7949,1040.296
7950,1027.086
7951,1043.236
7952,1024.188
7953,996.318
7954,1032.966
7955,1021.247
7956,1017.583
7957,1003.648
7958,1057.128
7959,1057.128
7960,1037.356
7961,1088.663
7962,1079.842
7963,1120.155
7964,1166.306
7965,1193.408
7966,1228.565
7967,1251.278
7968,1276.932
7969,1317.202
7970,1356.791
7971,1422.715
7972,1468.866
7973,1529.676
7974,1595.601
7975,1667.405
7976,1753.102
7977,1828.572
7978,1898.885
7979,1991.954
7980,2082.041
7981,2159.726
7982,2230.040
7983,2291.574
7984,2381.703
7985,2437.357
7986,2483.508
7987,2550.199
7988,2575.811
7989,2627.118
7990,2665.939
7991,2693.042
7992,2708.426
7993,2744.307
7994,2745.074
7995,2745.798
7996,2719.420
7997,2693.766
7998,2659.334
7999,2636.621
8000,2594.135
8001,2519.432
8002,2487.898
8003,2414.644
8004,2385.368
8005,2311.347
8006,2282.071
8007,2235.878
8008,2189.727
8009,2137.013
8010,1785.361
8011,1742.108
8012,1723.826
8013,1671.070
8014,1633.698
8015,1632.249
8016,1598.541
8017,1572.887
8018,1566.282
8019,1577.276
8020,1564.109
8021,1556.779
8022,1528.952
8023,1525.287
8024,1549.449
8025,1526.736
8026,1547.233
8027,1558.228
8028,1583.157
8029,1562.617
8030,1585.331
8031,1625.643
8032,1609.535
8033,1649.806
8034,1654.962
8035,1678.400
8036,1693.059
8037,1693.059
8038,1711.340
8039,1712.108
8040,1732.605
8041,1742.875
8042,1726.000
8043,1741.383
8044,1749.437
8045,1723.826
8046,1753.827
8047,1721.610
8048,1703.286
8049,1704.011
8050,1692.292
8051,1705.502
8052,1687.903
8053,1669.579
8054,1649.806
8055,1636.638
8056,1663.740
8057,1634.422
8058,1618.314
8059,1643.968
8060,1599.265
8061,1616.098
8062,1572.887
8063,1566.282
8064,1572.887
8065,1526.736
8066,1510.628
8067,1462.261
8068,1450.542
8069,1408.780
8070,1379.504
8071,1374.348
8072,1307.700
8073,1293.765
8074,1254.943
8075,1211.008
8076,1194.133
8077,1189.019
8078,1134.814
8079,1098.890
8080,1103.280
8081,1096.717
8082,1081.333
8083,1056.404
8084,1050.566
8085,1038.847
8086,1017.583
8087,999.259
8088,986.091
8089,947.994
8090,928.221
8091,913.562
8092,923.789
8093,906.956
8094,912.837
8095,873.249
8096,862.254
8097,849.086
8098,804.384
8099,821.984
8100,825.649
8101,789.000
8102,786.060
8103,753.119
8104,734.795
8105,726.017
8106,742.125
8107,739.909
8108,746.514
8109,733.346
8110,729.682
8111,723.801
8112,706.244
8113,709.909
8114,697.423
8115,651.996
8116,642.493
8117,677.650
8118,622.720
8119,648.331
8120,602.947
8121,631.499
8122,618.331
8123,595.618
8124,558.969
8125,542.137
8126,550.915
8127,572.904
8128,574.353
8129,568.515
8130,576.569
8131,578.742
8132,545.802
8133,601.456
8134,589.737
8135,588.288
8136,629.283
8137,651.996
8138,651.996
8139,669.596
8140,715.022
8141,741.400
8142,755.293
8143,764.838
8144,765.563
8145,814.654
8146,830.038
8147,839.541
8148,838.092
8149,890.124
8150,882.070
8151,914.286
8152,938.448
8153,934.059
8154,938.448
8155,958.988
8156,987.540
8157,985.366
8158,1003.648
8159,1013.918
8160,1010.977
8161,1010.253
8162,1027.853
8163,1014.642
8164,999.259
8165,1034.415
8166,1038.847
8167,1016.858
8168,1046.134
8169,1029.301
8170,1037.356
8171,1031.517
8172,1038.847
8173,1031.517
8174,1069.614
8175,1034.415
8176,1078.393
8177,1060.793
8178,1092.328
8179,1066.674
8180,1085.723
8181,1067.398
8182,1104.047
8183,1077.668
8184,1112.101
8185,1081.333
8186,1089.387
8187,1108.436
8188,1105.496
8189,1083.507
8190,1123.095
8191,1112.825
8192,1101.106
8193,1128.209
8194,1161.192
8195,1164.090
8196,1158.976
8197,1136.987
8198,1169.246
8199,1195.624
8200,1201.463
8201,1183.138
8202,1205.127
8203,1216.846
8204,1213.906
8205,1232.230
8206,1198.522
8207,1205.127
8208,1204.403
8209,1212.457
8210,1219.062
8211,1249.830
8212,1239.560
8213,1292.316
8214,1297.430
8215,1276.208
8216,1326.748
8217,1296.705
8218,1347.245
8219,1313.538
8220,1359.689
8221,1331.862
8222,1380.229
8223,1351.635
8224,1355.299
8225,1386.834
8226,1401.451
8227,1403.667
8228,1372.175
8229,1377.288
8230,1417.601
8231,1397.061
8232,1387.558
8233,1389.732
8234,1419.775
8235,1408.780
8236,1394.888
8237,1403.667
8238,1414.661
8239,1408.780
8240,1421.266
8241,1440.272
8242,1457.872
8243,1451.266
8244,1437.374
8245,1427.829
8246,1435.158
8247,1432.218
8248,1438.099
8249,1452.034
8250,1449.818
8251,1443.937
8252,1441.764
8253,1414.661
8254,1424.888
8255,1393.397
8256,1387.558
8257,1389.732
8258,1388.283
8259,1394.888
8260,1385.342
8261,1384.618
8262,1390.456
8263,1385.342
8264,1387.558
8265,1387.558
8266,1405.840
8267,1416.834
8268,1401.451
8269,1408.780
8270,1397.786
8271,1400.002
8272,1421.266
8273,1417.601
8274,1402.218
8275,1420.499
8276,1398.553
8277,1398.553
8278,1414.661
8279,1409.505
8280,1386.067
8281,1416.834
8282,1392.672
8283,1380.229
8284,1374.348
8285,1386.834
8286,1380.953
8287,1343.581
8288,1323.083
8289,1312.089
8290,1330.413
8291,1293.765
8292,1324.532
8293,1286.435
8294,1266.662
8295,1295.256
8296,1251.278
8297,1256.392
8298,1244.673
8299,1238.835
8300,1235.170
8301,1249.830
8302,1262.273
8303,1255.668
8304,1260.057
8305,1241.775
8306,1250.554
8307,1252.003
8308,1254.219
8309,1266.662
8310,1272.543
8311,1247.614
8312,1267.387
8313,1257.884
8314,1298.921
8315,1306.208
8316,1276.208
8317,1295.256
8318,1306.208
8319,1326.024
8320,1318.694
8321,1300.370
8322,1314.305
8323,1351.635
8324,1350.910
8325,1346.521
8326,1331.137
8327,1321.592
8328,1362.629
8329,1345.072
8330,1332.586
8331,1318.694
8332,1328.197
8333,1323.083
8334,1356.024
8335,1345.072
8336,1339.191
8337,1321.592
8338,1346.521
8339,1347.970
8340,1354.575
8341,1347.245
8342,1383.169
8343,1374.348
8344,1384.618
8345,1375.839
8346,1368.510
8347,1390.456
8348,1422.715
8349,1399.277
8350,1417.601
8351,1435.158
8352,1416.834
8353,1424.164
8354,1447.602
8355,1430.045
8356,1436.650
8357,1450.542
8358,1469.591
8359,1473.255
8360,1445.428
8361,1443.212
8362,1443.937
8363,1446.877
8364,1487.915
8365,1487.915
8366,1490.131
8367,1457.872
8368,1477.645
8369,1465.926
8370,1500.358
8371,1482.801
8372,1493.028
8373,1479.861
8374,1464.477
8375,1464.477
8376,1463.752
8377,1500.358
8378,1501.082
8379,1479.861
8380,1476.196
8381,1465.201
8382,1491.579
8383,1505.514
8384,1490.855
8385,1473.980
8386,1471.082
8387,1476.920
8388,1507.688
8389,1514.293
8390,1504.023
8391,1476.196
8392,1484.250
8393,1501.849
8394,1478.369
8395,1495.244
8396,1498.185
8397,1462.985
8398,1457.872
8399,1456.423
8400,1464.477
8401,1460.812
8402,1458.596
8403,1444.704
8404,1432.218
8405,1462.261
8406,1446.153
8407,1417.601
8408,1423.439
8409,1449.818
8410,1410.272
8411,1400.002
8412,1417.601
8413,1397.061
8414,1428.553
8415,1392.672
8416,1424.888
8417,1394.888
8418,1410.272
8419,1390.456
8420,1416.834
8421,1390.456
8422,1397.061
8423,1400.002
8424,1400.726
8425,1402.942
8426,1408.056
8427,1412.445
8428,1419.775
8429,1428.553
8430,1398.553
8431,1397.061
8432,1435.883
8433,1405.840
8434,1409.505
8435,1412.445
8436,1420.499
8437,1419.775
8438,1401.451
8439,1386.834
8440,1389.007
8441,1394.888
8442,1371.408
8443,1400.002
8444,1372.175
8445,1342.132
8446,1335.527
8447,1326.024
8448,1334.802
8449,1333.353
8450,1322.359
8451,1304.759
8452,1335.527
8453,1326.024
8454,1288.651
8455,1295.981
8456,1284.986
8457,1270.327
8458,1264.489
8459,1260.057
8460,1260.824
8461,1290.824
8462,1297.430
8463,1268.878
8464,1262.997
8465,1258.608
8466,1291.591
8467,1307.700
8468,1284.262
8469,1286.435
8470,1293.040
8471,1315.029
8472,1317.970
8473,1346.521
8474,1354.575
8475,1347.245
8476,1359.689
8477,1414.661
8478,1405.840
8479,1435.883
8480,1427.829
8481,1427.829
8482,1455.698
8483,1449.818
8484,1463.752
8485,1468.142
8486,1473.980
8487,1482.801
8488,1498.185
8489,1483.525
8490,1487.190
8491,1505.514
8492,1464.477
8493,1481.309
8494,1460.088
8495,1439.548
8496,1460.088
8497,1435.883
8498,1411.721
8499,1438.099
8500,1384.618
8501,1372.899
8502,1375.839
8503,1376.564
8504,1368.510
8505,1324.532
8506,1354.575
8507,1341.407
8508,1298.921
8509,1322.359
8510,1270.327
8511,1300.370
8512,1273.267
8513,1246.165
8514,1273.992
8515,1265.938
8516,1269.602
8517,1266.662
8518,1243.949
8519,1262.273
8520,1252.727
8521,1258.608
8522,1265.213
8523,1223.451
8524,1242.500
8525,1249.830
8526,1233.679
8527,1272.543
8528,1279.872
8529,1284.986
8530,1287.927
8531,1265.938
8532,1279.105
8533,1262.273
8534,1265.938
8535,1299.645
8536,1310.640
8537,1300.370
8538,1287.927
8539,1336.251
8540,1337.742
8541,1339.916
8542,1326.748
8543,1319.418
8544,1330.413
8545,1334.078
8546,1348.737
8547,1367.785
8548,1395.612
8549,1389.732
8550,1418.326
8551,1407.331
8552,1397.786
8553,1416.834
8554,1435.158
8555,1424.164
8556,1421.266
8557,1443.937
8558,1476.196
8559,1438.823
8560,1447.602
8561,1478.369
8562,1469.591
8563,1460.088
8564,1484.250
8565,1475.471
8566,1506.239
8567,1485.699
8568,1487.915
8569,1491.579
8570,1527.461
8571,1498.185
8572,1499.634
8573,1526.012
8574,1502.574
8575,1504.023
8576,1519.406
8577,1534.790
8578,1502.574
8579,1508.412
8580,1535.515
8581,1502.574
8582,1504.747
8583,1519.406
8584,1520.131
8585,1507.688
8586,1540.671
8587,1500.358
8588,1524.563
8589,1504.747
8590,1527.461
8591,1516.466
8592,1513.568
8593,1505.514
8594,1504.747
8595,1516.466
8596,1533.341
8597,1501.849
8598,1525.287
8599,1516.466
8600,1506.963
8601,1517.233
8602,1496.693
8603,1502.574
8604,1477.645
8605,1491.579
8606,1462.261
8607,1485.699
8608,1452.034
8609,1434.434
8610,1449.818
8611,1449.818
8612,1410.272
8613,1394.121
8614,1405.115
8615,1414.661
8616,1386.834
8617,1372.899
8618,1366.294
8619,1369.234
8620,1375.072
8621,1396.337
8622,1388.283
8623,1392.672
8624,1375.839
8625,1373.624
8626,1393.397
8627,1379.504
8628,1393.397
8629,1383.894
8630,1383.169
8631,1405.115
8632,1389.732
8633,1405.115
8634,1382.402
8635,1386.834
8636,1391.223
8637,1373.624
8638,1369.959
8639,1365.569
8640,1375.072
8641,1386.067
8642,1381.678
8643,1359.689
8644,1331.862
8645,1336.975
8646,1317.970
8647,1331.137
8648,1309.148
8649,1276.208
8650,1280.597
8651,1271.051
8652,1267.387
8653,1286.435
8654,1259.332
8655,1257.884
8656,1270.327
8657,1235.170
8658,1233.679
