'sample interval','wrist_ppg'
'0.00390625 sec','mV'
0,1799.270
1,1793.418
2,1844.688
3,1825.629
4,1820.516
5,1854.942
6,1839.575
7,1831.508
8,1850.539
9,1849.090
10,1865.196
11,1831.508
12,1864.457
13,1836.621
14,1797.793
15,1826.368
16,1791.204
17,1755.301
18,1735.532
19,1717.950
20,1693.778
21,1675.458
22,1687.899
23,1634.442
24,1605.130
25,1605.868
26,1561.899
27,1528.950
28,1534.802
29,1519.407
30,1487.169
31,1468.138
32,1421.243
33,1392.669
34,1421.243
35,1358.243
36,1390.482
37,1358.982
38,1391.931
39,1386.079
40,1340.661
41,1377.302
42,1361.907
43,1363.357
44,1384.603
45,1413.915
46,1373.638
47,1378.751
48,1429.310
49,1434.423
50,1424.169
51,1430.759
52,1421.982
53,1421.243
54,1364.095
55,1384.603
56,1350.177
57,1353.103
58,1302.572
59,1323.079
60,1269.595
61,1232.955
62,1197.080
63,1183.162
64,1164.841
65,1104.767
66,1086.447
67,1051.283
68,1010.268
69,996.350
70,980.217
71,954.568
72,948.717
73,931.135
74,911.365
75,921.619
76,942.127
77,956.045
78,972.150
79,975.815
80,970.701
81,1047.619
82,1075.455
83,1065.939
84,1114.283
85,1160.439
86,1178.021
87,1257.154
88,1252.751
89,1329.669
90,1316.490
91,1383.892
92,1419.056
93,1422.720
94,1423.431
95,1490.833
96,1456.407
97,1517.958
98,1479.841
99,1520.884
100,1512.817
101,1488.646
102,1528.212
103,1491.571
104,1477.653
105,1499.638
106,1474.728
107,1452.743
108,1447.630
109,1457.146
110,1430.759
111,1386.079
112,1375.087
113,1369.236
114,1398.548
115,1339.923
116,1369.236
117,1387.556
118,1343.587
119,1342.849
120,1367.759
121,1408.802
122,1420.505
123,1402.185
124,1399.997
125,1424.169
126,1448.341
127,1516.481
128,1530.399
129,1518.669
130,1593.399
131,1570.704
132,1600.727
133,1621.235
134,1646.884
135,1665.942
136,1684.973
137,1723.090
138,1717.950
139,1734.793
140,1753.852
141,1750.926
142,1770.696
143,1794.868
144,1757.516
145,1758.965
146,1765.555
147,1752.375
148,1751.637
149,1780.211
150,1738.458
151,1715.762
152,1701.844
153,1709.145
154,1717.950
155,1665.204
156,1632.966
157,1661.540
158,1624.899
159,1577.294
160,1559.712
161,1547.243
162,1527.474
163,1503.302
164,1485.720
165,1479.130
166,1452.005
167,1462.259
168,1406.587
169,1446.153
170,1420.505
171,1396.333
172,1370.685
173,1345.775
174,1386.079
175,1357.505
176,1320.154
177,1323.079
178,1336.997
179,1293.767
180,1276.923
181,1291.580
182,1298.169
183,1257.865
184,1298.908
185,1246.162
186,1297.431
187,1247.611
188,1301.095
189,1260.080
190,1294.505
191,1312.826
192,1317.939
193,1279.111
194,1282.064
195,1289.365
196,1316.490
197,1328.193
198,1311.349
199,1291.580
200,1287.915
201,1289.365
202,1295.244
203,1336.997
204,1333.333
205,1311.349
206,1346.513
207,1332.595
208,1289.365
209,1310.611
210,1326.744
211,1319.415
212,1263.005
213,1280.587
214,1256.416
215,1249.087
216,1276.185
217,1232.955
218,1267.408
219,1222.701
220,1263.005
221,1231.505
222,1218.326
223,1273.998
224,1263.005
225,1235.169
226,1293.029
227,1279.111
228,1254.201
229,1295.982
230,1276.185
231,1279.111
232,1325.267
233,1296.693
234,1301.833
235,1326.005
236,1318.677
237,1334.072
238,1317.228
239,1344.325
240,1354.579
241,1324.556
242,1347.251
243,1377.302
244,1339.923
245,1330.408
246,1348.728
247,1358.243
248,1375.825
249,1320.154
250,1309.900
251,1325.267
252,1296.693
253,1284.990
254,1288.654
255,1243.236
256,1233.693
257,1219.037
258,1186.088
259,1172.170
260,1160.439
261,1145.783
262,1157.513
263,1116.470
264,1082.045
265,1100.365
266,1071.053
267,1063.014
268,1083.521
269,1086.447
270,1082.783
271,1072.529
272,1022.709
273,1058.611
274,1016.119
275,1063.724
276,1040.291
277,1058.611
278,1046.881
279,1030.775
280,1063.724
281,1088.635
282,1086.447
283,1120.873
284,1150.185
285,1180.209
286,1181.685
287,1268.857
288,1273.259
289,1344.325
290,1405.849
291,1440.302
292,1545.056
293,1569.227
294,1627.852
295,1719.426
296,1800.008
297,1826.368
298,1919.418
299,1983.895
300,2030.762
301,2068.140
302,2115.746
303,2134.804
304,2166.304
305,2197.066
306,2209.535
307,2232.968
308,2253.476
309,2221.976
310,2219.789
311,2211.722
312,2171.418
313,2161.902
314,2123.074
315,2076.180
316,2004.402
317,1927.485
318,1876.188
319,1806.598
320,1734.793
321,1682.047
322,1644.696
323,1553.122
324,1481.317
325,1435.900
326,1419.056
327,1334.810
328,1291.580
329,1294.505
330,1263.005
331,1231.505
332,1217.587
333,1207.334
334,1193.416
335,1200.005
336,1194.865
337,1204.408
338,1208.072
339,1198.529
340,1206.595
341,1231.505
342,1220.513
343,1219.775
344,1246.162
345,1267.408
346,1290.103
347,1298.169
348,1309.162
349,1320.892
350,1326.005
351,1311.349
352,1298.908
353,1290.841
354,1300.357
355,1312.826
356,1315.751
357,1328.193
358,1322.341
359,1268.857
360,1262.267
361,1285.728
362,1304.021
363,1303.310
364,1282.064
365,1246.900
366,1256.416
367,1253.490
368,1259.341
369,1219.037
370,1220.513
371,1222.701
372,1159.701
373,1165.580
374,1106.217
375,1088.635
376,1060.799
377,1083.521
378,1058.611
379,1054.947
380,1042.478
381,1036.627
382,1003.650
383,1058.611
384,1034.439
385,1052.021
386,1100.365
387,1102.553
388,1159.701
389,1211.709
390,1202.931
391,1242.498
392,1290.841
393,1363.357
394,1377.302
395,1440.302
396,1504.751
397,1517.220
398,1528.950
399,1579.481
400,1578.032
401,1616.122
402,1638.817
403,1616.122
404,1661.540
405,1662.278
406,1635.153
407,1609.532
408,1605.130
409,1620.524
410,1569.227
411,1541.392
412,1528.212
413,1517.958
414,1441.751
415,1448.341
416,1402.923
417,1357.505
418,1325.267
419,1310.611
420,1254.201
421,1244.685
422,1245.423
423,1178.021
424,1196.341
425,1169.244
426,1188.275
427,1203.670
428,1185.349
429,1211.709
430,1245.423
431,1248.349
432,1308.423
433,1341.400
434,1402.185
435,1397.071
436,1449.817
437,1519.407
438,1539.204
439,1552.384
440,1632.966
441,1628.563
442,1657.876
443,1682.047
444,1721.614
445,1720.137
446,1723.801
447,1742.860
448,1780.211
449,1756.778
450,1740.672
451,1728.204
452,1730.391
453,1723.090
454,1734.793
455,1686.450
456,1678.383
457,1681.309
458,1630.040
459,1609.532
460,1614.645
461,1570.704
462,1536.251
463,1534.802
464,1507.704
465,1477.653
466,1465.212
467,1479.130
468,1454.220
469,1423.431
470,1443.966
471,1441.013
472,1399.997
473,1409.513
474,1378.013
475,1418.318
476,1371.423
477,1383.892
478,1405.138
479,1398.548
480,1371.423
481,1405.849
482,1389.005
483,1397.810
484,1408.802
485,1381.677
486,1369.236
487,1410.989
488,1377.302
489,1397.071
490,1361.907
491,1390.482
492,1364.095
493,1330.408
494,1361.907
495,1332.595
496,1339.923
497,1317.939
498,1321.603
499,1276.185
500,1320.154
501,1312.826
502,1298.908
503,1284.990
504,1266.669
505,1257.154
506,1241.021
507,1218.326
508,1220.513
509,1212.447
510,1199.267
511,1189.013
512,1189.752
513,1225.654
514,1209.521
515,1202.931
516,1207.334
517,1210.998
518,1213.923
519,1203.670
520,1182.423
521,1175.834
522,1179.498
523,1190.490
524,1191.201
525,1189.013
526,1182.423
527,1203.670
528,1205.119
529,1220.513
530,1235.169
531,1254.939
532,1262.267
533,1322.341
534,1358.982
535,1367.759
536,1419.794
537,1452.005
538,1504.751
539,1572.153
540,1598.540
541,1602.204
542,1632.227
543,1680.598
544,1657.137
545,1651.286
546,1654.212
547,1670.317
548,1630.040
549,1658.614
550,1598.540
551,1620.524
552,1578.032
553,1534.063
554,1492.310
555,1453.482
556,1438.825
557,1387.556
558,1334.072
559,1305.497
560,1301.833
561,1271.072
562,1216.111
563,1172.170
564,1194.127
565,1140.670
566,1117.209
567,1087.185
568,1090.111
569,1117.947
570,1095.252
571,1079.857
572,1106.217
573,1078.381
574,1125.275
575,1144.334
576,1112.095
577,1163.365
578,1178.021
579,1156.775
580,1198.529
581,1243.947
582,1259.341
583,1230.767
584,1263.005
585,1292.318
586,1293.029
587,1338.474
588,1349.439
589,1368.497
590,1408.064
591,1435.161
592,1450.556
593,1501.087
594,1512.817
595,1516.481
596,1590.473
597,1581.696
598,1624.899
599,1649.809
600,1687.899
601,1713.547
602,1704.770
603,1709.883
604,1723.090
605,1743.598
606,1786.090
607,1794.868
608,1792.680
609,1775.836
610,1760.442
611,1762.629
612,1788.278
613,1772.172
614,1767.770
615,1753.114
616,1706.219
617,1681.309
618,1654.950
619,1668.130
620,1611.720
621,1578.743
622,1594.138
623,1531.138
624,1498.899
625,1495.235
626,1475.466
627,1462.997
628,1392.669
629,1372.161
630,1397.071
631,1356.056
632,1317.228
633,1339.923
634,1308.423
635,1301.095
636,1299.646
637,1308.423
638,1278.400
639,1271.072
640,1249.826
641,1273.998
642,1288.654
643,1293.767
644,1289.365
645,1284.990
646,1278.400
647,1282.775
648,1337.736
649,1315.751
650,1331.146
651,1360.431
652,1338.474
653,1364.095
654,1408.802
655,1368.497
656,1394.884
657,1409.513
658,1405.138
659,1427.833
660,1380.966
661,1401.474
662,1414.653
663,1371.423
664,1340.661
665,1368.497
666,1317.939
667,1273.998
668,1295.244
669,1260.080
670,1230.029
671,1195.603
672,1145.045
673,1081.306
674,1099.627
675,1023.447
676,1052.760
677,1008.053
678,976.553
679,1019.783
680,1011.717
681,978.029
682,1036.627
683,1004.389
684,1068.865
685,1071.791
686,1116.470
687,1143.595
688,1182.423
689,1188.275
690,1233.693
691,1270.333
692,1293.029
693,1323.079
694,1398.548
695,1435.900
696,1436.638
697,1444.677
698,1468.138
699,1496.712
700,1550.196
701,1562.638
702,1558.974
703,1531.138
704,1534.802
705,1534.063
706,1534.802
707,1529.661
708,1517.220
709,1553.122
710,1528.212
711,1504.751
712,1502.563
713,1497.423
714,1477.653
715,1416.841
716,1438.825
717,1393.407
718,1353.841
719,1358.982
720,1339.923
721,1359.720
722,1332.595
723,1308.423
724,1320.154
725,1340.661
726,1342.849
727,1310.611
728,1364.833
729,1341.400
730,1372.161
731,1410.989
732,1410.989
733,1435.161
734,1436.638
735,1465.212
736,1541.392
737,1552.384
738,1567.778
739,1587.548
740,1628.563
741,1645.434
742,1679.860
743,1703.294
744,1737.719
745,1725.278
746,1753.114
747,1748.711
748,1758.965
749,1761.918
750,1763.368
751,1754.590
752,1746.524
753,1742.860
754,1728.942
755,1723.090
756,1705.508
757,1688.637
758,1721.614
759,1676.934
760,1645.434
761,1654.950
762,1665.204
763,1604.391
764,1614.645
765,1590.473
766,1576.556
767,1595.614
768,1551.645
769,1517.958
770,1540.653
771,1487.169
772,1509.892
773,1498.899
774,1480.579
775,1462.997
776,1441.013
777,1418.318
778,1410.989
779,1410.989
780,1348.728
781,1367.759
782,1375.825
783,1367.759
784,1360.431
785,1309.162
786,1306.236
787,1317.228
788,1339.923
789,1336.259
790,1315.013
791,1277.662
792,1313.564
793,1320.892
794,1263.744
795,1282.775
796,1301.833
797,1257.865
798,1279.849
799,1294.505
800,1251.275
801,1273.259
802,1271.783
803,1271.783
804,1311.349
805,1297.431
806,1269.595
807,1304.021
808,1311.349
809,1291.580
810,1334.072
811,1311.349
812,1308.423
813,1341.400
814,1321.603
815,1317.939
816,1296.693
817,1315.013
818,1331.146
819,1311.349
820,1298.169
821,1335.521
822,1312.087
823,1309.162
824,1315.751
825,1316.490
826,1310.611
827,1270.333
828,1233.693
829,1259.341
830,1210.259
831,1224.916
832,1183.162
833,1171.431
834,1175.095
835,1214.662
836,1210.998
837,1192.677
838,1186.826
839,1243.947
840,1219.037
841,1275.447
842,1316.490
843,1347.251
844,1363.357
845,1381.677
846,1389.005
847,1449.079
848,1475.466
849,1462.997
850,1483.505
851,1515.743
852,1550.196
853,1504.751
854,1550.907
855,1506.228
856,1546.532
857,1504.751
858,1472.540
859,1492.310
860,1454.958
861,1399.997
862,1393.407
863,1367.759
864,1284.990
865,1287.177
866,1232.244
867,1207.334
868,1190.490
869,1128.939
870,1084.260
871,1031.514
872,1045.432
873,1005.127
874,977.291
875,965.561
876,949.455
877,905.487
878,882.791
879,920.143
880,946.529
881,925.283
882,964.111
883,1000.725
884,1020.521
885,1032.963
886,1101.842
887,1172.170
888,1220.513
889,1252.751
890,1302.572
891,1332.595
892,1383.154
893,1475.466
894,1482.794
895,1553.122
896,1595.614
897,1598.540
898,1632.227
899,1659.352
900,1728.942
901,1700.368
902,1729.680
903,1737.008
904,1725.278
905,1730.391
906,1765.555
907,1725.278
908,1739.934
909,1723.090
910,1724.540
911,1699.629
912,1690.852
913,1672.532
914,1613.907
915,1617.571
916,1625.637
917,1567.040
918,1599.989
919,1542.868
920,1542.868
921,1574.368
922,1524.548
923,1554.571
924,1541.392
925,1518.669
926,1542.868
927,1506.228
928,1515.743
929,1526.735
930,1494.497
931,1491.571
932,1487.907
933,1493.786
934,1471.064
935,1463.735
936,1427.095
937,1416.841
938,1391.931
939,1387.556
940,1402.923
941,1372.900
942,1374.349
943,1309.900
944,1347.251
945,1299.646
946,1290.103
947,1273.998
948,1268.857
949,1290.841
950,1306.947
951,1284.990
952,1273.259
953,1307.685
954,1295.982
955,1274.736
956,1317.939
957,1284.990
958,1276.185
959,1325.267
960,1298.908
961,1281.326
962,1324.556
963,1289.365
964,1316.490
965,1263.744
966,1297.431
967,1254.939
968,1254.201
969,1261.529
970,1235.169
971,1217.587
972,1182.423
973,1219.775
974,1213.185
975,1200.744
976,1205.119
977,1180.947
978,1142.857
979,1154.588
980,1159.701
981,1109.170
982,1120.135
983,1076.193
984,1024.896
985,1015.381
986,1032.963
987,1010.978
988,999.275
989,1000.014
990,1004.389
991,999.275
992,1016.857
993,1005.127
994,1072.529
995,1063.014
996,1123.799
997,1190.490
998,1230.029
999,1255.677
1000,1336.997
1001,1343.587
1002,1411.728
1003,1468.138
1004,1527.474
1005,1586.809
1006,1671.794
1007,1725.278
1008,1768.508
1009,1801.457
1010,1795.606
1011,1863.746
1012,1860.793
1013,1852.016
1014,1852.754
1015,1890.844
1016,1841.762
1017,1832.246
1018,1848.352
1019,1802.196
1020,1750.926
1021,1739.196
1022,1686.450
1023,1638.106
1024,1617.571
1025,1556.048
1026,1547.243
1027,1476.204
1028,1422.720
1029,1385.341
1030,1368.497
1031,1298.169
1032,1295.244
1033,1260.080
1034,1236.619
1035,1217.587
1036,1206.595
1037,1202.193
1038,1195.603
1039,1205.857
1040,1257.154
1041,1282.064
1042,1289.365
1043,1291.580
1044,1337.736
1045,1335.521
1046,1384.603
1047,1443.228
1048,1481.317
1049,1477.653
1050,1509.892
1051,1578.032
1052,1578.032
1053,1590.473
1054,1635.153
1055,1665.942
1056,1695.227
1057,1713.547
1058,1701.106
1059,1714.286
1060,1734.055
1061,1730.391
1062,1730.391
1063,1726.727
1064,1723.090
1065,1723.090
1066,1728.942
1067,1720.137
1068,1737.719
1069,1704.032
1070,1679.122
1071,1685.712
1072,1687.188
1073,1652.735
1074,1681.309
1075,1622.712
1076,1633.704
1077,1616.122
1078,1576.556
1079,1572.153
1080,1574.368
1081,1546.532
1082,1510.630
1083,1499.638
1084,1530.399
1085,1520.145
1086,1482.056
1087,1451.294
1088,1465.923
1089,1487.169
1090,1471.802
1091,1446.892
1092,1447.630
1093,1449.817
1094,1435.900
1095,1440.302
1096,1414.653
1097,1390.482
1098,1377.302
1099,1413.915
1100,1371.423
1101,1386.079
1102,1404.400
1103,1367.759
1104,1389.743
1105,1386.818
1106,1353.103
1107,1386.079
1108,1348.728
1109,1391.931
1110,1350.915
1111,1361.907
1112,1368.497
1113,1345.775
1114,1307.685
1115,1312.087
1116,1291.580
1117,1320.154
1118,1290.103
1119,1248.349
1120,1259.341
1121,1264.482
1122,1220.513
1123,1224.177
1124,1256.416
1125,1227.841
1126,1231.505
1127,1253.490
1128,1238.095
1129,1216.111
1130,1243.236
1131,1270.333
1132,1263.005
1133,1263.005
1134,1260.080
1135,1260.080
1136,1256.416
1137,1239.572
1138,1251.275
1139,1250.537
1140,1233.693
1141,1219.037
1142,1208.072
1143,1201.455
1144,1199.267
1145,1191.201
1146,1185.349
1147,1180.209
1148,1170.693
1149,1181.685
1150,1210.259
1151,1224.177
1152,1227.103
1153,1220.513
1154,1287.915
1155,1266.669
1156,1317.228
1157,1375.087
1158,1391.220
1159,1427.833
1160,1443.228
1161,1469.587
1162,1488.646
1163,1455.669
1164,1465.923
1165,1520.884
1166,1488.646
1167,1487.169
1168,1520.145
1169,1484.243
1170,1454.958
1171,1481.317
1172,1429.310
1173,1394.884
1174,1389.743
1175,1396.333
1176,1322.341
1177,1324.556
1178,1318.677
1179,1255.677
1180,1241.021
1181,1254.201
1182,1208.783
1183,1179.498
1184,1156.037
1185,1149.447
1186,1132.603
1187,1118.685
1188,1104.029
1189,1108.431
1190,1109.170
1191,1117.947
1192,1127.463
1193,1120.873
1194,1167.029
1195,1195.603
1196,1195.603
1197,1184.611
1198,1249.826
1199,1256.416
1200,1315.013
1201,1299.646
1202,1364.095
1203,1397.810
1204,1408.802
1205,1451.294
1206,1518.669
1207,1530.399
1208,1577.294
1209,1617.571
1210,1645.434
1211,1694.516
1212,1734.055
1213,1745.047
1214,1747.262
1215,1783.137
1216,1816.114
1217,1798.532
1218,1796.344
1219,1808.047
1220,1819.039
1221,1834.434
1222,1783.137
1223,1807.336
1224,1803.672
1225,1780.950
1226,1755.301
1227,1768.508
1228,1728.204
1229,1762.629
1230,1747.973
1231,1733.344
1232,1676.196
1233,1673.981
1234,1694.516
1235,1634.442
1236,1619.786
1237,1625.637
1238,1599.989
1239,1580.958
1240,1578.743
1241,1567.040
1242,1532.614
1243,1509.153
1244,1509.892
1245,1505.489
1246,1488.646
1247,1443.966
1248,1399.997
1249,1385.341
1250,1414.653
1251,1348.728
1252,1358.982
1253,1321.603
1254,1319.415
1255,1337.736
1256,1294.505
1257,1338.474
1258,1296.693
1259,1335.521
1260,1289.365
1261,1328.931
1262,1323.079
1263,1314.275
1264,1312.826
1265,1327.482
1266,1353.841
1267,1315.751
1268,1358.243
1269,1317.228
1270,1357.505
1271,1321.603
1272,1338.474
1273,1323.079
1274,1321.603
1275,1315.013
1276,1311.349
1277,1269.595
1278,1305.497
1279,1298.169
1280,1269.595
1281,1248.349
1282,1238.834
1283,1224.177
1284,1234.431
1285,1224.916
1286,1232.244
1287,1230.029
1288,1225.654
1289,1176.545
1290,1182.423
1291,1214.662
1292,1193.416
1293,1157.513
1294,1186.826
1295,1125.275
1296,1150.924
1297,1106.955
1298,1075.455
1299,1081.306
1300,1030.037
1301,1004.389
1302,1010.268
1303,982.404
1304,978.768
1305,989.022
1306,989.022
1307,1005.127
1308,1006.604
1309,1010.978
1310,1061.537
1311,1035.178
1312,1104.029
1313,1118.685
1314,1126.013
1315,1175.834
1316,1219.775
1317,1229.318
1318,1239.572
1319,1305.497
1320,1315.013
1321,1331.146
1322,1362.646
1323,1395.595
1324,1429.310
1325,1454.220
1326,1483.505
1327,1539.204
1328,1536.989
1329,1542.868
1330,1586.071
1331,1590.473
1332,1573.630
1333,1614.645
1334,1570.704
1335,1568.489
1336,1607.317
1337,1564.825
1338,1572.891
1339,1563.376
1340,1569.966
1341,1520.884
1342,1537.727
1343,1515.743
1344,1515.032
1345,1504.751
1346,1476.204
1347,1471.064
1348,1495.974
1349,1513.556
1350,1509.153
1351,1530.399
1352,1535.540
1353,1528.950
1354,1523.810
1355,1529.661
1356,1547.243
1357,1557.497
1358,1577.294
1359,1591.950
1360,1591.212
1361,1622.712
1362,1666.680
1363,1660.063
1364,1690.852
1365,1712.098
1366,1689.376
1367,1701.844
1368,1731.129
1369,1758.254
1370,1749.450
1371,1742.860
1372,1797.082
1373,1770.696
1374,1773.622
1375,1762.629
1376,1799.270
1377,1782.426
1378,1741.383
1379,1772.883
1380,1741.383
1381,1706.958
1382,1700.368
1383,1717.950
1384,1687.899
1385,1652.735
1386,1635.891
1387,1658.614
1388,1623.450
1389,1595.614
1390,1564.825
1391,1565.563
1392,1526.735
1393,1516.481
1394,1539.204
1395,1479.841
1396,1514.294
1397,1493.786
1398,1449.079
1399,1454.958
1400,1472.540
1401,1440.302
1402,1416.841
1403,1432.235
1404,1419.056
1405,1411.728
1406,1445.415
1407,1435.161
1408,1408.802
1409,1406.587
1410,1409.513
1411,1452.005
1412,1414.653
1413,1397.071
1414,1421.243
1415,1436.638
1416,1433.712
1417,1424.907
1418,1414.653
1419,1402.185
1420,1389.005
1421,1342.138
1422,1347.990
1423,1340.661
1424,1348.728
1425,1282.064
1426,1315.013
1427,1260.080
1428,1283.513
1429,1230.029
1430,1230.029
1431,1216.111
1432,1195.603
1433,1189.752
1434,1187.537
1435,1179.498
1436,1200.744
1437,1198.529
1438,1198.529
1439,1195.603
1440,1193.416
1441,1200.005
1442,1190.490
1443,1183.162
1444,1200.744
1445,1205.857
1446,1200.005
1447,1230.767
1448,1178.759
1449,1219.037
1450,1185.349
1451,1208.783
1452,1205.857
1453,1170.693
1454,1208.072
1455,1186.826
1456,1157.513
1457,1202.931
1458,1189.752
1459,1162.627
1460,1209.521
1461,1211.709
1462,1193.416
1463,1235.908
1464,1254.939
1465,1284.990
1466,1280.587
1467,1307.685
1468,1316.490
1469,1345.064
1470,1418.318
1471,1405.849
1472,1427.095
1473,1496.712
1474,1498.899
1475,1484.243
1476,1547.981
1477,1511.368
1478,1542.130
1479,1531.138
1480,1564.825
1481,1531.138
1482,1523.071
1483,1493.048
1484,1473.989
1485,1471.064
1486,1467.399
1487,1429.310
1488,1372.161
1489,1340.661
1490,1341.400
1491,1327.482
1492,1249.826
1493,1271.072
1494,1227.103
1495,1184.611
1496,1159.701
1497,1143.595
1498,1151.662
1499,1159.701
1500,1145.783
1501,1141.381
1502,1145.783
1503,1149.447
1504,1147.259
1505,1147.998
1506,1151.662
1507,1157.513
1508,1172.881
1509,1206.595
1510,1232.244
1511,1260.080
1512,1287.915
1513,1293.767
1514,1304.759
1515,1337.736
1516,1399.997
1517,1402.923
1518,1435.900
1519,1438.825
1520,1505.489
1521,1506.228
1522,1497.423
1523,1556.048
1524,1570.704
1525,1568.489
1526,1604.391
1527,1591.950
1528,1574.368
1529,1605.130
1530,1590.473
1531,1602.204
1532,1619.786
1533,1579.481
1534,1614.645
1535,1605.868
1536,1551.645
1537,1550.196
1538,1583.884
1539,1535.540
1540,1576.556
1541,1534.063
1542,1549.458
1543,1575.079
1544,1541.392
1545,1578.032
1546,1553.833
1547,1585.360
1548,1549.458
1549,1590.473
1550,1544.317
1551,1547.243
1552,1584.622
1553,1532.614
1554,1572.891
1555,1517.220
1556,1529.661
1557,1515.032
1558,1525.997
1559,1528.950
1560,1491.571
1561,1458.595
1562,1449.079
1563,1448.341
1564,1438.087
1565,1424.907
1566,1419.056
1567,1413.177
1568,1411.728
1569,1430.759
1570,1424.907
1571,1427.095
1572,1454.220
1573,1460.810
1574,1462.259
1575,1448.341
1576,1473.989
1577,1467.399
1578,1452.005
1579,1444.677
1580,1443.966
1581,1453.482
1582,1454.958
1583,1436.638
1584,1435.900
1585,1421.243
1586,1366.310
1587,1341.400
1588,1361.169
1589,1293.029
1590,1306.236
1591,1230.029
1592,1198.529
1593,1174.357
1594,1158.252
1595,1152.373
1596,1081.306
1597,1062.275
1598,1028.560
1599,1028.560
1600,1015.381
1601,989.732
1602,987.545
1603,980.217
1604,989.022
1605,986.068
1606,987.545
1607,994.135
1608,999.275
1609,994.873
1610,991.947
1611,975.104
1612,1031.514
1613,1013.932
1614,1061.537
1615,1036.627
1616,1098.888
1617,1084.260
1618,1126.013
1619,1163.365
1620,1201.455
1621,1274.736
1622,1272.521
1623,1349.439
1624,1372.161
1625,1445.415
1626,1443.966
1627,1493.048
1628,1564.114
1629,1561.899
1630,1641.032
1631,1638.817
1632,1676.196
1633,1710.622
1634,1744.309
1635,1773.622
1636,1833.696
1637,1854.203
1638,1844.688
1639,1890.844
1640,1875.449
1641,1879.852
1642,1890.106
1643,1857.867
1644,1870.336
1645,1852.754
1646,1800.746
1647,1802.196
1648,1756.778
1649,1738.458
1650,1676.196
1651,1619.786
1652,1607.317
1653,1531.876
1654,1536.251
1655,1491.571
1656,1422.720
1657,1416.841
1658,1368.497
1659,1336.997
1660,1322.341
1661,1364.833
1662,1320.154
1663,1339.923
1664,1370.685
1665,1358.982
1666,1356.056
1667,1396.333
1668,1432.235
1669,1455.669
1670,1498.899
1671,1524.548
1672,1559.712
1673,1562.638
1674,1582.407
1675,1609.532
1676,1643.958
1677,1655.688
1678,1695.965
1679,1714.286
1680,1758.254
1681,1773.622
1682,1764.106
1683,1756.040
1684,1795.606
1685,1779.500
1686,1798.532
1687,1795.606
1688,1788.278
1689,1758.254
1690,1735.532
1691,1741.383
1692,1734.055
1693,1721.614
1694,1675.458
1695,1654.212
1696,1626.376
1697,1627.852
1698,1610.270
1699,1552.384
1700,1539.204
1701,1510.630
1702,1499.638
1703,1462.997
1704,1443.228
1705,1428.571
1706,1445.415
1707,1441.013
1708,1400.736
1709,1421.243
1710,1386.079
1711,1406.587
1712,1361.907
1713,1383.154
1714,1407.325
1715,1367.021
1716,1383.892
1717,1408.064
1718,1359.720
1719,1372.161
1720,1410.989
1721,1408.064
1722,1408.064
1723,1400.736
1724,1422.720
1725,1419.056
1726,1417.579
1727,1432.235
1728,1419.794
1729,1385.341
1730,1387.556
1731,1394.884
1732,1407.325
1733,1432.235
1734,1431.497
1735,1405.138
1736,1372.161
1737,1362.646
1738,1368.497
1739,1387.556
1740,1336.259
1741,1362.646
1742,1321.603
1743,1356.056
1744,1323.079
1745,1321.603
1746,1309.162
1747,1300.357
1748,1320.892
1749,1275.447
1750,1287.177
1751,1312.826
1752,1295.244
1753,1270.333
1754,1321.603
1755,1302.572
1756,1292.318
1757,1284.990
1758,1262.267
1759,1301.095
1760,1279.849
1761,1257.154
1762,1246.900
1763,1271.072
1764,1266.669
1765,1257.154
1766,1243.947
1767,1224.916
1768,1219.775
1769,1208.783
1770,1197.080
1771,1183.162
1772,1133.342
1773,1128.939
1774,1137.006
1775,1075.455
1776,1093.775
1777,1094.513
1778,1098.178
1779,1054.947
1780,1061.537
1781,1085.709
1782,1065.939
1783,1072.529
1784,1100.365
1785,1079.119
1786,1109.881
1787,1145.045
1788,1139.193
1789,1181.685
1790,1218.326
1791,1240.283
1792,1248.349
1793,1246.900
1794,1288.654
1795,1333.333
1796,1315.013
1797,1382.415
1798,1364.833
1799,1415.392
1800,1394.146
1801,1388.267
1802,1398.548
1803,1403.661
1804,1396.333
1805,1426.384
1806,1419.794
1807,1399.259
1808,1377.302
1809,1373.638
1810,1358.243
1811,1319.415
1812,1315.013
1813,1263.744
1814,1265.193
1815,1237.357
1816,1205.119
1817,1172.170
1818,1160.439
1819,1142.119
1820,1134.080
1821,1145.783
1822,1151.662
1823,1146.521
1824,1172.170
1825,1186.088
1826,1192.677
1827,1204.408
1828,1289.365
1829,1284.990
1830,1350.915
1831,1416.130
1832,1445.415
1833,1542.868
1834,1559.712
1835,1610.981
1836,1662.278
1837,1728.204
1838,1786.801
1839,1832.246
1840,1825.629
1841,1865.934
1842,1876.926
1843,1921.606
1844,1933.336
1845,1918.680
1846,1894.508
1847,1908.426
1848,1891.582
1849,1866.672
1850,1830.770
1851,1838.836
1852,1784.614
1853,1754.590
1854,1702.555
1855,1674.719
1856,1663.016
1857,1599.989
1858,1591.950
1859,1547.243
1860,1508.415
1861,1501.825
1862,1501.087
1863,1438.087
1864,1440.302
1865,1447.630
1866,1428.571
1867,1380.966
1868,1367.021
1869,1386.079
1870,1390.482
1871,1343.587
1872,1335.521
1873,1349.439
1874,1293.767
1875,1301.095
1876,1262.267
1877,1286.439
1878,1256.416
1879,1209.521
1880,1194.127
1881,1206.595
1882,1213.923
1883,1196.341
1884,1178.021
1885,1182.423
1886,1173.619
1887,1158.252
1888,1169.955
1889,1172.881
1890,1184.611
1891,1193.416
1892,1204.408
1893,1216.111
1894,1204.408
1895,1223.439
1896,1232.955
1897,1257.865
1898,1266.669
1899,1324.556
1900,1294.505
1901,1316.490
1902,1375.087
1903,1339.185
1904,1394.146
1905,1410.251
1906,1418.318
1907,1412.466
1908,1413.177
1909,1413.915
1910,1410.989
1911,1413.177
1912,1408.802
1913,1446.892
1914,1457.884
1915,1430.048
1916,1408.064
1917,1407.325
1918,1443.228
1919,1445.415
1920,1427.833
1921,1407.325
1922,1437.376
1923,1417.579
1924,1400.736
1925,1391.220
1926,1361.907
1927,1332.595
1928,1293.767
1929,1282.775
1930,1295.982
1931,1232.955
1932,1256.416
1933,1213.923
1934,1171.431
1935,1193.416
1936,1173.619
1937,1190.490
1938,1173.619
1939,1174.357
1940,1221.252
1941,1183.162
1942,1252.751
1943,1236.619
1944,1301.833
1945,1309.900
1946,1315.013
1947,1364.833
1948,1421.982
1949,1446.892
1950,1459.333
1951,1482.794
1952,1554.571
1953,1564.825
1954,1594.876
1955,1639.555
1956,1650.548
1957,1631.489
1958,1686.450
1959,1646.884
1960,1660.801
1961,1698.891
1962,1646.145
1963,1684.973
1964,1654.212
1965,1616.860
1966,1598.540
1967,1621.235
1968,1591.950
1969,1572.153
1970,1520.884
1971,1500.376
1972,1507.704
1973,1495.235
1974,1467.399
1975,1481.317
1976,1419.056
1977,1432.235
1978,1452.743
1979,1441.751
1980,1405.138
1981,1440.302
1982,1416.130
1983,1413.915
1984,1447.630
1985,1476.915
1986,1491.571
1987,1457.146
1988,1484.243
1989,1534.802
1990,1516.481
1991,1548.720
1992,1570.704
1993,1580.958
1994,1594.138
1995,1621.973
1996,1658.614
1997,1649.809
1998,1640.294
1999,1648.360
2000,1649.809
2001,1653.473
2002,1688.637
2003,1652.735
2004,1694.516
2005,1647.622
2006,1686.450
2007,1667.391
2008,1627.852
2009,1622.712
2010,1649.071
2011,1587.548
2012,1606.606
2013,1561.899
2014,1586.071
2015,1528.950
2016,1536.989
2017,1522.333
2018,1506.228
2019,1509.153
2020,1517.958
2021,1498.899
2022,1459.333
2023,1452.005
2024,1465.923
2025,1444.677
2026,1413.915
2027,1447.630
2028,1402.185
2029,1441.013
2030,1387.556
2031,1407.325
2032,1405.138
2033,1394.884
2034,1384.603
2035,1402.185
2036,1419.794
2037,1404.400
2038,1366.310
2039,1380.966
2040,1399.259
2041,1370.685
2042,1397.071
2043,1368.497
2044,1378.013
2045,1356.767
2046,1345.775
2047,1375.087
2048,1342.138
2049,1359.720
2050,1354.579
2051,1311.349
2052,1356.056
2053,1338.474
2054,1311.349
2055,1298.908
2056,1301.095
2057,1345.775
2058,1328.931
2059,1304.021
2060,1317.939
2061,1347.251
2062,1312.087
2063,1345.775
2064,1331.146
2065,1334.810
2066,1328.193
2067,1324.556
2068,1313.564
2069,1304.021
2070,1312.826
2071,1353.841
2072,1339.185
2073,1316.490
2074,1354.579
2075,1325.267
2076,1306.236
2077,1354.579
2078,1348.728
2079,1328.193
2080,1300.357
2081,1310.611
2082,1290.103
2083,1311.349
2084,1284.251
2085,1275.447
2086,1261.529
2087,1248.349
2088,1232.955
2089,1200.005
2090,1166.291
2091,1180.947
2092,1185.349
2093,1157.513
2094,1129.677
2095,1156.775
2096,1183.873
2097,1197.791
2098,1163.365
2099,1171.431
2100,1210.259
2101,1257.865
2102,1276.923
2103,1277.662
2104,1271.072
2105,1322.341
2106,1323.818
2107,1341.400
2108,1376.564
2109,1408.064
2110,1396.333
2111,1431.497
2112,1394.884
2113,1402.185
2114,1397.810
2115,1437.376
2116,1385.341
2117,1398.548
2118,1413.915
2119,1397.071
2120,1356.767
2121,1382.415
2122,1330.408
2123,1328.193
2124,1326.005
2125,1325.267
2126,1298.169
2127,1257.154
2128,1293.767
2129,1267.408
2130,1278.400
2131,1262.267
2132,1246.162
2133,1289.365
2134,1295.244
2135,1298.908
2136,1304.759
2137,1300.357
2138,1310.611
2139,1306.947
2140,1329.669
2141,1363.357
2142,1343.587
2143,1402.923
2144,1402.185
2145,1420.505
2146,1457.146
2147,1436.638
2148,1458.595
2149,1479.841
2150,1477.653
2151,1481.317
2152,1485.720
2153,1491.571
2154,1483.505
2155,1479.130
2156,1493.048
2157,1515.032
2158,1507.704
2159,1447.630
2160,1460.810
2161,1479.130
2162,1421.243
2163,1465.212
2164,1410.251
2165,1447.630
2166,1404.400
2167,1448.341
2168,1411.728
2169,1437.376
2170,1434.423
2171,1419.794
2172,1433.712
2173,1460.810
2174,1451.294
2175,1453.482
2176,1496.712
2177,1453.482
2178,1463.735
2179,1505.489
2180,1455.669
2181,1495.974
2182,1470.325
2183,1478.392
2184,1457.146
2185,1471.802
2186,1409.513
2187,1414.653
2188,1391.220
2189,1377.302
2190,1360.431
2191,1372.900
2192,1317.939
2193,1337.736
2194,1296.693
2195,1287.915
2196,1271.783
2197,1304.759
2198,1279.849
2199,1254.939
2200,1253.490
2201,1271.072
2202,1265.931
2203,1264.482
2204,1304.021
2205,1295.244
2206,1291.580
2207,1339.923
2208,1301.833
2209,1356.767
2210,1320.892
2211,1350.915
2212,1380.228
2213,1350.915
2214,1353.841
2215,1381.677
2216,1409.513
2217,1375.087
2218,1397.810
2219,1402.185
2220,1424.907
2221,1428.571
2222,1442.489
2223,1446.153
2224,1438.087
2225,1402.923
2226,1435.161
2227,1449.079
2228,1409.513
2229,1408.802
2230,1418.318
2231,1442.489
2232,1402.923
2233,1395.595
2234,1394.884
2235,1427.095
2236,1363.357
2237,1370.685
2238,1346.513
2239,1350.177
2240,1315.751
2241,1276.923
2242,1259.341
2243,1232.955
2244,1211.709
2245,1145.783
2246,1116.470
2247,1110.619
2248,1118.685
2249,1127.463
2250,1118.685
2251,1090.111
2252,1136.267
2253,1162.627
2254,1178.021
2255,1198.529
2256,1219.037
2257,1205.857
2258,1276.923
2259,1273.998
2260,1345.064
2261,1343.587
2262,1378.013
2263,1421.982
2264,1443.228
2265,1527.474
2266,1511.368
2267,1536.989
2268,1593.399
2269,1624.899
2270,1587.548
2271,1610.981
2272,1631.489
2273,1628.563
2274,1591.212
2275,1605.130
2276,1558.235
2277,1558.974
2278,1532.614
2279,1487.169
2280,1496.712
2281,1480.579
2282,1402.185
2283,1408.064
2284,1352.392
2285,1372.161
2286,1319.415
2287,1319.415
2288,1321.603
2289,1287.915
2290,1261.529
2291,1301.095
2292,1305.497
2293,1286.439
2294,1330.408
2295,1304.759
2296,1351.654
2297,1394.884
2298,1427.095
2299,1439.564
2300,1457.146
2301,1451.294
2302,1522.333
2303,1537.727
2304,1549.458
2305,1554.571
2306,1559.712
2307,1623.450
2308,1627.852
2309,1608.055
2310,1621.235
2311,1641.770
2312,1622.712
2313,1672.532
2314,1652.735
2315,1621.235
2316,1657.876
2317,1635.891
2318,1600.727
2319,1599.989
2320,1625.637
2321,1577.294
2322,1555.309
2323,1572.891
2324,1573.630
2325,1558.974
2326,1534.802
2327,1534.802
2328,1504.040
2329,1482.794
2330,1460.810
2331,1482.056
2332,1501.087
2333,1477.653
2334,1451.294
2335,1478.392
2336,1501.087
2337,1498.161
2338,1465.923
2339,1488.646
2340,1515.032
2341,1508.415
2342,1476.915
2343,1488.646
2344,1517.220
2345,1539.915
2346,1548.720
2347,1550.196
2348,1562.638
2349,1538.466
2350,1529.661
2351,1536.989
2352,1542.130
2353,1579.481
2354,1583.884
2355,1558.974
2356,1554.571
2357,1534.063
2358,1506.966
2359,1529.661
2360,1527.474
2361,1512.817
2362,1483.505
2363,1462.259
2364,1441.751
2365,1440.302
2366,1378.013
2367,1408.064
2368,1377.302
2369,1338.474
2370,1320.892
2371,1353.103
2372,1325.267
2373,1301.095
2374,1286.439
2375,1318.677
2376,1309.900
2377,1318.677
2378,1301.833
2379,1291.580
2380,1296.693
2381,1312.826
2382,1288.654
2383,1289.365
2384,1298.908
2385,1297.431
2386,1288.654
2387,1272.521
2388,1263.005
2389,1274.736
2390,1279.111
2391,1299.646
2392,1293.029
2393,1279.111
2394,1252.013
2395,1229.318
2396,1226.365
2397,1205.857
2398,1139.193
2399,1131.865
2400,1113.545
2401,1082.783
2402,1050.545
2403,1049.096
2404,1038.842
2405,1046.142
2406,1034.439
2407,1041.767
2408,1052.760
2409,1083.521
2410,1126.752
2411,1127.463
2412,1197.080
2413,1227.103
2414,1274.736
2415,1326.744
2416,1340.661
2417,1373.638
2418,1449.079
2419,1504.040
2420,1494.497
2421,1556.786
2422,1558.974
2423,1591.950
2424,1641.032
2425,1619.786
2426,1611.720
2427,1626.376
2428,1621.235
2429,1620.524
2430,1599.278
2431,1563.376
2432,1565.563
2433,1515.743
2434,1490.833
2435,1511.368
2436,1476.915
2437,1418.318
2438,1382.415
2439,1363.357
2440,1377.302
2441,1344.325
2442,1325.267
2443,1295.982
2444,1276.185
2445,1302.572
2446,1285.728
2447,1278.400
2448,1259.341
2449,1299.646
2450,1277.662
2451,1298.169
2452,1286.439
2453,1338.474
2454,1358.982
2455,1330.408
2456,1349.439
2457,1382.415
2458,1413.915
2459,1425.646
2460,1449.817
2461,1488.646
2462,1506.228
2463,1516.481
2464,1564.825
2465,1572.891
2466,1552.384
2467,1602.204
2468,1574.368
2469,1598.540
2470,1569.966
2471,1545.056
2472,1541.392
2473,1568.489
2474,1509.153
2475,1485.720
2476,1513.556
2477,1490.833
2478,1457.146
2479,1413.915
2480,1383.892
2481,1375.087
2482,1376.564
2483,1369.236
2484,1319.415
2485,1283.513
2486,1311.349
2487,1258.603
2488,1291.580
2489,1246.900
2490,1226.365
2491,1251.275
2492,1245.423
2493,1216.111
2494,1265.931
2495,1243.236
2496,1265.931
2497,1260.080
2498,1251.275
2499,1270.333
2500,1257.154
2501,1263.744
2502,1320.154
2503,1325.267
2504,1327.482
2505,1310.611
2506,1289.365
2507,1324.556
2508,1304.021
2509,1339.923
2510,1309.900
2511,1331.146
2512,1333.333
2513,1313.564
2514,1356.056
2515,1315.013
2516,1364.833
2517,1325.267
2518,1359.720
2519,1323.079
2520,1360.431
2521,1356.056
2522,1336.259
2523,1390.482
2524,1384.603
2525,1359.720
2526,1352.392
2527,1401.474
2528,1378.751
2529,1387.556
2530,1350.915
2531,1388.267
2532,1391.931
2533,1356.767
2534,1384.603
2535,1410.989
2536,1391.220
2537,1383.892
2538,1427.095
2539,1397.810
2540,1418.318
2541,1408.802
2542,1449.817
2543,1419.056
2544,1406.587
2545,1443.228
2546,1411.728
2547,1428.571
2548,1408.802
2549,1367.759
2550,1398.548
2551,1359.720
2552,1327.482
2553,1290.841
2554,1272.521
2555,1247.611
2556,1175.095
2557,1180.209
2558,1128.939
2559,1100.365
2560,1054.947
2561,1087.924
2562,1057.873
2563,1021.232
2564,1044.693
2565,1056.424
2566,1041.767
2567,1043.955
2568,1101.842
2569,1120.135
2570,1143.595
2571,1148.709
2572,1202.931
2573,1257.865
2574,1291.580
2575,1319.415
2576,1342.138
2577,1428.571
2578,1430.048
2579,1496.712
2580,1542.130
2581,1525.286
2582,1589.735
2583,1569.966
2584,1612.458
2585,1595.614
2586,1644.696
2587,1597.063
2588,1607.317
2589,1582.407
2590,1602.942
2591,1565.563
2592,1541.392
2593,1529.661
2594,1450.556
2595,1444.677
2596,1386.818
2597,1361.907
2598,1356.767
2599,1335.521
2600,1274.736
2601,1242.498
2602,1265.193
2603,1258.603
2604,1208.072
2605,1219.775
2606,1221.990
2607,1234.431
2608,1261.529
2609,1291.580
2610,1288.654
2611,1325.267
2612,1363.357
2613,1372.900
2614,1405.849
2615,1461.548
2616,1460.810
2617,1490.833
2618,1520.145
2619,1576.556
2620,1616.860
2621,1647.622
2622,1662.278
2623,1701.106
2624,1730.391
2625,1756.040
2626,1782.426
2627,1782.426
2628,1819.039
2629,1830.770
2630,1841.024
2631,1874.739
2632,1858.606
2633,1835.172
2634,1866.672
2635,1816.114
2636,1843.211
2637,1823.442
2638,1786.801
2639,1747.973
2640,1726.727
2641,1715.762
2642,1682.047
2643,1672.532
2644,1658.614
2645,1651.286
2646,1596.325
2647,1613.196
2648,1560.450
2649,1539.915
2650,1555.309
2651,1502.563
2652,1490.122
2653,1445.415
2654,1424.169
2655,1413.915
2656,1402.185
2657,1409.513
2658,1350.177
2659,1372.161
2660,1334.810
2661,1332.595
2662,1328.193
2663,1278.400
2664,1304.021
2665,1292.318
2666,1280.587
2667,1268.857
2668,1252.751
2669,1230.029
2670,1223.439
2671,1226.365
2672,1235.169
2673,1277.662
2674,1259.341
2675,1249.087
2676,1255.677
2677,1270.333
2678,1285.728
2679,1311.349
2680,1306.947
2681,1291.580
2682,1342.849
2683,1339.185
2684,1331.857
2685,1365.572
2686,1353.103
2687,1372.900
2688,1362.646
2689,1375.825
2690,1347.990
2691,1383.892
2692,1348.728
2693,1381.677
2694,1356.056
2695,1325.267
2696,1373.638
2697,1344.325
2698,1318.677
2699,1334.072
2700,1332.595
2701,1339.185
2702,1319.415
2703,1287.177
2704,1320.154
2705,1298.169
2706,1281.326
2707,1264.482
2708,1271.072
2709,1263.744
2710,1243.947
2711,1236.619
2712,1238.834
2713,1221.252
2714,1183.162
2715,1189.752
2716,1166.291
2717,1196.341
2718,1156.775
2719,1200.005
2720,1170.693
2721,1216.111
2722,1252.751
2723,1265.931
2724,1271.783
2725,1285.728
2726,1311.349
2727,1383.892
2728,1388.267
2729,1449.079
2730,1431.497
2731,1458.595
2732,1516.481
2733,1520.884
2734,1506.966
2735,1499.638
2736,1500.376
2737,1494.497
2738,1492.310
2739,1504.751
2740,1452.005
2741,1444.677
2742,1420.505
2743,1407.325
2744,1395.595
2745,1344.325
2746,1350.177
2747,1286.439
2748,1259.341
2749,1253.490
2750,1226.365
2751,1234.431
2752,1213.923
2753,1145.045
2754,1150.185
2755,1161.916
2756,1099.627
2757,1130.416
2758,1101.842
2759,1123.799
2760,1072.529
2761,1114.283
2762,1081.306
2763,1102.553
2764,1115.021
2765,1104.029
2766,1129.677
2767,1136.267
2768,1118.685
2769,1169.955
2770,1189.752
2771,1151.662
2772,1207.334
2773,1219.775
2774,1241.759
2775,1235.908
2776,1268.119
2777,1278.400
2778,1282.775
2779,1290.841
2780,1279.111
2781,1284.251
2782,1336.259
2783,1319.415
2784,1306.236
2785,1304.021
2786,1346.513
2787,1303.310
2788,1301.095
2789,1336.259
2790,1312.826
2791,1298.908
2792,1298.169
2793,1287.915
2794,1310.611
2795,1330.408
2796,1318.677
2797,1359.720
2798,1342.849
2799,1390.482
2800,1363.357
2801,1380.228
2802,1399.997
2803,1455.669
2804,1490.833
2805,1508.415
2806,1508.415
2807,1512.817
2808,1563.376
2809,1575.079
2810,1566.302
2811,1565.563
2812,1613.196
2813,1615.384
2814,1604.391
2815,1599.989
2816,1590.473
2817,1606.606
2818,1556.786
2819,1578.032
2820,1545.794
2821,1561.161
2822,1511.368
2823,1517.220
2824,1530.399
2825,1476.204
2826,1473.989
2827,1495.235
2828,1448.341
2829,1433.712
2830,1440.302
2831,1450.556
2832,1406.587
2833,1379.489
2834,1376.564
2835,1410.989
2836,1378.013
2837,1368.497
2838,1371.423
2839,1354.579
2840,1325.267
2841,1320.154
2842,1316.490
2843,1326.005
2844,1357.505
2845,1350.915
2846,1332.595
2847,1319.415
2848,1308.423
2849,1306.947
2850,1319.415
2851,1309.162
2852,1281.326
2853,1251.275
2854,1266.669
2855,1273.259
2856,1283.513
2857,1280.587
2858,1230.767
2859,1227.103
2860,1242.498
2861,1257.865
2862,1232.244
2863,1200.005
2864,1213.185
2865,1232.244
2866,1171.431
2867,1200.744
2868,1153.111
2869,1182.423
2870,1117.209
2871,1111.357
2872,1118.685
2873,1131.127
2874,1120.873
2875,1119.424
2876,1106.955
2877,1075.455
2878,1090.849
2879,1111.357
2880,1118.685
2881,1140.670
2882,1128.939
2883,1175.834
2884,1226.365
2885,1255.677
2886,1287.915
2887,1326.005
2888,1344.325
2889,1364.833
2890,1453.482
2891,1461.548
2892,1539.204
2893,1564.825
2894,1619.786
2895,1632.966
2896,1710.622
2897,1696.704
2898,1722.352
2899,1745.786
2900,1770.696
2901,1780.211
2902,1806.598
2903,1808.786
2904,1781.688
2905,1750.926
2906,1729.680
2907,1704.032
2908,1699.629
2909,1695.227
2910,1627.852
2911,1595.614
2912,1583.145
2913,1561.899
2914,1504.040
2915,1478.392
2916,1474.728
2917,1398.548
2918,1398.548
2919,1355.318
2920,1368.497
2921,1323.818
2922,1312.826
2923,1276.185
2924,1307.685
2925,1313.564
2926,1317.939
2927,1301.833
2928,1285.728
2929,1351.654
2930,1341.400
2931,1351.654
2932,1372.161
2933,1423.431
2934,1410.989
2935,1443.228
2936,1471.064
2937,1506.966
2938,1536.989
2939,1563.376
2940,1559.712
2941,1617.571
2942,1600.727
2943,1666.680
2944,1641.032
2945,1663.016
2946,1703.294
2947,1665.942
2948,1717.211
2949,1687.899
2950,1685.712
2951,1672.532
2952,1688.637
2953,1661.540
2954,1641.032
2955,1676.934
2956,1619.786
2957,1632.227
2958,1617.571
2959,1588.286
2960,1566.302
2961,1550.907
2962,1537.727
2963,1554.571
2964,1523.071
2965,1509.153
2966,1497.423
2967,1506.228
2968,1449.079
2969,1443.966
2970,1473.251
2971,1460.810
2972,1416.841
2973,1424.907
2974,1377.302
2975,1409.513
2976,1355.318
2977,1367.021
2978,1381.677
2979,1348.728
2980,1316.490
2981,1312.826
2982,1339.185
2983,1338.474
2984,1340.661
2985,1324.556
2986,1308.423
2987,1321.603
2988,1364.095
2989,1348.728
2990,1339.185
2991,1377.302
2992,1359.720
2993,1364.833
2994,1349.439
2995,1383.892
2996,1351.654
2997,1382.415
2998,1329.669
2999,1374.349
3000,1361.907
3001,1333.333
3002,1329.669
3003,1317.939
3004,1279.111
3005,1304.759
3006,1309.162
3007,1294.505
3008,1289.365
3009,1235.908
3010,1260.080
3011,1270.333
3012,1271.072
3013,1254.939
3014,1241.759
3015,1246.162
3016,1282.775
3017,1292.318
3018,1295.982
3019,1324.556
3020,1334.072
3021,1328.193
3022,1318.677
3023,1358.243
3024,1330.408
3025,1307.685
3026,1351.654
3027,1329.669
3028,1290.103
3029,1316.490
3030,1282.775
3031,1256.416
3032,1254.939
3033,1256.416
3034,1254.939
3035,1244.685
3036,1247.611
3037,1206.595
3038,1243.236
3039,1246.900
3040,1253.490
3041,1248.349
3042,1293.029
3043,1305.497
3044,1292.318
3045,1353.103
3046,1375.087
3047,1397.810
3048,1400.736
3049,1392.669
3050,1404.400
3051,1437.376
3052,1425.646
3053,1482.056
3054,1452.005
3055,1500.376
3056,1459.333
3057,1456.407
3058,1498.161
3059,1452.005
3060,1472.540
3061,1466.661
3062,1422.720
3063,1453.482
3064,1408.802
3065,1437.376
3066,1380.228
3067,1410.989
3068,1413.177
3069,1380.966
3070,1347.251
3071,1379.489
3072,1363.357
3073,1335.521
3074,1328.193
3075,1299.646
3076,1312.087
3077,1319.415
3078,1339.185
3079,1339.185
3080,1336.997
3081,1342.138
3082,1346.513
3083,1345.064
3084,1344.325
3085,1364.095
3086,1355.318
3087,1413.915
3088,1402.923
3089,1453.482
3090,1422.720
3091,1446.153
3092,1507.704
3093,1474.728
3094,1492.310
3095,1503.302
3096,1525.997
3097,1535.540
3098,1534.063
3099,1544.317
3100,1553.122
3101,1545.056
3102,1534.063
3103,1518.669
3104,1528.212
3105,1530.399
3106,1474.728
3107,1464.474
3108,1454.958
3109,1454.220
3110,1459.333
3111,1486.458
3112,1438.825
3113,1432.235
3114,1426.384
3115,1423.431
3116,1424.907
3117,1421.243
3118,1419.794
3119,1452.743
3120,1418.318
3121,1418.318
3122,1415.392
3123,1422.720
3124,1453.482
3125,1416.130
3126,1416.841
3127,1423.431
3128,1394.146
3129,1414.653
3130,1359.720
3131,1395.595
3132,1337.736
3133,1370.685
3134,1334.072
3135,1341.400
3136,1347.251
3137,1339.185
3138,1323.818
3139,1329.669
3140,1333.333
3141,1336.997
3142,1335.521
3143,1342.849
3144,1339.185
3145,1330.408
3146,1343.587
3147,1364.095
3148,1355.318
3149,1417.579
3150,1400.736
3151,1422.720
3152,1449.079
3153,1455.669
3154,1435.161
3155,1473.989
3156,1459.333
3157,1454.220
3158,1464.474
3159,1491.571
3160,1438.825
3161,1468.876
3162,1432.235
3163,1433.712
3164,1458.595
3165,1404.400
3166,1390.482
3167,1404.400
3168,1364.095
3169,1387.556
3170,1367.759
3171,1328.193
3172,1314.275
3173,1304.759
3174,1301.095
3175,1295.244
3176,1241.021
3177,1194.127
3178,1202.193
3179,1166.291
3180,1157.513
3181,1087.924
3182,1115.760
3183,1085.709
3184,1065.939
3185,1062.275
3186,1060.060
3187,1052.021
3188,1037.365
3189,1093.037
3190,1094.513
3191,1076.931
3192,1147.998
3193,1159.701
3194,1206.595
3195,1216.849
3196,1241.021
3197,1315.751
3198,1345.064
3199,1347.990
3200,1416.841
3201,1476.204
3202,1513.556
3203,1542.130
3204,1545.056
3205,1559.712
3206,1597.802
3207,1631.489
3208,1641.032
3209,1643.958
3210,1653.473
3211,1700.368
3212,1671.055
3213,1665.942
3214,1704.032
3215,1665.204
3216,1698.180
3217,1677.645
3218,1652.735
3219,1619.786
3220,1642.481
3221,1625.637
3222,1605.868
3223,1598.540
3224,1589.024
3225,1569.966
3226,1516.481
3227,1490.122
3228,1480.579
3229,1457.146
3230,1455.669
3231,1484.243
3232,1423.431
3233,1457.884
3234,1444.677
3235,1456.407
3236,1419.056
3237,1465.923
3238,1435.161
3239,1473.989
3240,1435.900
3241,1486.458
3242,1493.786
3243,1457.146
3244,1485.720
3245,1496.712
3246,1511.368
3247,1527.474
3248,1536.989
3249,1564.114
3250,1554.571
3251,1563.376
3252,1600.727
3253,1635.153
3254,1612.458
3255,1645.434
3256,1627.852
3257,1680.598
3258,1636.630
3259,1680.598
3260,1646.884
3261,1652.735
3262,1637.368
3263,1634.442
3264,1664.465
3265,1635.153
3266,1593.399
3267,1624.188
3268,1602.204
3269,1570.704
3270,1557.497
3271,1531.876
3272,1513.556
3273,1517.220
3274,1465.923
3275,1457.146
3276,1468.138
3277,1411.728
3278,1426.384
3279,1399.997
3280,1366.310
3281,1373.638
3282,1367.021
3283,1356.767
3284,1361.907
3285,1327.482
3286,1291.580
3287,1310.611
3288,1273.998
3289,1314.275
3290,1285.728
3291,1252.751
3292,1268.857
3293,1283.513
3294,1272.521
3295,1255.677
3296,1260.818
3297,1255.677
3298,1235.908
3299,1226.365
3300,1209.521
3301,1227.841
3302,1219.775
3303,1231.505
3304,1227.841
3305,1214.662
3306,1233.693
3307,1252.013
3308,1238.834
3309,1253.490
3310,1284.990
3311,1309.162
3312,1317.939
3313,1334.810
3314,1379.489
3315,1370.685
3316,1367.759
3317,1393.407
3318,1422.720
3319,1411.728
3320,1407.325
3321,1424.169
3322,1407.325
3323,1402.923
3324,1408.802
3325,1420.505
3326,1424.169
3327,1409.513
3328,1405.138
3329,1337.736
3330,1344.325
3331,1312.087
3332,1326.744
3333,1300.357
3334,1284.990
3335,1291.580
3336,1254.939
3337,1282.064
3338,1282.775
3339,1260.080
3340,1304.021
3341,1286.439
3342,1290.841
3343,1321.603
3344,1323.079
3345,1380.966
3346,1368.497
3347,1407.325
3348,1392.669
3349,1401.474
3350,1412.466
3351,1431.497
3352,1445.415
3353,1482.056
3354,1478.392
3355,1445.415
3356,1448.341
3357,1464.474
3358,1455.669
3359,1449.817
3360,1431.497
3361,1382.415
3362,1401.474
3363,1363.357
3364,1375.087
3365,1330.408
3366,1367.021
3367,1329.669
3368,1292.318
3369,1271.783
3370,1279.111
3371,1285.728
3372,1260.818
3373,1241.759
3374,1227.103
3375,1205.119
3376,1158.963
3377,1167.767
3378,1117.209
3379,1158.252
3380,1139.193
3381,1122.349
3382,1136.267
3383,1079.857
3384,1128.939
3385,1090.111
3386,1127.463
3387,1109.881
3388,1104.767
3389,1108.431
3390,1158.963
3391,1179.498
3392,1210.259
3393,1219.775
3394,1225.654
3395,1276.923
3396,1266.669
3397,1329.669
3398,1313.564
3399,1376.564
3400,1361.907
3401,1404.400
3402,1458.595
3403,1430.759
3404,1478.392
3405,1495.235
3406,1490.833
3407,1508.415
3408,1507.704
3409,1492.310
3410,1497.423
3411,1534.063
3412,1530.399
3413,1492.310
3414,1521.622
3415,1534.802
3416,1494.497
3417,1496.712
3418,1518.669
3419,1537.727
3420,1502.563
3421,1552.384
3422,1525.997
3423,1516.481
3424,1571.442
3425,1542.130
3426,1528.212
3427,1573.630
3428,1533.325
3429,1554.571
3430,1542.868
3431,1553.122
3432,1545.794
3433,1524.548
3434,1506.966
3435,1531.138
3436,1496.712
3437,1500.376
3438,1529.661
3439,1478.392
3440,1480.579
3441,1511.368
3442,1504.751
3443,1472.540
3444,1457.884
3445,1452.005
3446,1435.900
3447,1435.161
3448,1463.735
3449,1465.212
3450,1454.220
3451,1437.376
3452,1449.079
3453,1456.407
3454,1446.892
3455,1439.564
3456,1452.005
3457,1466.661
3458,1484.981
3459,1486.458
3460,1458.595
3461,1482.794
3462,1449.079
3463,1456.407
3464,1430.048
3465,1469.587
3466,1416.841
3467,1439.564
3468,1402.923
3469,1411.728
3470,1421.982
3471,1355.318
3472,1357.505
3473,1370.685
3474,1305.497
3475,1334.810
3476,1282.775
3477,1295.982
3478,1281.326
3479,1242.498
3480,1219.775
3481,1200.744
3482,1186.088
3483,1166.291
3484,1132.603
3485,1093.775
3486,1077.642
3487,1057.135
3488,1017.596
3489,1015.381
3490,983.881
3491,969.225
3492,945.791
3493,966.299
3494,1002.939
3495,1018.307
3496,1035.889
3497,1060.060
3498,1081.306
3499,1087.924
3500,1162.627
3501,1209.521
3502,1243.947
3503,1295.982
3504,1301.095
3505,1382.415
3506,1384.603
3507,1410.989
3508,1455.669
3509,1493.048
3510,1529.661
3511,1562.638
3512,1575.079
3513,1561.899
3514,1573.630
3515,1589.024
3516,1583.884
3517,1575.817
3518,1516.481
3519,1499.638
3520,1490.122
3521,1495.974
3522,1480.579
3523,1447.630
3524,1396.333
3525,1415.392
3526,1357.505
3527,1323.818
3528,1287.177
3529,1315.013
3530,1295.244
3531,1282.064
3532,1227.103
3533,1210.259
3534,1235.908
3535,1243.947
3536,1232.955
3537,1238.834
3538,1284.990
3539,1276.923
3540,1285.728
3541,1290.841
3542,1361.169
3543,1347.990
3544,1400.736
3545,1419.794
3546,1424.169
3547,1459.333
3548,1484.981
3549,1515.032
3550,1574.368
3551,1602.942
3552,1602.942
3553,1655.688
3554,1683.524
3555,1675.458
3556,1720.876
3557,1726.727
3558,1728.204
3559,1724.540
3560,1726.727
3561,1732.606
3562,1740.672
3563,1772.883
3564,1778.024
3565,1751.637
3566,1725.278
3567,1727.465
3568,1710.622
3569,1694.516
3570,1691.563
3571,1683.524
3572,1710.622
3573,1654.212
3574,1690.114
3575,1639.555
3576,1655.688
3577,1617.571
3578,1663.016
3579,1623.450
3580,1649.809
3581,1666.680
3582,1625.637
3583,1669.606
3584,1643.958
3585,1677.645
3586,1715.762
3587,1677.645
3588,1701.844
3589,1727.465
3590,1751.637
3591,1718.688
3592,1709.145
3593,1705.508
3594,1698.180
3595,1687.899
3596,1673.981
3597,1669.606
3598,1672.532
3599,1634.442
3600,1593.399
3601,1593.399
3602,1564.825
3603,1527.474
3604,1504.040
3605,1487.907
3606,1416.841
3607,1423.431
3608,1357.505
3609,1350.915
3610,1308.423
3611,1277.662
3612,1256.416
3613,1242.498
3614,1230.767
3615,1168.506
3616,1147.998
3617,1104.767
3618,1111.357
3619,1112.834
3620,1090.849
3621,1069.603
3622,1050.545
3623,1031.514
3624,1002.939
3625,972.889
3626,956.045
3627,940.651
3628,965.561
3629,930.397
3630,927.471
3631,883.530
3632,926.733
3633,904.776
3634,865.948
3635,901.822
3636,882.791
3637,912.076
3638,906.225
3639,900.373
3640,919.404
3641,980.217
3642,1021.971
3643,1059.349
3644,1075.455
3645,1102.553
3646,1155.299
3647,1210.998
3648,1243.947
3649,1265.931
3650,1358.982
3651,1356.767
3652,1427.095
3653,1429.310
3654,1462.259
3655,1490.833
3656,1550.907
3657,1586.809
3658,1602.942
3659,1579.481
3660,1629.302
3661,1591.212
3662,1635.153
3663,1610.981
3664,1583.884
3665,1601.466
3666,1571.442
3667,1550.196
3668,1578.743
3669,1523.071
3670,1517.220
3671,1505.489
3672,1502.563
3673,1453.482
3674,1424.907
3675,1424.907
3676,1435.161
3677,1399.259
3678,1356.767
3679,1363.357
3680,1324.556
3681,1273.259
3682,1257.154
3683,1223.439
3684,1192.677
3685,1137.717
3686,1144.334
3687,1060.799
3688,1076.931
3689,1040.291
3690,1013.193
3691,982.404
3692,921.619
3693,912.815
3694,925.283
3695,932.611
3696,907.701
3697,879.127
3698,902.561
3699,948.717
3700,967.775
3701,992.686
3702,1026.373
3703,1093.775
3704,1147.259
3705,1194.127
3706,1235.169
3707,1317.228
3708,1374.349
3709,1490.122
3710,1530.399
3711,1645.434
3712,1684.973
3713,1756.040
3714,1840.285
3715,1877.664
3716,1920.867
3717,1951.656
3718,2023.434
3719,2039.566
3720,2087.172
3721,2092.312
3722,2106.230
3723,2113.558
3724,2138.468
3725,2131.140
3726,2095.976
3727,2094.500
3728,2084.984
3729,2054.933
3730,2012.441
3731,1987.559
3732,1980.231
3733,1920.156
3734,1895.985
3735,1860.082
3736,1808.047
3737,1740.672
3738,1722.352
3739,1653.473
3740,1642.481
3741,1585.360
3742,1525.997
3743,1487.169
3744,1476.204
3745,1454.958
3746,1412.466
3747,1410.989
3748,1353.841
3749,1349.439
3750,1335.521
3751,1304.021
3752,1273.998
3753,1308.423
3754,1306.947
3755,1281.326
3756,1262.267
3757,1263.005
3758,1268.857
3759,1290.103
3760,1274.736
3761,1270.333
3762,1306.947
3763,1289.365
3764,1269.595
3765,1260.080
3766,1298.169
3767,1271.072
3768,1284.251
3769,1286.439
3770,1268.119
3771,1241.021
3772,1266.669
3773,1280.587
3774,1276.185
3775,1272.521
3776,1263.005
3777,1238.834
3778,1249.087
3779,1235.908
3780,1175.095
3781,1161.177
3782,1180.947
3783,1110.619
3784,1126.013
3785,1078.381
3786,1010.978
3787,1005.127
3788,964.822
3789,939.201
3790,915.029
3791,909.151
3792,892.307
3793,849.815
3794,865.209
3795,843.963
3796,892.307
3797,852.002
3798,904.037
3799,926.733
3800,925.994
3801,968.486
3802,1033.701
3803,1054.947
3804,1104.767
3805,1106.955
3806,1161.177
3807,1221.990
3808,1268.857
3809,1304.021
3810,1380.228
3811,1375.825
3812,1423.431
3813,1457.884
3814,1485.720
3815,1524.548
3816,1561.161
3817,1594.876
3818,1618.309
3819,1610.270
3820,1600.727
3821,1623.450
3822,1665.942
3823,1637.368
3824,1649.071
3825,1660.801
3826,1619.786
3827,1657.876
3828,1621.973
3829,1592.661
3830,1586.071
3831,1551.645
3832,1520.145
3833,1500.376
3834,1495.235
3835,1497.423
3836,1446.892
3837,1435.161
3838,1438.825
3839,1452.743
3840,1408.802
3841,1398.548
3842,1420.505
3843,1437.376
3844,1419.794
3845,1419.056
3846,1443.966
3847,1466.661
3848,1495.974
3849,1508.415
3850,1526.735
3851,1505.489
3852,1565.563
3853,1551.645
3854,1597.802
3855,1613.907
3856,1652.024
3857,1654.212
3858,1665.942
3859,1690.852
3860,1694.516
3861,1712.098
3862,1739.196
3863,1781.688
3864,1754.590
3865,1751.637
3866,1768.508
3867,1772.172
3868,1786.801
3869,1780.211
3870,1759.704
3871,1752.375
3872,1721.614
3873,1702.555
3874,1684.973
3875,1668.130
3876,1654.212
3877,1630.778
3878,1625.637
3879,1597.802
3880,1612.458
3881,1561.161
3882,1524.548
3883,1490.833
3884,1461.548
3885,1446.892
3886,1452.005
3887,1443.228
3888,1408.802
3889,1395.595
3890,1338.474
3891,1363.357
3892,1319.415
3893,1339.923
3894,1306.947
3895,1296.693
3896,1326.744
3897,1315.013
3898,1295.982
3899,1293.029
3900,1284.251
3901,1268.857
3902,1260.080
3903,1286.439
3904,1260.080
3905,1242.498
3906,1290.103
3907,1254.201
3908,1279.849
3909,1238.834
3910,1235.908
3911,1251.275
3912,1244.685
3913,1245.423
3914,1267.408
3915,1259.341
3916,1247.611
3917,1239.572
3918,1240.283
3919,1285.728
3920,1273.998
3921,1269.595
3922,1319.415
3923,1297.431
3924,1328.193
3925,1318.677
3926,1365.572
3927,1341.400
3928,1372.161
3929,1381.677
3930,1394.884
3931,1392.669
3932,1399.259
3933,1395.595
3934,1375.087
3935,1375.825
3936,1371.423
3937,1386.079
3938,1384.603
3939,1339.923
3940,1316.490
3941,1325.267
3942,1286.439
3943,1282.064
3944,1314.275
3945,1284.251
3946,1286.439
3947,1273.998
3948,1273.998
3949,1287.915
3950,1281.326
3951,1275.447
3952,1331.146
3953,1341.400
3954,1315.013
3955,1354.579
3956,1335.521
3957,1384.603
3958,1397.810
3959,1413.915
3960,1384.603
3961,1377.302
3962,1411.728
3963,1420.505
3964,1385.341
3965,1421.982
3966,1388.267
3967,1405.138
3968,1404.400
3969,1375.087
3970,1403.661
3971,1386.818
3972,1380.228
3973,1401.474
3974,1350.915
3975,1331.857
3976,1365.572
3977,1335.521
3978,1290.841
3979,1275.447
3980,1299.646
3981,1253.490
3982,1215.373
3983,1214.662
3984,1198.529
3985,1210.259
3986,1200.744
3987,1185.349
3988,1134.080
3989,1161.916
3990,1160.439
3991,1151.662
3992,1113.545
3993,1111.357
3994,1175.095
3995,1186.826
3996,1198.529
3997,1197.080
3998,1211.709
3999,1263.005
4000,1287.915
4001,1301.833
4002,1350.915
4003,1397.810
4004,1396.333
4005,1405.849
4006,1421.982
4007,1475.466
4008,1451.294
4009,1441.013
4010,1446.892
4011,1460.810
4012,1445.415
4013,1457.146
4014,1467.399
4015,1450.556
4016,1391.931
4017,1392.669
4018,1364.833
4019,1359.720
4020,1368.497
4021,1373.638
4022,1380.966
4023,1380.228
4024,1382.415
4025,1337.736
4026,1340.661
4027,1346.513
4028,1402.923
4029,1399.259
4030,1402.185
4031,1392.669
4032,1426.384
4033,1467.399
4034,1465.212
4035,1455.669
4036,1520.145
4037,1508.415
4038,1497.423
4039,1525.997
4040,1561.161
4041,1529.661
4042,1569.966
4043,1586.809
4044,1558.235
4045,1542.868
4046,1582.407
4047,1537.727
4048,1534.063
4049,1548.720
4050,1523.810
4051,1567.040
4052,1525.997
4053,1517.220
4054,1528.212
4055,1501.825
4056,1484.243
4057,1477.653
4058,1463.735
4059,1459.333
4060,1447.630
4061,1485.720
4062,1488.646
4063,1486.458
4064,1484.981
4065,1471.802
4066,1431.497
4067,1429.310
4068,1426.384
4069,1422.720
4070,1419.056
4071,1418.318
4072,1456.407
4073,1451.294
4074,1401.474
4075,1403.661
4076,1413.915
4077,1373.638
4078,1369.236
4079,1380.228
4080,1317.939
4081,1351.654
4082,1288.654
4083,1317.228
4084,1276.185
4085,1259.341
4086,1257.154
4087,1243.236
4088,1185.349
4089,1146.521
4090,1123.799
4091,1126.013
4092,1072.529
4093,1095.252
4094,1042.478
4095,1013.932
4096,980.955
4097,964.822
4098,968.486
4099,986.807
4100,1012.455
4101,1024.896
4102,1032.963
4103,1041.767
4104,1069.603
4105,1085.709
4106,1156.775
4107,1219.775
4108,1224.916
4109,1268.857
4110,1321.603
4111,1379.489
4112,1475.466
4113,1485.720
4114,1572.153
4115,1589.024
4116,1668.130
4117,1696.704
4118,1737.008
4119,1737.719
4120,1780.950
4121,1747.262
4122,1794.868
4123,1758.965
4124,1770.696
4125,1753.852
4126,1773.622
4127,1742.122
4128,1707.696
4129,1691.563
4130,1671.794
4131,1589.735
4132,1572.153
4133,1531.876
4134,1538.466
4135,1502.563
4136,1473.989
4137,1448.341
4138,1376.564
4139,1380.966
4140,1386.818
4141,1342.849
4142,1312.087
4143,1336.997
4144,1313.564
4145,1318.677
4146,1357.505
4147,1314.275
4148,1361.907
4149,1364.833
4150,1369.236
4151,1396.333
4152,1414.653
4153,1454.958
4154,1479.130
4155,1493.786
4156,1498.161
4157,1551.645
4158,1529.661
4159,1569.227
4160,1601.466
4161,1599.989
4162,1613.196
4163,1633.704
4164,1658.614
4165,1706.958
4166,1731.868
4167,1716.473
4168,1713.547
4169,1749.450
4170,1753.114
4171,1742.122
4172,1738.458
4173,1771.434
4174,1723.090
4175,1720.137
4176,1750.188
4177,1736.270
4178,1690.852
4179,1660.063
4180,1647.622
4181,1663.016
4182,1635.153
4183,1585.360
4184,1601.466
4185,1545.056
4186,1552.384
4187,1506.966
4188,1532.614
4189,1495.235
4190,1468.876
4191,1457.146
4192,1486.458
4193,1453.482
4194,1450.556
4195,1434.423
4196,1454.958
4197,1405.138
4198,1419.794
4199,1436.638
4200,1386.818
4201,1383.154
4202,1380.966
4203,1382.415
4204,1392.669
4205,1410.251
4206,1415.392
4207,1375.825
4208,1375.087
4209,1389.005
4210,1410.251
4211,1416.130
4212,1360.431
4213,1375.087
4214,1386.079
4215,1357.505
4216,1348.728
4217,1379.489
4218,1371.423
4219,1364.095
4220,1331.146
4221,1297.431
4222,1317.939
4223,1328.193
4224,1308.423
4225,1301.095
4226,1288.654
4227,1293.767
4228,1304.759
4229,1290.841
4230,1281.326
4231,1281.326
4232,1274.736
4233,1228.580
4234,1241.759
4235,1243.236
4236,1242.498
4237,1184.611
4238,1212.447
4239,1167.767
4240,1184.611
4241,1141.381
4242,1173.619
4243,1135.529
4244,1119.424
4245,1095.963
4246,1092.299
4247,1068.865
4248,1077.642
4249,1076.931
4250,1090.111
4251,1092.299
4252,1091.588
4253,1093.775
4254,1153.849
4255,1131.127
4256,1194.127
4257,1243.947
4258,1270.333
4259,1317.228
4260,1356.056
4261,1367.759
4262,1390.482
4263,1469.587
4264,1464.474
4265,1515.032
4266,1547.981
4267,1569.966
4268,1575.079
4269,1566.302
4270,1594.138
4271,1620.524
4272,1605.130
4273,1589.735
4274,1547.981
4275,1535.540
4276,1517.958
4277,1511.368
4278,1442.489
4279,1449.817
4280,1371.423
4281,1364.833
4282,1342.138
4283,1287.915
4284,1222.701
4285,1229.318
4286,1141.381
4287,1138.455
4288,1085.709
4289,1089.373
4290,1043.217
4291,1030.775
4292,1023.447
4293,1010.978
4294,1012.455
4295,1007.314
4296,1005.865
4297,1012.455
4298,1021.971
4299,1010.268
4300,1074.717
4301,1057.873
4302,1134.080
4303,1181.685
4304,1204.408
4305,1265.931
4306,1275.447
4307,1356.767
4308,1364.095
4309,1398.548
4310,1441.013
4311,1515.032
4312,1550.196
4313,1545.056
4314,1619.048
4315,1610.981
4316,1657.876
4317,1630.040
4318,1686.450
4319,1664.465
4320,1652.024
4321,1660.801
4322,1691.563
4323,1675.458
4324,1652.024
4325,1635.891
4326,1622.712
4327,1627.114
4328,1621.235
4329,1620.524
4330,1610.270
4331,1594.138
4332,1594.138
4333,1558.974
4334,1580.958
4335,1560.450
4336,1533.325
4337,1532.614
4338,1523.810
4339,1527.474
4340,1524.548
4341,1551.645
4342,1540.653
4343,1536.251
4344,1527.474
4345,1502.563
4346,1462.997
4347,1496.712
4348,1488.646
4349,1452.005
4350,1416.130
4351,1401.474
4352,1414.653
4353,1373.638
4354,1404.400
4355,1356.056
4356,1322.341
4357,1305.497
4358,1291.580
4359,1309.900
4360,1295.982
4361,1282.775
4362,1259.341
4363,1253.490
4364,1269.595
4365,1266.669
4366,1267.408
4367,1270.333
4368,1296.693
4369,1300.357
4370,1290.841
4371,1328.193
4372,1331.857
4373,1317.939
4374,1323.818
4375,1377.302
4376,1379.489
4377,1370.685
4378,1370.685
4379,1367.759
4380,1387.556
4381,1382.415
4382,1391.220
4383,1355.318
4384,1394.884
4385,1356.056
4386,1340.661
4387,1368.497
4388,1322.341
4389,1367.021
4390,1361.907
4391,1306.947
4392,1309.162
4393,1312.087
4394,1316.490
4395,1316.490
4396,1336.259
4397,1342.849
4398,1318.677
4399,1358.243
4400,1355.318
4401,1318.677
4402,1297.431
4403,1329.669
4404,1299.646
4405,1263.744
4406,1304.021
4407,1302.572
4408,1271.783
4409,1262.267
4410,1254.939
4411,1260.080
4412,1254.939
4413,1306.947
4414,1323.079
4415,1317.939
4416,1317.228
4417,1366.310
4418,1353.103
4419,1400.736
4420,1394.146
4421,1420.505
4422,1435.161
4423,1474.728
4424,1503.302
4425,1519.407
4426,1528.950
4427,1525.997
4428,1591.212
4429,1597.063
4430,1604.391
4431,1656.399
4432,1631.489
4433,1672.532
4434,1657.137
4435,1643.219
4436,1641.032
4437,1622.712
4438,1639.555
4439,1619.048
4440,1578.032
4441,1569.966
4442,1553.122
4443,1481.317
4444,1461.548
4445,1427.095
4446,1440.302
4447,1358.982
4448,1382.415
4449,1328.193
4450,1279.111
4451,1306.236
4452,1267.408
4453,1257.865
4454,1242.498
4455,1234.431
4456,1216.111
4457,1221.990
4458,1222.701
4459,1227.841
4460,1235.908
4461,1243.236
4462,1243.236
4463,1263.005
4464,1278.400
4465,1331.146
4466,1323.079
4467,1351.654
4468,1375.087
4469,1424.907
4470,1456.407
4471,1468.876
4472,1480.579
4473,1512.079
4474,1585.360
4475,1565.563
4476,1611.720
4477,1668.868
4478,1657.137
4479,1676.934
4480,1697.442
4481,1720.876
4482,1782.426
4483,1797.793
4484,1772.883
4485,1809.524
4486,1789.016
4487,1785.352
4488,1783.137
4489,1794.868
4490,1811.711
4491,1796.344
4492,1766.293
4493,1737.008
4494,1736.270
4495,1709.145
4496,1690.114
4497,1684.262
4498,1659.352
4499,1653.473
4500,1646.145
4501,1580.220
4502,1574.368
4503,1580.958
4504,1535.540
4505,1514.294
4506,1490.122
4507,1482.794
4508,1484.243
4509,1465.212
4510,1434.423
4511,1388.267
4512,1403.661
4513,1356.056
4514,1390.482
4515,1362.646
4516,1338.474
4517,1356.056
4518,1348.728
4519,1317.939
4520,1300.357
4521,1300.357
4522,1330.408
4523,1322.341
4524,1299.646
4525,1292.318
4526,1295.244
4527,1345.775
4528,1330.408
4529,1323.818
4530,1309.162
4531,1358.243
4532,1334.072
4533,1320.892
4534,1342.138
4535,1320.892
4536,1315.751
4537,1353.103
4538,1311.349
4539,1349.439
4540,1347.990
4541,1326.005
4542,1345.064
4543,1336.259
4544,1301.095
4545,1342.849
4546,1298.169
4547,1347.990
4548,1340.661
4549,1309.900
4550,1303.310
4551,1326.744
4552,1333.333
4553,1315.013
4554,1312.087
4555,1302.572
4556,1309.900
4557,1321.603
4558,1332.595
4559,1290.841
4560,1314.275
4561,1274.736
4562,1247.611
4563,1226.365
4564,1203.670
4565,1203.670
4566,1201.455
4567,1204.408
4568,1209.521
4569,1203.670
4570,1193.416
4571,1204.408
4572,1222.701
4573,1217.587
4574,1214.662
4575,1228.580
4576,1232.955
4577,1252.751
4578,1286.439
4579,1284.251
4580,1298.908
4581,1329.669
4582,1323.079
4583,1365.572
4584,1394.884
4585,1378.751
4586,1377.302
4587,1414.653
4588,1376.564
4589,1394.146
4590,1394.146
4591,1378.751
4592,1385.341
4593,1367.021
4594,1365.572
4595,1337.736
4596,1306.236
4597,1335.521
4598,1281.326
4599,1252.751
4600,1231.505
4601,1216.849
4602,1239.572
4603,1227.841
4604,1195.603
4605,1155.299
4606,1153.111
4607,1171.431
4608,1114.283
4609,1139.931
4610,1156.037
4611,1108.431
4612,1159.701
4613,1120.873
4614,1157.513
4615,1196.341
4616,1203.670
4617,1225.654
4618,1218.326
4619,1282.775
4620,1304.021
4621,1300.357
4622,1372.900
4623,1394.146
4624,1393.407
4625,1427.095
4626,1464.474
4627,1498.899
4628,1555.309
4629,1572.891
4630,1573.630
4631,1638.106
4632,1618.309
4633,1642.481
4634,1676.934
4635,1706.219
4636,1679.860
4637,1688.637
4638,1703.294
4639,1719.426
4640,1743.598
4641,1722.352
4642,1747.973
4643,1729.680
4644,1723.801
4645,1712.098
4646,1707.696
4647,1709.145
4648,1721.614
4649,1723.090
4650,1682.047
4651,1697.442
4652,1657.876
4653,1680.598
4654,1619.786
4655,1643.219
4656,1620.524
4657,1592.661
4658,1549.458
4659,1489.384
4660,1448.341
4661,1413.915
4662,1416.841
4663,1342.849
4664,1314.275
4665,1299.646
4666,1259.341
4667,1227.103
4668,1161.916
4669,1125.275
4670,1144.334
4671,1140.670
4672,1078.381
4673,1123.088
4674,1104.029
4675,1084.971
4676,1099.627
4677,1116.470
4678,1158.963
4679,1184.611
4680,1213.185
4681,1229.318
4682,1250.537
4683,1268.857
4684,1309.900
4685,1364.095
4686,1392.669
4687,1427.095
4688,1462.259
4689,1482.794
4690,1484.981
4691,1550.196
4692,1547.243
4693,1533.325
4694,1571.442
4695,1542.130
4696,1553.833
4697,1556.786
4698,1563.376
4699,1516.481
4700,1504.751
4701,1533.325
4702,1486.458
4703,1455.669
4704,1424.907
4705,1421.982
4706,1406.587
4707,1339.923
4708,1345.064
4709,1265.931
4710,1260.080
4711,1236.619
4712,1203.670
4713,1159.701
4714,1115.021
4715,1112.095
4716,1120.873
4717,1079.857
4718,1087.185
4719,1101.842
4720,1123.799
4721,1142.119
4722,1184.611
4723,1235.908
4724,1266.669
4725,1261.529
4726,1328.193
4727,1353.103
4728,1367.759
4729,1396.333
4730,1432.974
4731,1488.646
4732,1530.399
4733,1544.317
4734,1586.809
4735,1578.743
4736,1604.391
4737,1632.966
4738,1649.809
4739,1603.653
4740,1632.966
4741,1598.540
4742,1597.063
4743,1567.040
4744,1522.333
4745,1526.735
4746,1474.728
4747,1442.489
4748,1420.505
4749,1378.013
4750,1381.677
4751,1357.505
4752,1321.603
4753,1292.318
4754,1241.021
4755,1279.111
4756,1238.095
4757,1230.029
4758,1278.400
4759,1269.595
4760,1257.154
4761,1330.408
4762,1306.947
4763,1342.138
4764,1400.736
4765,1454.958
4766,1462.259
4767,1517.220
4768,1529.661
4769,1588.286
4770,1619.786
4771,1635.891
4772,1674.719
4773,1722.352
4774,1775.836
4775,1788.278
4776,1805.121
4777,1854.203
4778,1872.524
4779,1850.539
4780,1884.254
4781,1861.532
4782,1865.934
4783,1863.008
4784,1854.942
4785,1863.746
4786,1824.918
4787,1831.508
4788,1774.360
4789,1737.719
4790,1728.942
4791,1730.391
4792,1652.024
4793,1663.727
4794,1602.204
4795,1556.786
4796,1575.817
4797,1535.540
4798,1495.235
4799,1438.087
4800,1435.161
4801,1433.712
4802,1372.900
4803,1374.349
4804,1334.810
4805,1315.751
4806,1337.736
4807,1319.415
4808,1283.513
4809,1254.201
4810,1265.931
4811,1263.744
4812,1259.341
4813,1224.177
4814,1221.990
4815,1223.439
4816,1183.873
4817,1210.259
4818,1162.627
4819,1181.685
4820,1152.373
4821,1186.826
4822,1165.580
4823,1182.423
4824,1163.365
4825,1155.299
4826,1149.447
4827,1175.095
4828,1183.873
4829,1194.865
4830,1208.072
4831,1213.185
4832,1213.923
4833,1205.857
4834,1250.537
4835,1260.080
4836,1265.931
4837,1276.185
4838,1281.326
4839,1291.580
4840,1294.505
4841,1344.325
4842,1375.825
4843,1401.474
4844,1375.825
4845,1399.259
4846,1429.310
4847,1442.489
4848,1457.146
4849,1478.392
4850,1528.212
4851,1517.220
4852,1512.079
4853,1546.532
4854,1554.571
4855,1517.958
4856,1522.333
4857,1514.294
4858,1450.556
4859,1465.923
4860,1398.548
4861,1360.431
4862,1359.720
4863,1338.474
4864,1292.318
4865,1286.439
4866,1279.849
4867,1246.900
4868,1238.834
4869,1265.193
4870,1269.595
4871,1287.177
4872,1273.259
4873,1291.580
4874,1316.490
4875,1323.818
4876,1347.990
4877,1349.439
4878,1389.005
4879,1428.571
4880,1392.669
4881,1432.974
4882,1466.661
4883,1432.235
4884,1466.661
4885,1471.802
4886,1501.087
4887,1491.571
4888,1473.989
4889,1453.482
4890,1461.548
4891,1459.333
4892,1471.064
4893,1474.728
4894,1421.982
4895,1441.751
4896,1458.595
4897,1404.400
4898,1433.712
4899,1408.064
4900,1409.513
4901,1398.548
4902,1387.556
4903,1369.974
4904,1351.654
4905,1380.228
4906,1334.072
4907,1376.564
4908,1322.341
4909,1355.318
4910,1319.415
4911,1298.908
4912,1323.818
4913,1276.923
4914,1314.275
4915,1292.318
4916,1300.357
4917,1281.326
4918,1246.162
4919,1282.064
4920,1266.669
4921,1235.908
4922,1260.080
4923,1284.251
4924,1269.595
4925,1282.064
4926,1278.400
4927,1278.400
4928,1256.416
4929,1233.693
4930,1235.908
4931,1254.939
4932,1213.923
4933,1224.177
4934,1253.490
4935,1213.923
4936,1253.490
4937,1249.826
4938,1240.283
4939,1257.865
4940,1271.783
4941,1255.677
4942,1304.021
4943,1284.990
4944,1326.005
4945,1307.685
4946,1339.923
4947,1379.489
4948,1356.767
4949,1369.974
4950,1402.185
4951,1438.087
4952,1457.884
4953,1445.415
4954,1472.540
4955,1495.974
4956,1499.638
4957,1495.235
4958,1493.786
4959,1487.169
4960,1512.817
4961,1510.630
4962,1459.333
4963,1471.064
4964,1474.728
4965,1490.122
4966,1452.743
4967,1429.310
4968,1423.431
4969,1444.677
4970,1439.564
4971,1443.966
4972,1415.392
4973,1419.056
4974,1443.966
4975,1452.743
4976,1452.005
4977,1419.056
4978,1424.907
4979,1452.743
4980,1427.833
4981,1432.235
4982,1433.712
4983,1434.423
4984,1443.966
4985,1485.720
4986,1476.915
4987,1474.728
4988,1460.810
4989,1442.489
4990,1484.243
4991,1484.243
4992,1481.317
4993,1464.474
4994,1424.169
4995,1469.587
4996,1444.677
4997,1416.841
4998,1401.474
4999,1390.482
5000,1399.997
5001,1415.392
5002,1346.513
5003,1354.579
5004,1350.177
5005,1302.572
5006,1283.513
5007,1213.923
5008,1224.177
5009,1208.072
5010,1190.490
5011,1162.627
5012,1140.670
5013,1142.857
5014,1158.963
5015,1148.709
5016,1140.670
5017,1147.998
5018,1192.677
5019,1210.998
5020,1230.767
5021,1238.834
5022,1295.982
5023,1334.810
5024,1331.146
5025,1372.161
5026,1419.056
5027,1479.841
5028,1515.743
5029,1566.302
5030,1576.556
5031,1609.532
5032,1646.145
5033,1659.352
5034,1717.211
5035,1715.024
5036,1720.137
5037,1688.637
5038,1653.473
5039,1654.212
5040,1608.055
5041,1596.325
5042,1519.407
5043,1477.653
5044,1425.646
5045,1394.146
5046,1346.513
5047,1298.908
5048,1268.119
5049,1177.283
5050,1128.201
5051,1131.127
5052,1071.053
5053,1022.709
5054,994.135
5055,1014.643
5056,1010.268
5057,969.963
5058,1023.447
5059,1017.596
5060,1016.119
5061,1042.478
5062,1098.888
5063,1140.670
5064,1174.357
5065,1195.603
5066,1273.259
5067,1332.595
5068,1382.415
5069,1434.423
5070,1464.474
5071,1498.899
5072,1534.063
5073,1575.079
5074,1616.860
5075,1674.719
5076,1719.426
5077,1723.801
5078,1784.614
5079,1811.711
5080,1797.793
5081,1809.524
5082,1828.582
5083,1834.434
5084,1868.860
5085,1872.524
5086,1839.575
5087,1853.492
5088,1827.844
5089,1852.016
5090,1791.204
5091,1802.934
5092,1752.375
5093,1765.555
5094,1728.942
5095,1720.137
5096,1676.196
5097,1650.548
5098,1626.376
5099,1629.302
5100,1566.302
5101,1574.368
5102,1515.743
5103,1544.317
5104,1523.810
5105,1483.505
5106,1463.735
5107,1468.138
5108,1453.482
5109,1431.497
5110,1399.997
5111,1394.146
5112,1421.243
5113,1409.513
5114,1372.900
5115,1399.997
5116,1404.400
5117,1384.603
5118,1358.982
5119,1356.767
5120,1358.982
5121,1371.423
5122,1364.095
5123,1365.572
5124,1377.302
5125,1394.884
5126,1410.989
5127,1418.318
5128,1418.318
5129,1368.497
5130,1386.079
5131,1365.572
5132,1363.357
5133,1355.318
5134,1365.572
5135,1361.907
5136,1369.236
5137,1390.482
5138,1380.228
5139,1383.892
5140,1333.333
5141,1336.997
5142,1346.513
5143,1349.439
5144,1367.021
5145,1336.997
5146,1311.349
5147,1340.661
5148,1305.497
5149,1342.849
5150,1315.751
5151,1310.611
5152,1282.775
5153,1307.685
5154,1301.833
5155,1254.939
5156,1239.572
5157,1264.482
5158,1251.275
5159,1231.505
5160,1219.037
5161,1204.408
5162,1193.416
5163,1178.759
5164,1159.701
5165,1122.349
5166,1125.275
5167,1145.783
5168,1174.357
5169,1190.490
5170,1201.455
5171,1222.701
5172,1225.654
5173,1287.177
5174,1266.669
5175,1314.275
5176,1355.318
5177,1336.997
5178,1358.982
5179,1397.810
5180,1421.982
5181,1433.712
5182,1433.712
5183,1441.751
5184,1425.646
5185,1394.884
5186,1422.720
5187,1400.736
5188,1384.603
5189,1386.079
5190,1347.251
5191,1361.907
5192,1378.013
5193,1366.310
5194,1331.146
5195,1357.505
5196,1302.572
5197,1336.997
5198,1290.103
5199,1333.333
5200,1301.833
5201,1295.982
5202,1335.521
5203,1297.431
5204,1336.259
5205,1339.185
5206,1312.826
5207,1321.603
5208,1356.767
5209,1317.939
5210,1360.431
5211,1326.005
5212,1314.275
5213,1328.931
5214,1348.728
5215,1315.751
5216,1334.810
5217,1307.685
5218,1313.564
5219,1312.087
5220,1323.818
5221,1287.915
5222,1339.923
5223,1325.267
5224,1306.236
5225,1357.505
5226,1317.228
5227,1377.302
5228,1336.997
5229,1381.677
5230,1362.646
5231,1394.884
5232,1435.900
5233,1400.736
5234,1434.423
5235,1465.923
5236,1427.833
5237,1439.564
5238,1471.802
5239,1469.587
5240,1488.646
5241,1493.048
5242,1492.310
5243,1476.204
5244,1477.653
5245,1527.474
5246,1490.833
5247,1503.302
5248,1520.145
5249,1494.497
5250,1536.989
5251,1541.392
5252,1523.810
5253,1553.122
5254,1527.474
5255,1517.220
5256,1548.720
5257,1514.294
5258,1504.751
5259,1511.368
5260,1503.302
5261,1497.423
5262,1483.505
5263,1471.064
5264,1469.587
5265,1465.923
5266,1438.087
5267,1465.212
5268,1429.310
5269,1443.228
5270,1386.079
5271,1410.251
5272,1413.177
5273,1383.892
5274,1377.302
5275,1390.482
5276,1353.103
5277,1404.400
5278,1378.013
5279,1410.989
5280,1364.833
5281,1389.005
5282,1416.841
5283,1421.243
5284,1389.005
5285,1393.407
5286,1435.900
5287,1436.638
5288,1416.130
5289,1438.825
5290,1404.400
5291,1428.571
5292,1450.556
5293,1401.474
5294,1416.841
5295,1435.161
5296,1387.556
5297,1411.728
5298,1389.743
5299,1383.892
5300,1364.095
5301,1371.423
5302,1344.325
5303,1329.669
5304,1354.579
5305,1296.693
5306,1276.923
5307,1254.201
5308,1237.357
5309,1224.916
5310,1210.259
5311,1150.924
5312,1164.103
5313,1090.111
5314,1115.021
5315,1082.045
5316,1068.127
5317,1035.178
5318,1089.373
5319,1065.201
5320,1111.357
5321,1138.455
5322,1123.088
5323,1174.357
5324,1215.373
5325,1245.423
5326,1246.900
5327,1300.357
5328,1358.243
5329,1397.810
5330,1435.900
5331,1467.399
5332,1499.638
5333,1520.145
5334,1501.825
5335,1564.825
5336,1533.325
5337,1575.817
5338,1574.368
5339,1587.548
5340,1593.399
5341,1566.302
5342,1536.251
5343,1512.079
5344,1501.087
5345,1488.646
5346,1485.720
5347,1462.259
5348,1397.810
5349,1397.810
5350,1354.579
5351,1358.243
5352,1337.736
5353,1265.931
5354,1247.611
5355,1257.865
5356,1240.283
5357,1203.670
5358,1162.627
5359,1163.365
5360,1184.611
5361,1194.127
5362,1197.791
5363,1197.791
5364,1210.259
5365,1220.513
5366,1221.990
5367,1240.283
5368,1273.998
5369,1306.947
5370,1366.310
5371,1358.982
5372,1408.064
5373,1470.325
5374,1476.915
5375,1504.040
5376,1541.392
5377,1614.645
5378,1613.196
5379,1641.770
5380,1676.934
5381,1709.145
5382,1729.680
5383,1758.965
5384,1772.172
5385,1783.137
5386,1821.254
5387,1819.778
5388,1800.008
5389,1779.500
5390,1780.950
5391,1772.172
5392,1765.555
5393,1768.508
5394,1752.375
5395,1760.442
5396,1730.391
5397,1704.770
5398,1710.622
5399,1718.688
5400,1691.563
5401,1642.481
5402,1651.286
5403,1616.860
5404,1602.942
5405,1573.630
5406,1534.802
5407,1534.063
5408,1539.204
5409,1517.958
5410,1476.204
5411,1449.817
5412,1428.571
5413,1390.482
5414,1370.685
5415,1375.087
5416,1370.685
5417,1366.310
5418,1358.243
5419,1328.931
5420,1293.029
5421,1329.669
5422,1287.177
5423,1315.751
5424,1263.005
5425,1299.646
5426,1241.759
5427,1274.736
5428,1243.236
5429,1246.900
5430,1252.013
5431,1230.029
5432,1206.595
5433,1240.283
5434,1202.193
5435,1232.244
5436,1245.423
5437,1235.169
5438,1194.127
5439,1210.259
5440,1252.751
5441,1259.341
5442,1263.744
5443,1270.333
5444,1235.908
5445,1296.693
5446,1301.833
5447,1320.154
5448,1289.365
5449,1298.169
5450,1329.669
5451,1367.021
5452,1358.982
5453,1338.474
5454,1372.900
5455,1401.474
5456,1359.720
5457,1405.138
5458,1370.685
5459,1377.302
5460,1344.325
5461,1384.603
5462,1342.138
5463,1301.095
5464,1298.169
5465,1308.423
5466,1252.751
5467,1230.029
5468,1194.127
5469,1198.529
5470,1200.744
5471,1194.865
5472,1142.857
5473,1122.349
5474,1144.334
5475,1142.119
5476,1124.537
5477,1142.119
5478,1119.424
5479,1125.275
5480,1178.759
5481,1178.759
5482,1201.455
5483,1214.662
5484,1213.185
5485,1246.162
5486,1260.818
5487,1286.439
5488,1290.103
5489,1283.513
5490,1348.728
5491,1338.474
5492,1404.400
5493,1428.571
5494,1418.318
5495,1457.146
5496,1525.286
5497,1547.981
5498,1566.302
5499,1558.235
5500,1606.606
5501,1608.794
5502,1616.860
5503,1644.696
5504,1661.540
5505,1638.106
5506,1628.563
5507,1638.817
5508,1621.973
5509,1553.833
5510,1547.981
5511,1536.251
5512,1502.563
5513,1477.653
5514,1438.087
5515,1362.646
5516,1367.021
5517,1299.646
5518,1324.556
5519,1286.439
5520,1235.908
5521,1215.373
5522,1225.654
5523,1192.677
5524,1172.170
5525,1179.498
5526,1183.162
5527,1138.455
5528,1166.291
5529,1197.080
5530,1175.834
5531,1210.998
5532,1217.587
5533,1243.947
5534,1253.490
5535,1285.728
5536,1325.267
5537,1336.259
5538,1384.603
5539,1452.005
5540,1436.638
5541,1476.915
5542,1548.720
5543,1540.653
5544,1580.220
5545,1623.450
5546,1628.563
5547,1633.704
5548,1648.360
5549,1665.204
5550,1674.719
5551,1682.786
5552,1711.360
5553,1728.942
5554,1712.809
5555,1694.516
5556,1690.114
5557,1687.899
5558,1671.055
5559,1660.063
5560,1654.212
5561,1648.360
5562,1624.899
5563,1583.145
5564,1547.981
5565,1515.743
5566,1537.727
5567,1498.899
5568,1462.259
5569,1491.571
5570,1479.841
5571,1454.958
5572,1433.712
5573,1440.302
5574,1443.228
5575,1425.646
5576,1394.146
5577,1398.548
5578,1386.818
5579,1416.841
5580,1421.982
5581,1436.638
5582,1442.489
5583,1435.900
5584,1419.794
5585,1435.900
5586,1454.220
5587,1447.630
5588,1435.900
5589,1460.071
5590,1469.587
5591,1463.735
5592,1456.407
5593,1443.228
5594,1440.302
5595,1432.235
5596,1427.833
5597,1449.079
5598,1400.736
5599,1437.376
5600,1403.661
5601,1357.505
5602,1342.849
5603,1341.400
5604,1347.251
5605,1290.841
5606,1299.646
5607,1290.103
5608,1228.580
5609,1254.939
5610,1213.923
5611,1172.170
5612,1179.498
5613,1175.834
5614,1128.939
5615,1123.799
5616,1074.006
5617,1092.299
5618,1056.424
5619,1060.060
5620,1083.521
5621,1043.955
5622,1101.842
5623,1063.724
5624,1127.463
5625,1096.701
5626,1137.006
5627,1149.447
5628,1164.103
5629,1226.365
5630,1271.072
5631,1268.857
5632,1280.587
5633,1360.431
5634,1367.021
5635,1371.423
5636,1407.325
5637,1449.079
5638,1481.317
5639,1512.817
5640,1529.661
5641,1540.653
5642,1536.989
5643,1537.727
5644,1536.251
5645,1572.153
5646,1575.079
5647,1561.161
5648,1536.251
5649,1571.442
5650,1556.048
5651,1538.466
5652,1532.614
5653,1511.368
5654,1470.325
5655,1435.161
5656,1415.392
5657,1393.407
5658,1389.743
5659,1388.267
5660,1343.587
5661,1342.138
5662,1309.900
5663,1340.661
5664,1306.947
5665,1284.990
5666,1330.408
5667,1303.310
5668,1343.587
5669,1320.892
5670,1368.497
5671,1391.931
5672,1388.267
5673,1405.849
5674,1449.817
5675,1514.294
5676,1525.997
5677,1530.399
5678,1580.958
5679,1584.622
5680,1619.786
5681,1652.735
5682,1693.040
5683,1694.516
5684,1698.180
5685,1741.383
5686,1746.524
5687,1739.934
5688,1780.211
5689,1802.196
5690,1765.555
5691,1771.434
5692,1770.696
5693,1791.942
5694,1789.754
5695,1774.360
5696,1760.442
5697,1764.844
5698,1756.778
5699,1729.680
5700,1717.211
5701,1693.778
5702,1678.383
5703,1663.016
5704,1665.204
5705,1663.016
5706,1646.145
5707,1606.606
5708,1581.696
5709,1577.294
5710,1534.063
5711,1490.833
5712,1472.540
5713,1452.743
5714,1434.423
5715,1427.833
5716,1411.728
5717,1403.661
5718,1364.833
5719,1340.661
5720,1350.915
5721,1327.482
5722,1353.103
5723,1344.325
5724,1321.603
5725,1303.310
5726,1310.611
5727,1295.244
5728,1282.775
5729,1266.669
5730,1224.916
5731,1190.490
5732,1221.990
5733,1201.455
5734,1155.299
5735,1136.267
5736,1128.939
5737,1129.677
5738,1142.857
5739,1087.924
5740,1120.873
5741,1066.678
5742,1079.857
5743,1044.693
5744,1079.119
5745,1049.807
5746,1092.299
5747,1054.947
5748,1112.095
5749,1098.178
5750,1110.619
5751,1134.080
5752,1147.998
5753,1156.775
5754,1162.627
5755,1180.947
5756,1184.611
5757,1207.334
5758,1211.709
5759,1207.334
5760,1213.185
5761,1251.275
5762,1274.736
5763,1251.275
5764,1231.505
5765,1271.072
5766,1265.193
5767,1254.939
5768,1225.654
5769,1191.201
5770,1176.545
5771,1179.498
5772,1155.299
5773,1151.662
5774,1173.619
5775,1178.759
5776,1196.341
5777,1208.072
5778,1219.775
5779,1234.431
5780,1238.834
5781,1243.947
5782,1328.193
5783,1330.408
5784,1387.556
5785,1382.415
5786,1422.720
5787,1446.892
5788,1475.466
5789,1545.794
5790,1550.196
5791,1537.727
5792,1589.735
5793,1557.497
5794,1571.442
5795,1574.368
5796,1563.376
5797,1532.614
5798,1557.497
5799,1506.966
5800,1477.653
5801,1492.310
5802,1467.399
5803,1441.751
5804,1381.677
5805,1352.392
5806,1358.243
5807,1316.490
5808,1299.646
5809,1263.744
5810,1243.947
5811,1224.916
5812,1205.119
5813,1200.005
5814,1226.365
5815,1220.513
5816,1200.005
5817,1216.111
5818,1216.111
5819,1222.701
5820,1232.955
5821,1238.834
5822,1222.701
5823,1273.998
5824,1290.103
5825,1329.669
5826,1354.579
5827,1379.489
5828,1404.400
5829,1416.841
5830,1438.825
5831,1453.482
5832,1446.153
5833,1511.368
5834,1516.481
5835,1509.153
5836,1579.481
5837,1551.645
5838,1590.473
5839,1630.040
5840,1629.302
5841,1630.040
5842,1657.876
5843,1687.188
5844,1719.426
5845,1736.270
5846,1720.876
5847,1733.344
5848,1743.598
5849,1756.040
5850,1799.270
5851,1797.793
5852,1800.008
5853,1818.328
5854,1821.254
5855,1817.590
5856,1849.090
5857,1811.000
5858,1822.703
5859,1832.957
5860,1810.262
5861,1825.629
5862,1786.801
5863,1766.293
5864,1755.301
5865,1747.262
5866,1733.344
5867,1726.016
5868,1695.227
5869,1636.630
5870,1622.712
5871,1583.145
5872,1567.778
5873,1506.228
5874,1470.325
5875,1440.302
5876,1438.087
5877,1360.431
5878,1369.974
5879,1318.677
5880,1268.119
5881,1267.408
5882,1224.916
5883,1219.037
5884,1189.752
5885,1158.252
5886,1119.424
5887,1156.037
5888,1098.888
5889,1136.267
5890,1133.342
5891,1109.170
5892,1165.580
5893,1145.045
5894,1148.709
5895,1178.021
5896,1237.357
5897,1241.021
5898,1256.416
5899,1247.611
5900,1263.744
5901,1331.857
5902,1321.603
5903,1365.572
5904,1336.259
5905,1396.333
5906,1394.146
5907,1377.302
5908,1432.974
5909,1413.915
5910,1402.185
5911,1403.661
5912,1421.243
5913,1424.907
5914,1416.841
5915,1377.302
5916,1382.415
5917,1370.685
5918,1304.759
5919,1258.603
5920,1213.923
5921,1197.791
5922,1184.611
5923,1126.752
5924,1093.037
5925,1054.209
5926,1049.807
5927,1026.373
5928,1004.389
5929,971.440
5930,963.373
5931,975.104
5932,984.619
5933,1047.619
5934,1087.924
5935,1087.185
5936,1123.088
5937,1175.834
5938,1225.654
5939,1268.119
5940,1326.744
5941,1359.720
5942,1431.497
5943,1435.900
5944,1481.317
5945,1525.286
5946,1562.638
5947,1569.966
5948,1567.040
5949,1573.630
5950,1583.884
5951,1560.450
5952,1580.958
5953,1592.661
5954,1575.079
5955,1541.392
5956,1534.802
5957,1483.505
5958,1452.005
5959,1421.243
5960,1430.759
5961,1366.310
5962,1394.884
5963,1346.513
5964,1312.826
5965,1293.029
5966,1292.318
5967,1288.654
5968,1268.119
5969,1265.931
5970,1273.998
5971,1287.177
5972,1321.603
5973,1356.767
5974,1337.736
5975,1389.005
5976,1361.169
5977,1411.728
5978,1441.013
5979,1485.720
5980,1514.294
5981,1511.368
5982,1545.056
5983,1572.891
5984,1580.220
5985,1640.294
5986,1621.235
5987,1684.262
5988,1706.958
5989,1697.442
5990,1693.778
5991,1708.434
5992,1721.614
5993,1737.719
5994,1740.672
5995,1749.450
5996,1749.450
5997,1753.852
5998,1748.711
5999,1745.786
6000,1735.532
6001,1723.801
6002,1717.211
6003,1731.868
6004,1675.458
6005,1673.981
6006,1640.294
6007,1660.063
6008,1638.817
6009,1621.235
6010,1592.661
6011,1570.704
6012,1560.450
6013,1545.056
6014,1523.071
6015,1465.923
6016,1482.794
6017,1428.571
6018,1441.751
6019,1443.966
6020,1388.267
6021,1413.177
6022,1353.103
6023,1383.154
6024,1335.521
6025,1375.825
6026,1361.907
6027,1328.193
6028,1315.013
6029,1343.587
6030,1316.490
6031,1281.326
6032,1318.677
6033,1315.013
6034,1279.111
6035,1250.537
6036,1274.736
6037,1286.439
6038,1276.923
6039,1256.416
6040,1259.341
6041,1261.529
6042,1256.416
6043,1253.490
6044,1250.537
6045,1249.087
6046,1198.529
6047,1221.990
6048,1251.275
6049,1221.990
6050,1256.416
6051,1221.990
6052,1232.955
6053,1271.072
6054,1258.603
6055,1263.744
6056,1311.349
6057,1291.580
6058,1292.318
6059,1331.857
6060,1331.146
6061,1337.736
6062,1373.638
6063,1349.439
6064,1349.439
6065,1396.333
6066,1358.982
6067,1403.661
6068,1359.720
6069,1383.892
6070,1331.146
6071,1354.579
6072,1294.505
6073,1298.169
6074,1305.497
6075,1260.818
6076,1259.341
6077,1214.662
6078,1207.334
6079,1211.709
6080,1235.169
6081,1206.595
6082,1222.701
6083,1252.013
6084,1283.513
6085,1268.119
6086,1340.661
6087,1339.923
6088,1385.341
6089,1439.564
6090,1477.653
6091,1498.161
6092,1499.638
6093,1538.466
6094,1578.743
6095,1564.825
6096,1619.786
6097,1591.212
6098,1636.630
6099,1593.399
6100,1627.114
6101,1574.368
6102,1569.227
6103,1544.317
6104,1492.310
6105,1480.579
6106,1421.243
6107,1399.997
6108,1393.407
6109,1341.400
6110,1281.326
6111,1296.693
6112,1268.857
6113,1229.318
6114,1208.783
6115,1198.529
6116,1195.603
6117,1139.931
6118,1155.299
6119,1178.021
6120,1137.006
6121,1146.521
6122,1178.759
6123,1201.455
6124,1167.029
6125,1191.201
6126,1215.373
6127,1262.267
6128,1284.251
6129,1303.310
6130,1319.415
6131,1318.677
6132,1353.841
6133,1372.900
6134,1383.154
6135,1402.185
6136,1471.064
6137,1482.794
6138,1458.595
6139,1518.669
6140,1501.825
6141,1491.571
6142,1548.720
6143,1512.079
6144,1521.622
6145,1555.309
6146,1528.212
6147,1506.966
6148,1536.251
6149,1542.868
6150,1488.646
6151,1495.235
6152,1516.481
6153,1471.064
6154,1456.407
6155,1445.415
6156,1436.638
6157,1446.153
6158,1465.212
6159,1470.325
6160,1463.735
6161,1425.646
6162,1435.900
6163,1448.341
6164,1455.669
6165,1472.540
6166,1466.661
6167,1484.981
6168,1500.376
6169,1525.997
6170,1520.145
6171,1516.481
6172,1517.220
6173,1514.294
6174,1505.489
6175,1460.810
6176,1439.564
6177,1430.048
6178,1420.505
6179,1407.325
6180,1397.071
6181,1402.185
6182,1419.056
6183,1367.759
6184,1379.489
6185,1397.810
6186,1341.400
6187,1357.505
6188,1349.439
6189,1352.392
6190,1338.474
6191,1314.275
6192,1336.259
6193,1358.243
6194,1354.579
6195,1318.677
6196,1369.236
6197,1335.521
6198,1361.907
6199,1341.400
6200,1386.079
6201,1351.654
6202,1394.884
6203,1387.556
6204,1353.841
6205,1390.482
6206,1400.736
6207,1367.759
6208,1416.841
6209,1386.079
6210,1413.177
6211,1368.497
6212,1401.474
6213,1374.349
6214,1355.318
6215,1371.423
6216,1353.841
6217,1335.521
6218,1321.603
6219,1268.119
6220,1230.029
6221,1205.857
6222,1183.162
6223,1168.506
6224,1153.111
6225,1141.381
6226,1105.506
6227,1045.432
6228,1046.142
6229,1038.103
6230,1005.127
6231,999.275
6232,962.635
6233,973.627
6234,970.701
6235,982.404
6236,993.396
6237,996.350
6238,1031.514
6239,1056.424
6240,1076.931
6241,1073.267
6242,1150.185
6243,1190.490
6244,1212.447
6245,1269.595
6246,1280.587
6247,1374.349
6248,1380.228
6249,1446.892
6250,1482.056
6251,1508.415
6252,1561.899
6253,1631.489
6254,1620.524
6255,1647.622
6256,1679.860
6257,1704.770
6258,1731.868
6259,1740.672
6260,1752.375
6261,1731.868
6262,1749.450
6263,1745.786
6264,1727.465
6265,1712.809
6266,1705.508
6267,1731.868
6268,1717.950
6269,1688.637
6270,1643.958
6271,1624.188
6272,1649.071
6273,1586.071
6274,1606.606
6275,1549.458
6276,1554.571
6277,1527.474
6278,1515.032
6279,1533.325
6280,1523.071
6281,1512.817
6282,1462.259
6283,1484.981
6284,1462.259
6285,1462.259
6286,1447.630
6287,1473.989
6288,1459.333
6289,1422.720
6290,1457.146
6291,1422.720
6292,1476.915
6293,1428.571
6294,1445.415
6295,1489.384
6296,1457.146
6297,1476.915
6298,1515.032
6299,1493.786
6300,1482.056
6301,1495.235
6302,1519.407
6303,1518.669
6304,1534.802
6305,1537.727
6306,1550.196
6307,1552.384
6308,1552.384
6309,1563.376
6310,1555.309
6311,1556.048
6312,1558.974
6313,1515.032
6314,1555.309
6315,1517.220
6316,1523.810
6317,1513.556
6318,1518.669
6319,1560.450
6320,1525.997
6321,1513.556
6322,1507.704
6323,1506.228
6324,1554.571
6325,1552.384
6326,1540.653
6327,1542.868
6328,1536.989
6329,1524.548
6330,1484.243
6331,1476.915
6332,1463.735
6333,1468.138
6334,1454.958
6335,1437.376
6336,1408.802
6337,1443.228
6338,1410.251
6339,1410.989
6340,1372.161
6341,1359.720
6342,1385.341
6343,1358.243
6344,1323.079
6345,1356.767
6346,1363.357
6347,1344.325
6348,1324.556
6349,1305.497
6350,1289.365
6351,1283.513
6352,1286.439
6353,1309.900
6354,1303.310
6355,1293.029
6356,1312.826
6357,1298.169
6358,1304.759
6359,1315.751
6360,1304.759
6361,1290.841
6362,1282.775
6363,1313.564
6364,1309.900
6365,1339.923
6366,1306.236
6367,1330.408
6368,1319.415
6369,1312.087
6370,1345.064
6371,1311.349
6372,1351.654
6373,1365.572
6374,1336.259
6375,1351.654
6376,1351.654
6377,1340.661
6378,1297.431
6379,1299.646
6380,1289.365
6381,1313.564
6382,1249.087
6383,1258.603
6384,1240.283
6385,1218.326
6386,1218.326
6387,1212.447
6388,1232.244
6389,1224.177
6390,1191.201
6391,1199.267
6392,1217.587
6393,1265.193
6394,1265.193
6395,1265.931
6396,1312.087
6397,1290.103
6398,1315.013
6399,1347.990
6400,1372.900
6401,1417.579
6402,1435.161
6403,1447.630
6404,1463.735
6405,1471.064
6406,1482.794
6407,1476.204
6408,1482.056
6409,1458.595
6410,1462.259
6411,1471.802
6412,1490.833
6413,1468.876
6414,1435.161
6415,1438.825
6416,1426.384
6417,1466.661
6418,1412.466
6419,1405.138
6420,1445.415
6421,1386.818
6422,1419.056
6423,1358.982
6424,1361.169
6425,1380.228
6426,1331.146
6427,1294.505
6428,1279.111
6429,1253.490
6430,1232.244
6431,1230.029
6432,1241.021
6433,1200.005
6434,1177.283
6435,1189.013
6436,1129.677
6437,1158.252
6438,1115.760
6439,1163.365
6440,1126.013
6441,1146.521
6442,1174.357
6443,1142.857
6444,1200.744
6445,1228.580
6446,1242.498
6447,1236.619
6448,1279.849
6449,1320.154
6450,1299.646
6451,1361.907
6452,1368.497
6453,1396.333
6454,1441.751
6455,1457.884
6456,1482.056
6457,1507.704
6458,1482.794
6459,1495.235
6460,1508.415
6461,1562.638
6462,1534.063
6463,1585.360
6464,1563.376
6465,1556.048
6466,1593.399
6467,1610.270
6468,1590.473
6469,1587.548
6470,1612.458
6471,1575.079
6472,1580.220
6473,1609.532
6474,1583.145
6475,1565.563
6476,1541.392
6477,1540.653
6478,1540.653
6479,1525.997
6480,1508.415
6481,1498.899
6482,1510.630
6483,1520.145
6484,1471.064
6485,1451.294
6486,1453.482
6487,1476.204
6488,1413.177
6489,1442.489
6490,1385.341
6491,1403.661
6492,1361.169
6493,1366.310
6494,1365.572
6495,1349.439
6496,1341.400
6497,1347.251
6498,1334.072
6499,1328.931
6500,1321.603
6501,1303.310
6502,1319.415
6503,1315.751
6504,1304.021
6505,1308.423
6506,1332.595
6507,1342.138
6508,1342.138
6509,1350.915
6510,1356.767
6511,1329.669
6512,1330.408
6513,1339.185
6514,1386.079
6515,1358.982
6516,1394.146
6517,1422.720
6518,1380.966
6519,1432.974
6520,1386.079
6521,1410.251
6522,1413.915
6523,1413.915
6524,1408.064
6525,1409.513
6526,1398.548
6527,1397.071
6528,1399.259
6529,1397.810
6530,1385.341
6531,1380.966
6532,1367.021
6533,1350.915
6534,1354.579
6535,1361.169
6536,1321.603
6537,1292.318
6538,1241.021
6539,1218.326
6540,1197.080
6541,1195.603
6542,1190.490
6543,1194.127
6544,1176.545
6545,1163.365
6546,1176.545
6547,1169.955
6548,1180.947
6549,1172.881
6550,1191.201
6551,1197.791
6552,1210.998
6553,1236.619
6554,1259.341
6555,1290.103
6556,1291.580
6557,1320.892
6558,1387.556
6559,1374.349
6560,1414.653
6561,1455.669
6562,1485.720
6563,1454.220
6564,1485.720
6565,1494.497
6566,1505.489
6567,1527.474
6568,1532.614
6569,1527.474
6570,1476.204
6571,1504.040
6572,1489.384
6573,1447.630
6574,1475.466
6575,1422.720
6576,1389.743
6577,1421.982
6578,1398.548
6579,1369.236
6580,1342.138
6581,1339.923
6582,1320.154
6583,1289.365
6584,1271.783
6585,1273.998
6586,1278.400
6587,1232.244
6588,1266.669
6589,1287.177
6590,1252.751
6591,1286.439
6592,1315.013
6593,1327.482
6594,1338.474
6595,1400.736
6596,1382.415
6597,1436.638
6598,1479.841
6599,1501.825
6600,1521.622
6601,1565.563
6602,1602.204
6603,1607.317
6604,1652.024
6605,1678.383
6606,1690.852
6607,1723.801
6608,1780.950
6609,1800.008
6610,1811.711
6611,1811.000
6612,1795.606
6613,1810.262
6614,1844.688
6615,1808.786
6616,1829.293
6617,1835.910
6618,1849.090
6619,1830.770
6620,1821.965
6621,1794.868
6622,1771.434
6623,1757.516
6624,1765.555
6625,1750.926
6626,1695.227
6627,1688.637
6628,1649.809
6629,1656.399
6630,1601.466
6631,1568.489
6632,1541.392
6633,1532.614
6634,1532.614
6635,1492.310
6636,1488.646
6637,1444.677
6638,1412.466
6639,1429.310
6640,1381.677
6641,1410.251
6642,1373.638
6643,1336.259
6644,1373.638
6645,1358.243
6646,1323.818
6647,1301.095
6648,1322.341
6649,1299.646
6650,1269.595
6651,1284.990
6652,1277.662
6653,1261.529
6654,1256.416
6655,1237.357
6656,1232.244
6657,1273.998
6658,1249.826
6659,1241.759
6660,1240.283
6661,1234.431
6662,1244.685
6663,1205.119
6664,1255.677
6665,1227.103
6666,1235.908
6667,1225.654
6668,1223.439
6669,1246.900
6670,1259.341
6671,1220.513
6672,1252.013
6673,1255.677
6674,1290.841
6675,1285.728
6676,1298.169
6677,1274.736
6678,1336.997
6679,1309.900
6680,1332.595
6681,1363.357
6682,1329.669
6683,1347.990
6684,1385.341
6685,1353.103
6686,1393.407
6687,1363.357
6688,1383.154
6689,1370.685
6690,1367.759
6691,1349.439
6692,1375.825
6693,1356.767
6694,1341.400
6695,1337.736
6696,1331.857
6697,1350.177
6698,1356.767
6699,1359.720
6700,1360.431
6701,1375.087
6702,1377.302
6703,1389.005
6704,1405.138
6705,1455.669
6706,1428.571
6707,1478.392
6708,1445.415
6709,1469.587
6710,1501.825
6711,1484.243
6712,1471.802
6713,1472.540
6714,1473.251
6715,1462.997
6716,1453.482
6717,1441.751
6718,1470.325
6719,1454.220
6720,1444.677
6721,1434.423
6722,1390.482
6723,1364.833
6724,1391.931
6725,1328.193
6726,1361.907
6727,1301.833
6728,1334.072
6729,1315.751
6730,1288.654
6731,1260.080
6732,1254.939
6733,1253.490
6734,1231.505
6735,1186.826
6736,1210.259
6737,1196.341
6738,1164.103
6739,1177.283
6740,1151.662
6741,1131.865
6742,1137.006
6743,1141.381
6744,1128.201
6745,1125.275
6746,1123.799
6747,1133.342
6748,1151.662
6749,1121.611
6750,1159.701
6751,1200.005
6752,1164.841
6753,1212.447
6754,1239.572
6755,1260.818
6756,1287.177
6757,1297.431
6758,1315.013
6759,1387.556
6760,1378.751
6761,1432.974
6762,1464.474
6763,1459.333
6764,1521.622
6765,1545.794
6766,1564.825
6767,1580.220
6768,1588.286
6769,1588.286
6770,1579.481
6771,1624.899
6772,1641.032
6773,1614.645
6774,1608.055
6775,1627.114
6776,1604.391
6777,1638.106
6778,1645.434
6779,1599.278
6780,1639.555
6781,1599.989
6782,1578.032
6783,1582.407
6784,1567.778
6785,1558.235
6786,1549.458
6787,1547.243
6788,1537.727
6789,1528.212
6790,1517.220
6791,1504.751
6792,1492.310
6793,1487.907
6794,1474.728
6795,1493.786
6796,1430.048
6797,1454.958
6798,1438.825
6799,1389.743
6800,1413.177
6801,1375.825
6802,1346.513
6803,1315.013
6804,1298.908
6805,1298.908
6806,1268.119
6807,1267.408
6808,1263.744
6809,1267.408
6810,1260.818
6811,1243.236
6812,1264.482
6813,1247.611
6814,1224.177
6815,1249.826
6816,1263.005
6817,1264.482
6818,1270.333
6819,1273.259
6820,1268.857
6821,1279.111
6822,1283.513
6823,1269.595
6824,1291.580
6825,1304.759
6826,1305.497
6827,1316.490
6828,1320.154
6829,1317.939
6830,1324.556
6831,1327.482
6832,1315.013
6833,1301.095
6834,1340.661
6835,1298.908
6836,1313.564
6837,1333.333
6838,1342.138
6839,1336.259
6840,1331.857
6841,1313.564
6842,1356.767
6843,1337.736
6844,1312.826
6845,1329.669
6846,1323.818
6847,1301.833
6848,1339.185
6849,1304.021
6850,1271.072
6851,1269.595
6852,1243.947
6853,1273.998
6854,1252.013
6855,1210.998
6856,1225.654
6857,1180.947
6858,1179.498
6859,1188.275
6860,1195.603
6861,1217.587
6862,1223.439
6863,1224.916
6864,1263.005
6865,1299.646
6866,1333.333
6867,1375.825
6868,1399.997
6869,1406.587
6870,1484.243
6871,1544.317
6872,1586.809
6873,1608.055
6874,1618.309
6875,1654.212
6876,1706.219
6877,1719.426
6878,1742.860
6879,1741.383
6880,1753.114
6881,1758.254
6882,1744.309
6883,1747.262
6884,1760.442
6885,1717.950
6886,1663.727
6887,1665.942
6888,1595.614
6889,1599.278
6890,1517.220
6891,1493.786
6892,1426.384
6893,1434.423
6894,1379.489
6895,1321.603
6896,1306.947
6897,1238.834
6898,1221.990
6899,1234.431
6900,1172.881
6901,1200.005
6902,1173.619
6903,1185.349
6904,1156.775
6905,1208.072
6906,1201.455
6907,1207.334
6908,1237.357
6909,1268.857
6910,1342.138
6911,1344.325
6912,1426.384
6913,1416.130
6914,1477.653
6915,1521.622
6916,1564.825
6917,1591.212
6918,1624.188
6919,1704.032
6920,1726.727
6921,1723.090
6922,1761.918
6923,1764.844
6924,1782.426
6925,1800.008
6926,1827.844
6927,1849.090
6928,1844.688
6929,1836.621
6930,1820.516
6931,1821.965
6932,1772.172
6933,1751.637
6934,1770.696
6935,1726.727
6936,1739.934
6937,1718.688
6938,1705.508
6939,1673.981
6940,1660.063
6941,1597.063
6942,1597.802
6943,1589.024
6944,1547.981
6945,1562.638
6946,1531.138
6947,1492.310
6948,1506.966
6949,1462.997
6950,1497.423
6951,1457.146
6952,1429.310
6953,1410.989
6954,1423.431
6955,1421.982
6956,1402.185
6957,1387.556
6958,1352.392
6959,1328.931
6960,1306.236
6961,1302.572
6962,1308.423
6963,1289.365
6964,1230.029
6965,1213.185
6966,1230.767
6967,1214.662
6968,1180.947
6969,1194.127
6970,1159.701
6971,1183.873
6972,1134.080
6973,1174.357
6974,1133.342
6975,1127.463
6976,1168.506
6977,1134.080
6978,1178.021
6979,1134.080
6980,1180.947
6981,1176.545
6982,1156.775
6983,1202.193
6984,1166.291
6985,1217.587
6986,1211.709
6987,1190.490
6988,1222.701
6989,1246.900
6990,1278.400
6991,1285.728
6992,1266.669
6993,1313.564
6994,1281.326
6995,1333.333
6996,1326.744
6997,1331.857
6998,1339.923
6999,1342.138
7000,1399.997
7001,1367.759
7002,1405.138
7003,1389.743
7004,1424.907
7005,1383.154
7006,1413.177
7007,1368.497
7008,1402.923
7009,1364.095
7010,1385.341
7011,1391.931
7012,1355.318
7013,1343.587
7014,1372.161
7015,1335.521
7016,1364.095
7017,1378.013
7018,1367.021
7019,1367.759
7020,1389.743
7021,1362.646
7022,1371.423
7023,1389.743
7024,1367.759
7025,1407.325
7026,1388.267
7027,1380.966
7028,1422.720
7029,1399.997
7030,1390.482
7031,1428.571
7032,1439.564
7033,1397.071
7034,1413.915
7035,1437.376
7036,1448.341
7037,1447.630
7038,1445.415
7039,1408.802
7040,1386.818
7041,1380.966
7042,1383.154
7043,1380.966
7044,1367.021
7045,1357.505
7046,1317.228
7047,1299.646
7048,1323.079
7049,1291.580
7050,1284.251
7051,1262.267
7052,1187.537
7053,1213.185
7054,1150.924
7055,1167.029
7056,1113.545
7057,1151.662
7058,1119.424
7059,1089.373
7060,1139.193
7061,1102.553
7062,1154.588
7063,1154.588
7064,1139.193
7065,1191.201
7066,1205.119
7067,1214.662
7068,1277.662
7069,1267.408
7070,1335.521
7071,1365.572
7072,1371.423
7073,1383.892
7074,1412.466
7075,1476.204
7076,1460.810
7077,1517.220
7078,1539.204
7079,1530.399
7080,1553.833
7081,1566.302
7082,1573.630
7083,1583.884
7084,1587.548
7085,1601.466
7086,1604.391
7087,1617.571
7088,1604.391
7089,1606.606
7090,1601.466
7091,1610.981
7092,1596.325
7093,1586.071
7094,1579.481
7095,1572.891
7096,1569.966
7097,1549.458
7098,1539.204
7099,1537.727
7100,1531.876
7101,1561.161
7102,1542.868
7103,1510.630
7104,1490.122
7105,1473.989
7106,1484.243
7107,1493.786
7108,1478.392
7109,1420.505
7110,1447.630
7111,1383.154
7112,1384.603
7113,1347.251
7114,1372.900
7115,1356.056
7116,1336.997
7117,1309.162
7118,1275.447
7119,1259.341
7120,1263.005
7121,1288.654
7122,1261.529
7123,1281.326
7124,1261.529
7125,1247.611
7126,1249.087
7127,1246.162
7128,1257.154
7129,1273.259
7130,1278.400
7131,1310.611
7132,1295.982
7133,1293.767
7134,1299.646
7135,1314.275
7136,1369.974
7137,1372.900
7138,1346.513
7139,1355.318
7140,1342.849
7141,1386.079
7142,1399.997
7143,1400.736
7144,1387.556
7145,1370.685
7146,1384.603
7147,1390.482
7148,1363.357
7149,1357.505
7150,1383.154
7151,1381.677
7152,1369.236
7153,1357.505
7154,1371.423
7155,1416.841
7156,1384.603
7157,1418.318
7158,1391.220
7159,1430.048
7160,1395.595
7161,1417.579
7162,1374.349
7163,1378.751
7164,1326.744
7165,1334.072
7166,1326.744
7167,1302.572
7168,1225.654
7169,1202.193
7170,1197.791
7171,1183.162
7172,1119.424
7173,1131.865
7174,1076.931
7175,1117.209
7176,1096.701
7177,1067.389
7178,1084.260
7179,1120.873
7180,1112.834
7181,1141.381
7182,1202.193
7183,1242.498
7184,1292.318
7185,1339.923
7186,1365.572
7187,1410.989
7188,1454.958
7189,1542.130
7190,1570.704
7191,1610.270
7192,1672.532
7193,1714.286
7194,1778.024
7195,1774.360
7196,1783.137
7197,1813.188
7198,1838.836
7199,1805.860
7200,1779.500
7201,1767.032
7202,1775.836
7203,1713.547
7204,1671.055
7205,1611.720
7206,1559.712
7207,1509.153
7208,1495.235
7209,1415.392
7210,1372.161
7211,1315.013
7212,1272.521
7213,1180.209
7214,1174.357
7215,1147.998
7216,1103.291
7217,1080.596
7218,1065.939
7219,1052.760
7220,1068.865
7221,1047.619
7222,1082.045
7223,1126.752
7224,1145.783
7225,1190.490
7226,1252.751
7227,1293.767
7228,1361.907
7229,1380.966
7230,1446.153
7231,1473.989
7232,1528.212
7233,1604.391
7234,1661.540
7235,1701.844
7236,1717.211
7237,1753.852
7238,1773.622
7239,1808.786
7240,1843.211
7241,1864.457
7242,1867.410
7243,1850.539
7244,1834.434
7245,1867.410
7246,1858.606
7247,1824.180
7248,1791.942
7249,1774.360
7250,1763.368
7251,1766.293
7252,1705.508
7253,1722.352
7254,1653.473
7255,1645.434
7256,1612.458
7257,1558.974
7258,1528.950
7259,1496.712
7260,1479.130
7261,1462.259
7262,1414.653
7263,1413.915
7264,1357.505
7265,1316.490
7266,1312.826
7267,1296.693
7268,1265.193
7269,1220.513
7270,1216.111
7271,1207.334
7272,1154.588
7273,1183.873
7274,1137.006
7275,1134.080
7276,1123.088
7277,1089.373
7278,1122.349
7279,1074.717
7280,1097.439
7281,1084.260
7282,1069.603
7283,1098.888
7284,1089.373
7285,1055.685
7286,1108.431
7287,1082.783
7288,1124.537
7289,1145.783
7290,1143.595
7291,1200.005
7292,1202.931
7293,1213.185
7294,1291.580
7295,1327.482
7296,1380.228
7297,1421.243
7298,1461.548
7299,1488.646
7300,1523.071
7301,1583.145
7302,1600.727
7303,1609.532
7304,1654.950
7305,1677.645
7306,1748.711
7307,1761.918
7308,1765.555
7309,1793.418
7310,1819.778
7311,1849.090
7312,1826.368
7313,1846.875
7314,1837.360
7315,1853.492
7316,1804.383
7317,1790.465
7318,1760.442
7319,1724.540
7320,1694.516
7321,1656.399
7322,1638.817
7323,1558.974
7324,1494.497
7325,1436.638
7326,1393.407
7327,1371.423
7328,1312.087
7329,1260.080
7330,1237.357
7331,1209.521
7332,1131.865
7333,1135.529
7334,1096.701
7335,1133.342
7336,1079.857
7337,1115.760
7338,1128.201
7339,1147.998
7340,1172.170
7341,1186.088
7342,1215.373
7343,1210.259
7344,1263.744
7345,1273.998
7346,1260.818
7347,1328.193
7348,1326.744
7349,1343.587
7350,1337.736
7351,1353.841
7352,1369.236
7353,1394.146
7354,1394.884
7355,1416.130
7356,1436.638
7357,1419.794
7358,1421.982
7359,1423.431
7360,1392.669
7361,1378.013
7362,1384.603
7363,1334.072
7364,1357.505
7365,1310.611
7366,1277.662
7367,1298.908
7368,1274.736
7369,1244.685
7370,1235.908
7371,1212.447
7372,1187.537
7373,1186.088
7374,1126.752
7375,1144.334
7376,1121.611
7377,1133.342
7378,1091.588
7379,1123.799
7380,1104.767
7381,1084.971
7382,1137.717
7383,1148.709
7384,1157.513
7385,1174.357
7386,1189.752
7387,1210.998
7388,1205.119
7389,1200.744
7390,1259.341
7391,1265.931
7392,1296.693
7393,1294.505
7394,1355.318
7395,1353.103
7396,1356.767
7397,1378.013
7398,1430.759
7399,1445.415
7400,1474.728
7401,1481.317
7402,1462.997
7403,1528.950
7404,1504.751
7405,1518.669
7406,1556.786
7407,1543.579
7408,1601.466
7409,1586.071
7410,1599.278
7411,1610.270
7412,1624.899
7413,1660.801
7414,1622.712
7415,1647.622
7416,1665.942
7417,1616.122
7418,1648.360
7419,1597.802
7420,1608.794
7421,1603.653
7422,1553.833
7423,1569.966
7424,1520.884
7425,1531.138
7426,1482.794
7427,1459.333
7428,1445.415
7429,1413.915
7430,1410.251
7431,1361.907
7432,1378.751
7433,1327.482
7434,1315.013
7435,1335.521
7436,1339.923
7437,1293.767
7438,1306.947
7439,1313.564
7440,1288.654
7441,1298.169
7442,1317.939
7443,1310.611
7444,1301.833
7445,1361.169
7446,1350.177
7447,1339.923
7448,1387.556
7449,1375.087
7450,1395.595
7451,1399.259
7452,1425.646
7453,1415.392
7454,1450.556
7455,1468.138
7456,1427.095
7457,1430.048
7458,1442.489
7459,1443.228
7460,1453.482
7461,1473.989
7462,1469.587
7463,1413.915
7464,1438.825
7465,1438.087
7466,1385.341
7467,1408.802
7468,1378.013
7469,1331.146
7470,1358.243
7471,1312.826
7472,1295.982
7473,1273.998
7474,1245.423
7475,1216.849
7476,1181.685
7477,1137.717
7478,1122.349
7479,1079.119
7480,1057.873
7481,1090.111
7482,1081.306
7483,1060.799
7484,1090.849
7485,1069.603
7486,1099.627
7487,1088.635
7488,1123.799
7489,1151.662
7490,1179.498
7491,1206.595
7492,1287.915
7493,1309.900
7494,1331.146
7495,1389.743
7496,1438.825
7497,1472.540
7498,1487.169
7499,1537.727
7500,1534.802
7501,1602.204
7502,1577.294
7503,1623.450
7504,1638.817
7505,1619.048
7506,1630.778
7507,1638.817
7508,1643.219
7509,1624.188
7510,1585.360
7511,1617.571
7512,1574.368
7513,1529.661
7514,1501.825
7515,1524.548
7516,1498.899
7517,1465.923
7518,1405.849
7519,1362.646
7520,1337.736
7521,1336.997
7522,1345.775
7523,1280.587
7524,1295.244
7525,1269.595
7526,1292.318
7527,1276.185
7528,1252.013
7529,1300.357
7530,1267.408
7531,1291.580
7532,1336.997
7533,1312.826
7534,1372.161
7535,1340.661
7536,1358.982
7537,1380.966
7538,1405.849
7539,1438.825
7540,1446.892
7541,1513.556
7542,1540.653
7543,1534.802
7544,1568.489
7545,1572.891
7546,1572.891
7547,1600.727
7548,1647.622
7549,1639.555
7550,1636.630
7551,1660.063
7552,1684.262
7553,1664.465
7554,1689.376
7555,1660.063
7556,1680.598
7557,1654.212
7558,1667.391
7559,1643.958
7560,1618.309
7561,1652.024
7562,1616.122
7563,1593.399
7564,1565.563
7565,1588.286
7566,1533.325
7567,1527.474
7568,1539.204
7569,1492.310
7570,1515.743
7571,1448.341
7572,1462.997
7573,1420.505
7574,1448.341
7575,1392.669
7576,1422.720
7577,1375.087
7578,1402.185
7579,1342.849
7580,1362.646
7581,1355.318
7582,1325.267
7583,1316.490
7584,1320.892
7585,1304.759
7586,1289.365
7587,1280.587
7588,1305.497
7589,1298.908
7590,1290.103
7591,1293.767
7592,1250.537
7593,1241.021
7594,1249.826
7595,1249.087
7596,1265.193
7597,1253.490
7598,1261.529
7599,1272.521
7600,1286.439
7601,1294.505
7602,1271.783
7603,1280.587
7604,1272.521
7605,1288.654
7606,1288.654
7607,1333.333
7608,1316.490
7609,1368.497
7610,1358.982
7611,1336.997
7612,1375.825
7613,1356.056
7614,1387.556
7615,1361.907
7616,1359.720
7617,1369.974
7618,1363.357
7619,1392.669
7620,1378.013
7621,1394.884
7622,1374.349
7623,1398.548
7624,1375.087
7625,1422.720
7626,1391.931
7627,1369.236
7628,1392.669
7629,1361.907
7630,1345.064
7631,1346.513
7632,1366.310
7633,1350.177
7634,1329.669
7635,1285.728
7636,1305.497
7637,1288.654
7638,1275.447
7639,1232.955
7640,1243.947
7641,1276.923
7642,1238.095
7643,1241.021
7644,1268.119
7645,1293.767
7646,1300.357
7647,1283.513
7648,1271.072
7649,1284.990
7650,1330.408
7651,1358.982
7652,1357.505
7653,1341.400
7654,1395.595
7655,1371.423
7656,1413.915
7657,1396.333
7658,1387.556
7659,1425.646
7660,1405.849
7661,1391.220
7662,1399.997
7663,1418.318
7664,1358.982
7665,1369.974
7666,1391.220
7667,1346.513
7668,1376.564
7669,1317.228
7670,1359.720
7671,1308.423
7672,1342.849
7673,1310.611
7674,1337.736
7675,1303.310
7676,1296.693
7677,1289.365
7678,1284.251
7679,1258.603
7680,1260.818
7681,1304.021
7682,1256.416
7683,1290.103
7684,1262.267
7685,1311.349
7686,1286.439
7687,1301.833
7688,1318.677
7689,1298.908
7690,1349.439
7691,1312.826
7692,1342.138
7693,1383.892
7694,1346.513
7695,1378.013
7696,1390.482
7697,1378.751
7698,1423.431
7699,1396.333
7700,1394.146
7701,1425.646
7702,1405.138
7703,1435.161
7704,1402.923
7705,1385.341
7706,1420.505
7707,1414.653
7708,1376.564
7709,1408.802
7710,1391.220
7711,1399.259
7712,1403.661
7713,1400.736
7714,1392.669
7715,1420.505
7716,1381.677
7717,1426.384
7718,1415.392
7719,1420.505
7720,1407.325
7721,1413.177
7722,1441.751
7723,1473.251
7724,1457.146
7725,1492.310
7726,1452.743
7727,1456.407
7728,1472.540
7729,1509.892
7730,1504.751
7731,1470.325
7732,1506.228
7733,1471.064
7734,1465.212
7735,1478.392
7736,1473.251
7737,1441.013
7738,1468.138
7739,1444.677
7740,1431.497
7741,1391.220
7742,1370.685
7743,1387.556
7744,1386.079
7745,1336.259
7746,1353.103
7747,1326.005
7748,1317.228
7749,1345.064
7750,1347.251
7751,1318.677
7752,1313.564
7753,1364.833
7754,1334.072
7755,1350.177
7756,1359.720
7757,1406.587
7758,1383.154
7759,1391.931
7760,1415.392
7761,1394.884
7762,1452.005
7763,1413.177
7764,1416.130
7765,1452.743
7766,1455.669
7767,1431.497
7768,1415.392
7769,1456.407
7770,1408.064
7771,1410.251
7772,1444.677
7773,1409.513
7774,1386.079
7775,1383.892
7776,1383.154
7777,1413.177
7778,1413.177
7779,1402.185
7780,1377.302
7781,1367.759
7782,1352.392
7783,1345.064
7784,1352.392
7785,1312.087
7786,1306.236
7787,1271.072
7788,1216.111
7789,1245.423
7790,1201.455
7791,1161.177
7792,1146.521
7793,1162.627
7794,1178.759
7795,1158.252
7796,1127.463
7797,1177.283
7798,1180.947
7799,1169.244
7800,1198.529
7801,1209.521
7802,1249.826
7803,1239.572
7804,1259.341
7805,1306.236
7806,1329.669
7807,1355.318
7808,1382.415
7809,1454.220
7810,1452.005
7811,1517.958
7812,1495.974
7813,1520.884
7814,1558.974
7815,1602.942
7816,1601.466
7817,1588.286
7818,1578.032
7819,1594.876
7820,1585.360
7821,1575.817
7822,1554.571
7823,1545.794
7824,1490.833
7825,1465.212
7826,1438.825
7827,1408.802
7828,1394.884
7829,1339.923
7830,1320.892
7831,1322.341
7832,1266.669
7833,1246.900
7834,1271.072
7835,1256.416
7836,1249.087
7837,1235.908
7838,1231.505
7839,1239.572
7840,1214.662
7841,1225.654
7842,1243.236
7843,1309.900
7844,1329.669
7845,1323.079
7846,1361.169
7847,1401.474
7848,1449.079
7849,1478.392
7850,1508.415
7851,1542.130
7852,1568.489
7853,1574.368
7854,1588.286
7855,1649.071
7856,1670.317
7857,1657.137
7858,1723.801
7859,1712.098
7860,1713.547
7861,1726.727
7862,1750.926
7863,1778.762
7864,1736.270
7865,1742.860
7866,1751.637
7867,1764.844
7868,1726.727
7869,1712.809
7870,1684.973
7871,1673.270
7872,1675.458
7873,1651.286
7874,1619.048
7875,1639.555
7876,1586.071
7877,1559.712
7878,1552.384
7879,1526.735
7880,1528.212
7881,1517.220
7882,1505.489
7883,1460.810
7884,1465.923
7885,1473.989
7886,1420.505
7887,1424.907
7888,1391.931
7889,1416.130
7890,1386.079
7891,1348.728
7892,1330.408
7893,1350.177
7894,1322.341
7895,1342.849
7896,1323.079
7897,1332.595
7898,1325.267
7899,1295.982
7900,1292.318
7901,1286.439
7902,1293.767
7903,1288.654
7904,1292.318
7905,1340.661
7906,1324.556
7907,1332.595
7908,1324.556
7909,1324.556
7910,1323.818
7911,1345.064
7912,1376.564
7913,1362.646
7914,1353.103
7915,1338.474
7916,1350.915
7917,1383.154
7918,1350.177
7919,1329.669
7920,1372.900
7921,1362.646
7922,1360.431
7923,1350.915
7924,1326.744
7925,1336.259
7926,1342.138
7927,1326.005
7928,1307.685
7929,1296.693
7930,1308.423
7931,1345.064
7932,1341.400
7933,1328.931
7934,1334.810
7935,1345.775
7936,1338.474
7937,1320.154
7938,1306.947
7939,1319.415
7940,1315.751
7941,1269.595
7942,1282.064
7943,1285.728
7944,1224.177
7945,1237.357
7946,1206.595
7947,1205.857
7948,1213.185
7949,1180.209
7950,1202.193
7951,1165.580
7952,1211.709
7953,1179.498
7954,1221.990
7955,1215.373
7956,1245.423
7957,1210.998
7958,1236.619
7959,1250.537
7960,1286.439
7961,1323.818
7962,1348.728
7963,1364.095
7964,1380.966
7965,1370.685
7966,1369.974
7967,1435.900
7968,1405.138
7969,1444.677
7970,1448.341
7971,1430.759
7972,1429.310
7973,1468.138
7974,1432.235
7975,1408.064
7976,1383.892
7977,1362.646
7978,1340.661
7979,1317.939
7980,1305.497
7981,1299.646
7982,1254.939
7983,1203.670
7984,1227.841
7985,1180.209
7986,1157.513
7987,1141.381
7988,1130.416
7989,1123.799
7990,1112.834
7991,1090.111
7992,1117.209
7993,1119.424
7994,1133.342
7995,1135.529
7996,1186.088
7997,1176.545
7998,1246.162
7999,1286.439
8000,1296.693
8001,1361.169
8002,1397.810
8003,1441.751
8004,1483.505
8005,1501.825
8006,1555.309
8007,1564.825
8008,1617.571
8009,1643.219
8010,1657.876
8011,1703.294
8012,1749.450
8013,1764.844
8014,1745.786
8015,1737.719
8016,1732.606
8017,1738.458
8018,1758.965
8019,1705.508
8020,1692.301
8021,1668.130
8022,1680.598
8023,1654.212
8024,1619.048
8025,1563.376
8026,1557.497
8027,1530.399
8028,1556.786
8029,1515.032
8030,1492.310
8031,1536.251
8032,1533.325
8033,1512.817
8034,1487.169
8035,1502.563
8036,1512.079
8037,1498.899
8038,1545.056
8039,1495.235
8040,1530.399
8041,1524.548
8042,1495.974
8043,1480.579
8044,1479.130
8045,1486.458
8046,1462.997
8047,1471.064
8048,1446.892
8049,1405.138
8050,1433.712
8051,1386.079
8052,1386.818
8053,1407.325
8054,1375.087
8055,1351.654
8056,1396.333
8057,1363.357
8058,1340.661
8059,1375.825
8060,1358.243
8061,1377.302
8062,1398.548
8063,1375.825
8064,1396.333
8065,1432.974
8066,1450.556
8067,1408.802
8068,1432.235
8069,1466.661
8070,1444.677
8071,1444.677
8072,1468.138
8073,1466.661
8074,1428.571
8075,1433.712
8076,1452.743
8077,1444.677
8078,1390.482
8079,1412.466
8080,1403.661
8081,1356.767
8082,1347.990
8083,1348.728
8084,1325.267
8085,1292.318
8086,1268.857
8087,1295.982
8088,1271.783
8089,1263.005
8090,1248.349
8091,1208.783
8092,1164.841
8093,1134.080
8094,1145.783
8095,1141.381
8096,1071.053
8097,1102.553
8098,1085.709
8099,1074.717
8100,1076.931
8101,1059.349
8102,1043.955
8103,1049.096
8104,1116.470
8105,1083.521
8106,1142.119
8107,1175.095
8108,1200.005
8109,1229.318
8110,1252.751
8111,1271.072
8112,1277.662
8113,1338.474
8114,1389.743
8115,1373.638
8116,1410.989
8117,1439.564
8118,1488.646
8119,1530.399
8120,1512.079
8121,1514.294
8122,1525.997
8123,1524.548
8124,1535.540
8125,1519.407
8126,1524.548
8127,1480.579
8128,1458.595
8129,1484.243
8130,1409.513
8131,1412.466
8132,1362.646
8133,1366.310
8134,1304.021
8135,1331.146
8136,1309.162
8137,1284.990
8138,1272.521
8139,1254.201
8140,1238.834
8141,1231.505
8142,1223.439
8143,1200.744
8144,1169.244
8145,1172.881
8146,1186.088
8147,1191.201
8148,1215.373
8149,1258.603
8150,1272.521
8151,1290.103
8152,1298.908
8153,1364.095
8154,1384.603
8155,1395.595
8156,1468.876
8157,1465.923
8158,1494.497
8159,1524.548
8160,1541.392
8161,1613.196
8162,1598.540
8163,1650.548
8164,1679.122
8165,1654.212
8166,1711.360
8167,1680.598
8168,1725.278
8169,1713.547
8170,1703.294
8171,1748.711
8172,1714.286
8173,1747.262
8174,1720.137
8175,1718.688
8176,1717.950
8177,1689.376
8178,1720.137
8179,1671.055
8180,1662.278
8181,1678.383
8182,1640.294
8183,1658.614
8184,1630.040
8185,1670.317
8186,1627.852
8187,1623.450
8188,1632.227
8189,1596.325
8190,1575.079
8191,1591.212
8192,1570.704
8193,1553.122
8194,1522.333
8195,1517.220
8196,1500.376
8197,1476.915
8198,1478.392
8199,1419.794
8200,1441.013
8201,1377.302
8202,1397.810
8203,1364.833
8204,1306.236
8205,1279.849
8206,1279.849
8207,1269.595
8208,1271.783
8209,1265.931
8210,1222.701
8211,1232.244
8212,1240.283
8213,1195.603
8214,1180.947
8215,1186.826
8216,1178.021
8217,1183.873
8218,1215.373
8219,1224.916
8220,1221.990
8221,1221.252
8222,1209.521
8223,1217.587
8224,1243.236
8225,1255.677
8226,1223.439
8227,1237.357
8228,1281.326
8229,1288.654
8230,1271.783
8231,1263.005
8232,1328.193
8233,1291.580
8234,1347.251
8235,1327.482
8236,1361.169
8237,1348.728
8238,1378.013
8239,1338.474
8240,1386.079
8241,1335.521
8242,1380.228
8243,1322.341
8244,1361.907
8245,1308.423
8246,1332.595
8247,1294.505
8248,1314.275
8249,1315.751
8250,1279.849
8251,1317.228
8252,1303.310
8253,1334.810
8254,1340.661
8255,1311.349
8256,1353.841
8257,1377.302
8258,1356.056
8259,1385.341
8260,1413.915
8261,1383.892
8262,1389.743
8263,1408.802
8264,1437.376
8265,1449.079
8266,1434.423
8267,1408.802
8268,1428.571
8269,1460.071
8270,1430.759
8271,1422.720
8272,1458.595
8273,1431.497
8274,1421.982
8275,1394.884
8276,1423.431
8277,1374.349
8278,1373.638
8279,1342.138
8280,1363.357
8281,1321.603
8282,1273.998
8283,1284.251
8284,1268.857
8285,1234.431
8286,1195.603
8287,1142.857
8288,1134.080
8289,1129.677
8290,1092.299
8291,1063.724
8292,1034.439
8293,1005.865
8294,1010.978
8295,1013.193
8296,1022.709
8297,1030.037
8298,1035.889
8299,1030.037
8300,1050.545
8301,1052.021
8302,1109.170
8303,1094.513
8304,1173.619
8305,1208.783
8306,1249.087
8307,1259.341
8308,1303.310
8309,1332.595
8310,1400.736
8311,1413.915
8312,1418.318
8313,1492.310
8314,1504.040
8315,1506.966
8316,1524.548
8317,1548.720
8318,1605.130
8319,1586.809
8320,1593.399
8321,1638.106
8322,1618.309
8323,1641.770
8324,1644.696
8325,1646.884
8326,1674.719
8327,1651.286
8328,1682.786
8329,1682.786
8330,1673.981
8331,1659.352
8332,1630.040
8333,1628.563
8334,1630.040
8335,1621.235
8336,1610.270
8337,1626.376
8338,1638.817
8339,1592.661
8340,1594.876
8341,1599.278
8342,1624.188
8343,1576.556
8344,1601.466
8345,1576.556
8346,1567.040
8347,1561.899
8348,1561.899
8349,1576.556
8350,1591.212
8351,1556.786
8352,1539.204
8353,1554.571
8354,1501.825
8355,1490.122
8356,1498.899
8357,1461.548
8358,1433.712
8359,1446.153
8360,1424.907
8361,1384.603
8362,1361.907
8363,1358.982
8364,1342.138
8365,1369.236
8366,1337.736
8367,1361.907
8368,1306.947
8369,1355.318
8370,1311.349
8371,1328.931
8372,1363.357
8373,1339.923
8374,1340.661
8375,1367.759
8376,1399.997
8377,1405.849
8378,1405.849
8379,1391.220
8380,1378.751
8381,1378.013
8382,1399.997
8383,1421.982
8384,1379.489
8385,1363.357
8386,1380.228
8387,1393.407
8388,1397.810
8389,1353.103
8390,1344.325
8391,1356.767
8392,1367.021
8393,1328.931
8394,1325.267
8395,1334.810
8396,1318.677
8397,1279.111
8398,1288.654
8399,1243.947
8400,1211.709
8401,1197.080
8402,1192.677
8403,1111.357
8404,1121.611
8405,1083.521
8406,1052.021
8407,1013.932
8408,1027.850
8409,976.553
8410,1013.193
8411,978.768
8412,990.471
8413,967.037
8414,1012.455
8415,1001.463
8416,998.537
8417,1056.424
8418,1065.939
8419,1115.021
8420,1114.283
8421,1186.088
8422,1235.908
8423,1266.669
8424,1299.646
8425,1344.325
8426,1369.236
8427,1402.185
8428,1449.817
8429,1495.974
8430,1517.220
8431,1537.727
8432,1593.399
8433,1577.294
8434,1609.532
8435,1636.630
8436,1601.466
8437,1634.442
8438,1598.540
8439,1603.653
8440,1595.614
8441,1553.122
8442,1539.204
8443,1517.220
8444,1532.614
8445,1504.751
8446,1471.064
8447,1448.341
8448,1432.235
8449,1372.161
8450,1356.056
8451,1377.302
8452,1330.408
8453,1303.310
8454,1332.595
8455,1298.908
8456,1335.521
8457,1312.087
8458,1342.138
8459,1375.087
8460,1350.915
8461,1400.736
8462,1448.341
8463,1475.466
8464,1498.161
8465,1501.087
8466,1514.294
8467,1579.481
8468,1569.227
8469,1603.653
8470,1638.106
8471,1673.981
8472,1705.508
8473,1698.891
8474,1724.540
8475,1752.375
8476,1733.344
8477,1743.598
8478,1774.360
8479,1797.793
8480,1778.762
8481,1793.418
8482,1767.032
8483,1785.352
8484,1767.032
8485,1749.450
8486,1761.180
8487,1756.040
8488,1716.473
8489,1690.114
8490,1694.516
8491,1672.532
8492,1684.973
8493,1620.524
8494,1617.571
8495,1619.048
8496,1579.481
8497,1569.227
8498,1537.727
8499,1569.227
8500,1520.884
8501,1507.704
8502,1523.810
8503,1509.892
8504,1493.786
8505,1481.317
8506,1473.251
8507,1458.595
8508,1396.333
8509,1394.146
8510,1407.325
8511,1364.095
8512,1367.759
8513,1335.521
8514,1373.638
8515,1315.013
8516,1348.728
8517,1288.654
8518,1279.849
8519,1291.580
8520,1265.931
8521,1261.529
8522,1260.080
8523,1274.736
8524,1269.595
8525,1230.029
8526,1246.162
8527,1252.751
8528,1260.818
8529,1260.818
8530,1209.521
8531,1217.587
8532,1234.431
8533,1263.744
8534,1248.349
8535,1234.431
8536,1241.021
8537,1252.013
8538,1301.095
8539,1283.513
8540,1268.857
8541,1326.005
8542,1314.275
8543,1333.333
8544,1317.939
8545,1303.310
8546,1351.654
8547,1327.482
8548,1315.751
8549,1357.505
8550,1347.251
8551,1339.185
8552,1333.333
8553,1339.185
8554,1365.572
8555,1322.341
8556,1361.907
8557,1320.892
8558,1290.841
8559,1279.111
8560,1265.931
8561,1279.849
8562,1264.482
8563,1248.349
8564,1210.259
8565,1179.498
8566,1211.709
8567,1225.654
8568,1233.693
8569,1243.947
8570,1255.677
8571,1288.654
8572,1304.759
8573,1313.564
8574,1345.775
8575,1378.013
8576,1437.376
8577,1418.318
8578,1448.341
8579,1498.161
8580,1533.325
8581,1544.317
8582,1535.540
8583,1586.071
8584,1560.450
8585,1613.196
8586,1567.778
8587,1561.899
8588,1550.907
8589,1541.392
8590,1506.966
8591,1499.638
8592,1500.376
8593,1418.318
8594,1432.235
8595,1364.095
8596,1329.669
8597,1294.505
8598,1254.201
8599,1227.103
8600,1219.775
8601,1153.849
8602,1177.283
8603,1120.873
8604,1109.170
8605,1136.267
8606,1131.865
8607,1131.127
8608,1133.342
8609,1113.545
8610,1106.955
8611,1151.662
8612,1179.498
8613,1185.349
8614,1249.087
8615,1263.005
8616,1318.677
8617,1350.177
8618,1373.638
8619,1377.302
8620,1413.177
8621,1446.892
8622,1479.130
8623,1508.415
8624,1570.704
8625,1556.786
8626,1598.540
8627,1605.130
8628,1622.712
8629,1611.720
8630,1607.317
8631,1644.696
8632,1596.325
8633,1628.563
8634,1592.661
8635,1564.114
8636,1565.563
8637,1563.376
8638,1547.243
8639,1517.958
8640,1494.497
8641,1478.392
8642,1483.505
8643,1509.892
8644,1455.669
8645,1498.161
8646,1452.005
8647,1496.712
8648,1458.595
8649,1473.989
8650,1494.497
8651,1467.399
8652,1498.161
8653,1492.310
