'sample interval','wrist_ppg'
'0.00390625 sec','mV'
0,1271.776
1,1267.387
2,1254.219
3,1286.435
4,1257.159
5,1287.927
6,1315.754
7,1344.305
8,1350.910
9,1362.629
10,1378.013
11,1389.007
12,1377.288
13,1388.283
14,1364.121
15,1375.072
16,1372.899
17,1398.553
18,1392.672
19,1364.845
20,1387.558
21,1418.326
22,1421.991
23,1398.553
24,1434.434
25,1404.391
26,1445.428
27,1473.980
28,1438.823
29,1475.471
30,1495.969
31,1517.958
32,1504.747
33,1511.352
34,1528.185
35,1573.612
36,1548.001
37,1582.433
38,1562.617
39,1616.098
40,1588.271
41,1586.098
42,1610.260
43,1610.984
44,1616.098
45,1600.714
46,1638.811
47,1594.152
48,1629.308
49,1618.314
50,1586.098
51,1586.822
52,1608.811
53,1573.612
54,1537.731
55,1526.736
56,1506.239
57,1503.298
58,1515.017
59,1481.309
60,1421.991
61,1417.601
62,1388.283
63,1386.067
64,1342.856
65,1284.986
66,1262.997
67,1243.224
68,1227.116
69,1146.533
70,1151.647
71,1136.263
72,1095.950
73,1052.015
74,1013.193
75,1001.474
76,983.875
77,965.551
78,971.431
79,964.826
80,933.334
81,914.286
82,905.507
83,926.729
84,934.059
85,926.729
86,898.178
87,954.599
88,920.891
89,961.886
90,966.318
91,972.880
92,1023.463
93,1041.020
94,1063.734
95,1073.279
96,1066.674
97,1101.831
98,1096.717
99,1142.144
100,1175.084
101,1172.911
102,1161.917
103,1197.073
104,1241.008
105,1217.571
106,1248.338
107,1278.381
108,1300.370
109,1293.765
110,1286.435
111,1301.094
112,1351.635
113,1372.175
114,1351.635
115,1391.223
116,1393.397
117,1406.607
118,1388.283
119,1438.823
120,1397.786
121,1432.218
122,1428.553
123,1413.937
124,1427.829
125,1461.536
126,1412.445
127,1445.428
128,1410.272
129,1402.942
130,1422.715
131,1372.899
132,1399.277
133,1360.456
134,1335.527
135,1370.683
136,1362.629
137,1339.916
138,1340.640
139,1322.359
140,1301.819
141,1286.435
142,1306.975
143,1300.370
144,1290.824
145,1280.597
146,1258.608
147,1284.262
148,1258.608
149,1276.932
150,1275.441
151,1283.537
152,1278.381
153,1286.435
154,1284.986
155,1271.051
156,1267.387
157,1274.716
158,1284.262
159,1277.657
160,1299.645
161,1276.208
162,1262.273
163,1281.321
164,1294.489
165,1266.662
166,1273.267
167,1277.657
168,1296.705
169,1294.489
170,1276.208
171,1271.051
172,1264.489
173,1248.338
174,1290.824
175,1292.316
176,1288.651
177,1253.494
178,1283.537
179,1259.332
180,1273.992
181,1308.424
182,1295.256
183,1297.430
184,1279.105
185,1280.597
186,1295.981
187,1304.035
188,1292.316
189,1296.705
190,1304.035
191,1353.126
192,1356.024
193,1360.456
194,1344.305
195,1356.024
196,1352.402
197,1340.640
198,1333.353
199,1345.797
200,1326.024
201,1301.819
202,1269.602
203,1266.662
204,1287.927
205,1264.489
206,1221.235
207,1241.775
208,1212.457
209,1235.895
210,1230.057
211,1259.332
212,1221.960
213,1238.111
214,1268.878
215,1331.137
216,1335.527
217,1337.742
218,1411.721
219,1402.218
220,1465.201
221,1501.849
222,1525.287
223,1547.233
224,1557.503
225,1575.828
226,1583.882
227,1586.822
228,1571.438
229,1536.282
230,1524.563
231,1513.568
232,1508.412
233,1532.617
234,1473.980
235,1504.023
236,1462.985
237,1446.153
238,1490.131
239,1446.153
240,1491.579
241,1471.082
242,1526.012
243,1498.185
244,1541.395
245,1588.271
246,1612.433
247,1596.325
248,1608.044
249,1665.914
250,1659.351
251,1658.627
252,1672.519
253,1633.698
254,1667.405
255,1605.871
256,1627.092
257,1574.379
258,1524.563
259,1489.364
260,1491.579
261,1435.883
262,1389.732
263,1382.402
264,1328.197
265,1288.651
266,1254.219
267,1232.230
268,1254.219
269,1242.500
270,1243.224
271,1245.440
272,1260.824
273,1268.111
274,1262.273
275,1321.592
276,1357.515
277,1351.635
278,1399.277
279,1454.207
280,1485.699
281,1512.077
282,1589.762
283,1593.427
284,1621.979
285,1691.568
286,1709.892
287,1715.730
288,1723.059
289,1742.108
290,1758.983
291,1777.307
292,1783.870
293,1786.810
294,1789.026
295,1785.361
296,1783.145
297,1773.642
298,1761.923
299,1772.151
300,1743.599
301,1725.275
302,1707.676
303,1701.113
304,1672.519
305,1699.622
306,1649.806
307,1669.579
308,1638.087
309,1660.800
310,1674.735
311,1635.913
312,1666.681
313,1677.675
314,1656.411
315,1646.865
316,1669.579
317,1676.184
318,1641.027
319,1673.243
320,1664.465
321,1618.314
322,1616.865
323,1627.859
324,1615.373
325,1595.601
326,1587.546
327,1547.233
328,1507.688
329,1511.352
330,1520.898
331,1471.806
332,1492.304
333,1473.255
334,1461.536
335,1471.082
336,1463.752
337,1464.477
338,1450.542
339,1476.920
340,1454.207
341,1462.261
342,1493.753
343,1456.423
344,1491.579
345,1503.298
346,1475.471
347,1479.861
348,1523.796
349,1533.341
350,1534.066
351,1529.676
352,1503.298
353,1511.352
354,1507.688
355,1535.515
356,1545.060
357,1515.742
358,1504.023
359,1536.282
360,1550.174
361,1515.742
362,1506.963
363,1511.352
364,1561.168
365,1526.012
366,1523.071
367,1544.336
368,1561.893
369,1531.850
370,1528.952
371,1545.785
372,1530.401
373,1531.850
374,1514.293
375,1504.023
376,1520.131
377,1520.131
378,1517.958
379,1471.082
380,1467.417
381,1487.915
382,1481.309
383,1499.634
384,1487.915
385,1480.585
386,1442.488
387,1455.698
388,1474.704
389,1416.834
390,1437.374
391,1395.612
392,1425.655
393,1382.402
394,1352.402
395,1331.862
396,1313.538
397,1284.986
398,1294.489
399,1301.094
400,1251.278
401,1235.170
402,1273.992
403,1225.625
404,1247.614
405,1266.662
406,1237.344
407,1258.608
408,1264.489
409,1314.305
410,1355.299
411,1347.970
412,1392.672
413,1386.067
414,1432.985
415,1453.482
416,1477.645
417,1530.401
418,1556.779
419,1553.839
420,1602.930
421,1578.768
422,1637.362
423,1605.871
424,1645.416
425,1620.530
426,1617.589
427,1639.578
428,1646.141
429,1595.601
430,1586.822
431,1593.427
432,1548.725
433,1509.904
434,1458.596
435,1410.272
436,1383.894
437,1330.413
438,1308.424
439,1243.949
440,1211.008
441,1128.933
442,1077.668
443,1042.512
444,969.983
445,943.604
446,878.405
447,796.330
448,763.389
449,691.585
450,679.866
451,624.893
452,539.196
453,493.045
454,451.284
455,435.175
456,420.516
457,350.927
458,360.430
459,361.922
460,349.436
461,345.771
462,339.208
463,364.819
464,382.419
465,369.251
466,424.181
467,504.764
468,523.813
469,624.169
470,654.212
471,732.622
472,812.438
473,883.519
474,1012.469
475,1052.015
476,1142.144
477,1252.727
478,1286.435
479,1362.629
480,1406.607
481,1504.023
482,1509.904
483,1537.006
484,1583.157
485,1569.222
486,1597.049
487,1598.541
488,1572.163
489,1566.282
490,1571.438
491,1566.282
492,1532.617
493,1501.082
494,1466.650
495,1463.752
496,1469.591
497,1433.709
498,1388.283
499,1410.272
500,1358.240
501,1381.678
502,1361.180
503,1358.240
504,1330.413
505,1342.132
506,1344.305
507,1334.078
508,1317.970
509,1315.029
510,1323.083
511,1339.191
512,1317.202
513,1326.748
514,1343.581
515,1310.640
516,1322.359
517,1351.635
518,1315.029
519,1375.072
520,1342.132
521,1379.504
522,1413.169
523,1416.110
524,1410.272
525,1432.985
526,1449.818
527,1487.915
528,1506.963
529,1523.796
530,1552.390
531,1517.958
532,1519.406
533,1521.622
534,1520.131
535,1512.801
536,1511.352
537,1521.622
538,1454.931
539,1457.147
540,1454.207
541,1391.223
542,1405.115
543,1346.521
544,1334.078
545,1347.970
546,1315.029
547,1280.597
548,1269.602
549,1271.776
550,1304.035
551,1293.040
552,1281.321
553,1273.992
554,1269.602
555,1300.370
556,1310.640
557,1343.581
558,1353.851
559,1347.970
560,1338.467
561,1330.413
562,1342.856
563,1389.007
564,1350.910
565,1397.786
566,1353.851
567,1395.612
568,1356.791
569,1369.234
570,1394.121
571,1364.845
572,1332.586
573,1323.083
574,1313.538
575,1305.484
576,1294.489
577,1319.418
578,1280.597
579,1253.494
580,1257.159
581,1249.830
582,1212.457
583,1168.479
584,1172.144
585,1188.295
586,1175.084
587,1121.604
588,1145.808
589,1169.246
590,1125.993
591,1178.749
592,1189.019
593,1180.241
594,1221.235
595,1221.960
596,1230.781
597,1269.602
598,1294.489
599,1348.737
600,1369.234
601,1421.266
602,1448.369
603,1479.861
604,1483.525
605,1543.569
606,1572.887
607,1615.373
608,1632.249
609,1638.087
610,1661.525
611,1649.081
612,1663.740
613,1668.130
614,1673.243
615,1690.843
616,1699.622
617,1706.951
618,1681.298
619,1684.962
620,1643.968
621,1635.913
622,1625.643
623,1647.632
624,1579.492
625,1605.146
626,1567.049
627,1548.725
628,1518.682
629,1473.255
630,1429.320
631,1376.564
632,1372.899
633,1318.694
634,1315.029
635,1254.219
636,1224.900
637,1208.068
638,1204.403
639,1180.965
640,1172.144
641,1120.155
642,1121.604
643,1129.658
644,1169.246
645,1202.911
646,1247.614
647,1279.872
648,1292.316
649,1331.862
650,1422.715
651,1491.579
652,1547.233
653,1595.601
654,1657.135
655,1751.653
656,1823.458
657,1882.777
658,1941.371
659,2003.673
660,2097.424
661,2114.300
662,2156.786
663,2197.056
664,2227.824
665,2246.872
666,2252.753
667,2250.537
668,2240.310
669,2195.607
670,2171.445
671,2138.462
672,2103.305
673,2046.884
674,2001.457
675,1913.544
676,1894.496
677,1827.847
678,1758.983
679,1717.221
680,1677.675
681,1631.482
682,1635.146
683,1575.103
684,1581.666
685,1565.558
686,1515.742
687,1536.282
688,1519.406
689,1498.909
690,1537.731
691,1511.352
692,1491.579
693,1523.796
694,1495.244
695,1541.395
696,1531.850
697,1510.628
698,1504.023
699,1553.114
700,1526.012
701,1538.455
702,1568.498
703,1538.455
704,1551.665
705,1572.163
706,1615.373
707,1587.546
708,1621.254
709,1663.740
710,1684.238
711,1687.178
712,1716.497
713,1749.437
714,1791.924
715,1790.475
716,1820.518
717,1860.064
718,1855.674
719,1882.053
720,1865.944
721,1900.377
722,1882.777
723,1907.706
724,1886.442
725,1888.658
726,1863.729
727,1889.382
728,1835.177
729,1826.356
730,1843.231
731,1804.410
732,1778.756
733,1786.086
734,1797.805
735,1776.540
736,1737.719
737,1720.162
738,1710.616
739,1696.724
740,1693.059
741,1706.227
742,1646.141
743,1647.632
744,1605.146
745,1621.979
746,1601.481
747,1526.736
748,1489.364
749,1475.471
750,1408.780
751,1408.780
752,1356.791
753,1302.543
754,1275.441
755,1295.256
756,1241.775
757,1238.835
758,1220.511
759,1223.451
760,1265.938
761,1282.770
762,1297.430
763,1308.424
764,1314.305
765,1315.754
766,1359.689
767,1331.137
768,1375.839
769,1342.856
770,1343.581
771,1335.527
772,1290.100
773,1298.154
774,1235.895
775,1204.403
776,1172.911
777,1173.635
778,1119.430
779,1094.501
780,1038.847
781,1063.009
782,1026.361
783,1005.139
784,996.318
785,942.113
786,926.729
787,960.437
788,904.783
789,934.783
790,923.064
791,892.297
792,941.389
793,919.400
794,923.789
795,934.059
796,905.507
797,936.275
798,915.735
799,960.437
800,939.940
801,912.837
802,946.502
803,925.280
804,898.902
805,863.021
806,834.427
807,852.027
808,820.492
809,773.617
810,704.752
811,697.423
812,657.877
813,621.229
814,573.629
815,488.656
816,459.338
817,424.905
818,388.257
819,358.981
820,311.339
821,293.782
822,236.636
823,211.707
824,219.037
825,239.577
826,227.858
827,274.733
828,286.452
829,308.441
830,373.641
831,391.198
832,461.554
833,515.034
834,584.623
835,654.936
836,704.752
837,787.552
838,893.789
839,980.934
840,1054.955
841,1098.166
842,1159.701
843,1235.895
844,1320.867
845,1384.618
846,1447.602
847,1503.298
848,1580.941
849,1642.476
850,1723.059
851,1772.151
852,1797.080
853,1822.691
854,1873.999
855,1922.323
856,1917.934
857,1947.977
858,1978.744
859,1986.798
860,1961.187
861,1950.193
862,1952.366
863,1943.587
864,1906.939
865,1890.107
866,1834.453
867,1791.924
868,1733.329
869,1699.622
870,1638.811
871,1602.930
872,1548.001
873,1534.790
874,1514.293
875,1435.158
876,1429.320
877,1396.337
878,1400.002
879,1382.402
880,1361.905
881,1345.797
882,1328.921
883,1278.381
884,1259.332
885,1277.657
886,1213.906
887,1219.062
888,1174.360
889,1186.079
890,1173.635
891,1161.917
892,1129.658
893,1095.950
894,1090.836
895,1054.231
896,1047.626
897,1049.799
898,1071.063
899,1063.009
900,1043.961
901,1031.517
902,1032.242
903,1084.998
904,1076.944
905,1087.171
906,1117.939
907,1131.874
908,1147.982
909,1192.684
910,1227.841
911,1249.830
912,1262.273
913,1279.872
914,1322.359
915,1352.402
916,1402.942
917,1414.661
918,1434.434
919,1470.315
920,1500.358
921,1545.060
922,1596.325
923,1594.876
924,1668.854
925,1652.746
926,1720.162
927,1701.838
928,1736.994
929,1747.989
930,1763.372
931,1799.253
932,1810.248
933,1817.577
934,1801.469
935,1767.037
936,1759.707
937,1730.389
938,1739.935
939,1676.184
940,1657.860
941,1643.243
942,1602.930
943,1572.887
944,1487.190
945,1473.980
946,1401.451
947,1381.678
948,1316.478
949,1293.040
950,1284.986
951,1227.841
952,1180.241
953,1150.198
954,1120.879
955,1112.101
956,1094.501
957,1076.944
958,1055.680
959,1036.631
960,1021.972
961,1008.804
962,950.934
963,982.426
964,969.983
965,953.107
966,948.718
967,959.713
968,974.372
969,995.594
970,1007.313
971,1025.637
972,1030.026
973,1108.436
974,1155.311
975,1180.241
976,1243.224
977,1321.592
978,1403.667
979,1459.321
980,1507.688
981,1606.595
982,1619.038
983,1702.562
984,1736.994
985,1779.480
986,1808.799
987,1818.302
988,1866.669
989,1830.788
990,1826.356
991,1852.734
992,1827.847
993,1757.492
994,1723.059
995,1710.616
996,1637.362
997,1595.601
998,1551.665
999,1507.688
1000,1402.942
1001,1400.002
1002,1347.970
1003,1279.872
1004,1230.057
1005,1220.511
1006,1139.928
1007,1150.922
1008,1104.047
1009,1078.393
1010,1067.398
1011,1064.458
1012,1065.950
1013,1065.950
1014,1029.301
1015,1027.853
1016,1052.015
1017,1097.441
1018,1104.047
1019,1113.550
1020,1118.663
1021,1197.798
1022,1197.798
1023,1270.327
1024,1268.878
1025,1338.467
1026,1403.667
1027,1441.764
1028,1504.747
1029,1563.384
1030,1594.152
1031,1617.589
1032,1708.443
1033,1729.665
1034,1762.648
1035,1786.086
1036,1845.404
1037,1842.507
1038,1877.663
1039,1915.036
1040,1882.053
1041,1895.987
1042,1907.706
1043,1887.166
1044,1902.550
1045,1849.069
1046,1839.566
1047,1850.561
1048,1821.967
1049,1772.151
1050,1758.259
1051,1748.713
1052,1728.940
1053,1715.730
1054,1704.778
1055,1722.335
1056,1687.903
1057,1666.681
1058,1704.011
1059,1666.681
1060,1696.724
1061,1665.189
1062,1704.011
1063,1657.860
1064,1691.568
1065,1686.454
1066,1641.752
1067,1678.400
1068,1641.027
1069,1624.195
1070,1642.476
1071,1599.265
1072,1603.655
1073,1624.919
1074,1620.530
1075,1602.206
1076,1582.433
1077,1564.833
1078,1580.941
1079,1572.887
1080,1581.666
1081,1597.816
1082,1582.433
1083,1619.038
1084,1641.752
1085,1616.865
1086,1621.254
1087,1660.800
1088,1646.141
1089,1663.740
1090,1664.465
1091,1651.297
1092,1654.962
1093,1663.740
1094,1649.806
1095,1651.297
1096,1670.346
1097,1619.038
1098,1631.482
1099,1645.416
1100,1614.649
1101,1591.936
1102,1619.038
1103,1619.038
1104,1620.530
1105,1629.308
1106,1624.195
1107,1657.135
1108,1671.795
1109,1684.962
1110,1722.335
1111,1757.492
1112,1748.713
1113,1769.210
1114,1784.594
1115,1798.529
1116,1840.291
1117,1855.674
1118,1867.393
1119,1870.334
1120,1849.069
1121,1845.404
1122,1871.058
1123,1832.237
1124,1819.026
1125,1833.686
1126,1824.183
1127,1786.810
1128,1758.983
1129,1737.719
1130,1715.730
1131,1691.568
1132,1678.400
1133,1642.476
1134,1622.703
1135,1567.049
1136,1535.515
1137,1526.012
1138,1513.568
1139,1460.088
1140,1427.104
1141,1442.488
1142,1379.504
1143,1392.672
1144,1342.856
1145,1372.175
1146,1346.521
1147,1325.257
1148,1311.364
1149,1294.489
1150,1339.191
1151,1320.867
1152,1325.257
1153,1286.435
1154,1316.478
1155,1337.742
1156,1303.310
1157,1320.867
1158,1349.461
1159,1350.186
1160,1315.754
1161,1363.354
1162,1342.132
1163,1366.294
1164,1410.996
1165,1380.229
1166,1397.786
1167,1417.601
1168,1445.428
1169,1460.088
1170,1466.650
1171,1498.909
1172,1523.796
1173,1523.071
1174,1531.125
1175,1530.401
1176,1524.563
1177,1565.558
1178,1547.233
1179,1522.347
1180,1517.958
1181,1547.233
1182,1538.455
1183,1500.358
1184,1495.969
1185,1462.985
1186,1430.045
1187,1439.548
1188,1367.018
1189,1386.834
1190,1336.251
1191,1306.208
1192,1279.105
1193,1245.440
1194,1199.247
1195,1168.479
1196,1117.214
1197,1070.339
1198,1049.074
1199,1019.031
1200,923.064
1201,895.962
1202,827.097
1203,797.822
1204,715.747
1205,690.860
1206,633.715
1207,569.964
1208,521.597
1209,471.781
1210,385.359
1211,381.695
1212,347.262
1213,304.009
1214,263.014
1215,268.128
1216,273.242
1217,250.528
1218,296.722
1219,316.495
1220,350.927
1221,389.024
1222,393.414
1223,471.781
1224,498.884
1225,598.515
1226,665.206
1227,695.974
1228,782.438
1229,838.816
1230,891.573
1231,900.351
1232,962.653
1233,1027.853
1234,1076.177
1235,1098.166
1236,1116.490
1237,1135.538
1238,1132.598
1239,1167.030
1240,1168.479
1241,1208.792
1242,1164.090
1243,1197.073
1244,1219.787
1245,1175.084
1246,1204.403
1247,1229.290
1248,1230.781
1249,1221.235
1250,1233.679
1251,1429.320
1252,1468.866
1253,1508.412
1254,1521.622
1255,1566.282
1256,1567.773
1257,1632.973
1258,1627.859
1259,1648.357
1260,1698.173
1261,1700.346
1262,1710.616
1263,1735.545
1264,1761.923
1265,1813.188
1266,1814.637
1267,1823.458
1268,1579.492
1269,1535.515
1270,1496.693
1271,1479.861
1272,1416.110
1273,1416.834
1274,1360.456
1275,1358.964
1276,1325.257
1277,1293.765
1278,1282.046
1279,1261.548
1280,1235.170
1281,1231.505
1282,1208.792
1283,1206.576
1284,1222.727
1285,1070.339
1286,1060.793
1287,1062.285
1288,1047.626
1289,1057.128
1290,1093.777
1291,1084.998
1292,1084.998
1293,1095.226
1294,1124.544
1295,1184.630
1296,1219.787
1297,1259.332
1298,1275.441
1299,1322.359
1300,1361.180
1301,1437.374
1302,1460.088
1303,1497.418
1304,1546.509
1305,1605.146
1306,1613.200
1307,1695.957
1308,1700.346
1309,1757.492
1310,1772.875
1311,1780.205
1312,1803.643
1313,1814.637
1314,1857.123
1315,1829.296
1316,1820.518
1317,1843.956
1318,1849.836
1319,1798.529
1320,1788.259
1321,1780.205
1322,1745.773
1323,1701.838
1324,1693.783
1325,1650.530
1326,1613.925
1327,1566.282
1328,1570.714
1329,1509.904
1330,1450.542
1331,1434.434
1332,1397.061
1333,1365.569
1334,1302.543
1335,1266.662
1336,1235.895
1337,1235.170
1338,1242.500
1339,1232.954
1340,1227.841
1341,1218.295
1342,1237.344
1343,1239.560
1344,1242.500
1345,1327.472
1346,1323.083
1347,1387.558
1348,1441.764
1349,1477.645
1350,1537.731
1351,1615.373
1352,1671.795
1353,1676.184
1354,1721.610
1355,1750.162
1356,1773.642
1357,1791.199
1358,1821.967
1359,1789.750
1360,1784.594
1361,1767.762
1362,1754.594
1363,1744.324
1364,1728.940
1365,1706.951
1366,1725.275
1367,1664.465
1368,1642.476
1369,1632.249
1370,1649.806
1371,1585.331
1372,1591.936
1373,1573.612
1374,1528.952
1375,1513.568
1376,1491.579
1377,1482.801
1378,1476.920
1379,1465.201
1380,1425.655
1381,1389.732
1382,1410.272
1383,1354.575
1384,1328.197
1385,1361.180
1386,1356.791
1387,1336.975
1388,1313.538
1389,1304.035
1390,1336.975
1391,1330.413
1392,1349.461
1393,1380.229
1394,1424.164
1395,1441.039
1396,1440.272
1397,1444.704
1398,1491.579
1399,1527.461
1400,1509.136
1401,1518.682
1402,1547.233
1403,1608.044
1404,1599.990
1405,1638.811
1406,1665.914
1407,1679.849
1408,1697.448
1409,1708.443
1410,1748.713
1411,1806.583
1412,1816.853
1413,1849.836
1414,1868.118
1415,1924.539
1416,1970.690
1417,1991.187
1418,2008.787
1419,2032.225
1420,2071.813
1421,2052.765
1422,2073.262
1423,2087.197
1424,2079.100
1425,2061.543
1426,2072.538
1427,2019.057
1428,1991.187
1429,1975.079
1430,1926.755
1431,1916.485
1432,1865.220
1433,1822.691
1434,1763.372
1435,1725.275
1436,1695.957
1437,1693.059
1438,1619.038
1439,1605.146
1440,1583.882
1441,1538.455
1442,1512.077
1443,1499.634
1444,1491.579
1445,1471.082
1446,1434.434
1447,1450.542
1448,1405.840
1449,1372.175
1450,1372.899
1451,1356.791
1452,1353.851
1453,1296.705
1454,1277.657
1455,1267.387
1456,1240.284
1457,1252.003
1458,1211.733
1459,1216.122
1460,1211.008
1461,1218.295
1462,1196.349
1463,1182.414
1464,1210.241
1465,1214.673
1466,1178.749
1467,1168.479
1468,1188.295
1469,1211.733
1470,1214.673
1471,1174.360
1472,1185.354
1473,1208.792
1474,1169.246
1475,1178.749
1476,1161.192
1477,1160.425
1478,1133.323
1479,1120.155
1480,1110.609
1481,1065.950
1482,1052.015
1483,1020.523
1484,1034.415
1485,1011.702
1486,984.599
1487,978.761
1488,1008.804
1489,1012.469
1490,1026.361
1491,1027.853
1492,1057.128
1493,1089.387
1494,1100.382
1495,1095.950
1496,1163.365
1497,1153.863
1498,1200.014
1499,1242.500
1500,1267.387
1501,1278.381
1502,1344.305
1503,1366.294
1504,1380.229
1505,1376.564
1506,1394.121
1507,1426.380
1508,1460.812
1509,1433.709
1510,1427.104
1511,1420.499
1512,1410.996
1513,1419.050
1514,1413.937
1515,1405.840
1516,1328.197
1517,1334.078
1518,1287.160
1519,1231.505
1520,1169.246
1521,1123.820
1522,1068.123
1523,1014.642
1524,951.659
1525,881.303
1526,830.038
1527,718.687
1528,707.693
1529,637.379
1530,575.078
1531,500.375
1532,507.705
1533,471.781
1534,438.840
1535,380.203
1536,406.581
1537,358.257
1538,405.857
1539,385.359
1540,378.754
1541,427.846
1542,467.392
1543,503.315
1544,491.554
1545,538.472
1546,609.510
1547,656.428
1548,672.536
1549,766.287
1550,802.211
1551,849.086
1552,877.638
1553,966.318
1554,977.270
1555,1067.398
1556,1082.782
1557,1147.257
1558,1201.463
1559,1202.911
1560,1276.208
1561,1282.770
1562,1354.575
1563,1403.667
1564,1443.212
1565,1477.645
1566,1473.980
1567,1528.952
1568,1542.120
1569,1555.330
1570,1607.319
1571,1654.962
1572,1656.411
1573,1704.011
1574,1713.556
1575,1708.443
1576,1728.216
1577,1749.437
1578,1769.210
1579,1786.086
1580,1821.967
1581,1813.913
1582,1808.075
1583,1802.194
1584,1817.577
1585,1800.020
1586,1791.199
1587,1756.043
1588,1746.540
1589,1726.000
1590,1715.730
1591,1699.622
1592,1699.622
1593,1701.838
1594,1693.059
1595,1670.346
1596,1681.298
1597,1635.146
1598,1668.854
1599,1617.589
1600,1654.195
1601,1624.919
1602,1594.152
1603,1610.984
1604,1610.260
1605,1594.152
1606,1564.109
1607,1558.995
1608,1534.790
1609,1523.071
1610,1512.077
1611,1501.849
1612,1491.579
1613,1467.417
1614,1449.093
1615,1415.385
1616,1425.655
1617,1400.726
1618,1340.640
1619,1304.035
1620,1281.321
1621,1277.657
1622,1250.554
1623,1224.176
1624,1170.695
1625,1183.138
1626,1134.047
1627,1091.561
1628,1073.279
1629,1052.739
1630,1074.728
1631,1038.847
1632,994.869
1633,977.270
1634,958.988
1635,961.161
1636,944.329
1637,940.664
1638,963.377
1639,915.735
1640,938.448
1641,915.010
1642,931.119
1643,893.789
1644,897.453
1645,862.254
1646,890.124
1647,868.135
1648,846.870
1649,847.637
1650,820.492
1651,775.108
1652,746.514
1653,763.389
1654,744.341
1655,697.423
1656,662.990
1657,679.141
1658,617.564
1659,649.098
1660,626.385
1661,612.450
1662,608.785
1663,564.850
1664,602.180
1665,612.450
1666,616.839
1667,628.558
1668,615.391
1669,654.212
1670,686.428
1671,698.914
1672,741.400
1673,799.270
1674,799.995
1675,882.070
1676,898.902
1677,969.216
1678,1005.139
1679,1035.182
1680,1114.998
1681,1156.036
1682,1211.733
1683,1249.830
1684,1276.208
1685,1301.094
1686,1337.742
1687,1388.283
1688,1430.045
1689,1469.591
1690,1478.369
1691,1553.839
1692,1548.725
1693,1593.427
1694,1571.438
1695,1600.714
1696,1610.260
1697,1599.990
1698,1607.319
1699,1605.146
1700,1586.098
1701,1588.271
1702,1588.995
1703,1524.563
1704,1524.563
1705,1487.190
1706,1454.931
1707,1468.866
1708,1410.996
1709,1403.667
1710,1421.266
1711,1375.072
1712,1387.558
1713,1344.305
1714,1362.629
1715,1350.186
1716,1320.867
1717,1370.683
1718,1345.072
1719,1346.521
1720,1353.851
1721,1395.612
1722,1414.661
1723,1378.737
1724,1413.937
1725,1438.099
1726,1453.482
1727,1461.536
1728,1478.369
1729,1501.082
1730,1566.282
1731,1576.552
1732,1574.379
1733,1603.655
1734,1654.962
1735,1673.243
1736,1709.167
1737,1723.059
1738,1735.545
1739,1731.156
1740,1764.097
1741,1794.864
1742,1793.415
1743,1821.967
1744,1835.177
1745,1858.615
1746,1876.939
1747,1887.166
1748,1897.436
1749,1914.269
1750,1928.204
1751,1942.139
1752,1959.696
1753,1972.906
1754,2006.614
1755,2016.841
1756,2021.230
1757,2020.506
1758,2029.284
1759,2072.538
1760,2085.706
1761,2087.197
1762,2084.257
1763,2092.311
1764,2120.138
1765,2125.294
1766,2156.061
1767,2159.726
1768,2158.959
1769,2173.618
1770,2179.499
1771,2209.542
1772,2219.770
1773,2208.775
1774,2203.661
1775,2197.056
1776,2191.218
1777,2176.559
1778,2159.726
1779,2142.127
1780,2128.959
1781,2091.586
1782,2073.262
1783,2002.182
1784,1967.025
1785,1953.133
1786,1878.388
1787,1817.577
1788,1782.421
1789,1754.594
1790,1678.400
1791,1676.184
1792,1585.331
1793,1595.601
1794,1560.444
1795,1526.736
1796,1499.634
1797,1438.099
1798,1434.434
1799,1397.786
1800,1363.354
1801,1356.024
1802,1368.510
1803,1373.624
1804,1315.029
1805,1332.586
1806,1356.791
1807,1322.359
1808,1309.148
1809,1353.851
1810,1340.640
1811,1321.592
1812,1317.202
1813,1335.527
1814,1338.467
1815,1371.408
1816,1325.257
1817,1323.808
1818,1355.299
1819,1331.862
1820,1353.126
1821,1328.921
1822,1351.635
1823,1377.288
1824,1333.353
1825,1353.851
1826,1353.851
1827,1317.970
1828,1357.515
1829,1320.867
1830,1308.424
1831,1305.484
1832,1281.321
1833,1270.327
1834,1262.997
1835,1247.614
1836,1287.927
1837,1270.327
1838,1244.673
1839,1280.597
1840,1290.824
1841,1294.489
1842,1280.597
1843,1283.537
1844,1332.586
1845,1309.148
1846,1330.413
1847,1369.959
1848,1399.277
1849,1436.650
1850,1424.164
1851,1462.985
1852,1515.742
1853,1539.946
1854,1530.401
1855,1596.325
1856,1576.552
1857,1622.703
1858,1624.195
1859,1662.292
1860,1699.622
1861,1701.838
1862,1747.264
1863,1765.588
1864,1764.821
1865,1769.977
1866,1821.242
1867,1813.913
1868,1843.231
1869,1866.669
1870,1838.842
1871,1867.393
1872,1887.166
1873,1870.334
1874,1868.885
1875,1862.280
1876,1833.686
1877,1832.961
1878,1816.853
1879,1791.199
1880,1755.318
1881,1711.340
1882,1688.627
1883,1653.470
1884,1596.325
1885,1533.341
1886,1459.321
1887,1421.991
1888,1317.202
1889,1262.273
1890,1171.420
1891,1128.933
1892,1047.626
1893,968.491
1894,871.075
1895,797.055
1896,698.914
1897,644.709
1898,575.845
1899,470.332
1900,441.014
1901,386.084
1902,345.047
1903,265.188
1904,280.571
1905,251.295
1906,225.642
1907,162.658
1908,174.377
1909,185.329
1910,199.264
1911,208.809
1912,175.826
1913,192.658
1914,240.301
1915,246.906
1916,290.841
1917,372.874
1918,402.917
1919,462.278
1920,504.040
1921,553.131
1922,591.228
1923,672.536
1924,685.704
1925,765.563
1926,837.367
1927,854.200
1928,938.448
1929,1008.804
1930,1049.074
1931,1074.728
1932,1162.641
1933,1201.463
1934,1215.397
1935,1297.430
1936,1343.581
1937,1382.402
1938,1409.505
1939,1438.823
1940,1517.958
1941,1521.622
1942,1566.282
1943,1602.206
1944,1627.859
1945,1671.795
1946,1734.054
1947,1747.264
1948,1748.713
1949,1793.415
1950,1818.302
1951,1811.739
1952,1852.734
1953,1841.015
1954,1835.902
1955,1847.620
1956,1835.177
1957,1849.836
1958,1827.847
1959,1831.512
1960,1809.523
1961,1759.707
1962,1736.994
1963,1728.940
1964,1719.395
1965,1676.184
1966,1646.865
1967,1617.589
1968,1587.546
1969,1532.617
1970,1504.747
1971,1497.418
1972,1464.477
1973,1435.158
1974,1420.499
1975,1404.391
1976,1402.942
1977,1392.672
1978,1394.888
1979,1375.839
1980,1386.067
1981,1378.737
1982,1386.834
1983,1397.786
1984,1405.840
1985,1425.655
1986,1437.374
1987,1473.980
1988,1497.418
1989,1486.466
1990,1509.904
1991,1556.055
1992,1560.444
1993,1548.001
1994,1608.811
1995,1583.157
1996,1600.714
1997,1613.925
1998,1639.578
1999,1657.860
2000,1649.806
2001,1639.578
2002,1657.135
2003,1680.573
2004,1640.303
2005,1645.416
2006,1630.033
2007,1628.584
2008,1611.709
2009,1638.811
2010,1577.276
2011,1564.833
2012,1572.887
2013,1513.568
2014,1504.023
2015,1490.855
2016,1471.082
2017,1454.207
2018,1423.439
2019,1360.456
2020,1328.197
2021,1320.143
2022,1325.257
2023,1285.711
2024,1267.387
2025,1230.781
2026,1243.224
2027,1213.906
2028,1190.468
2029,1180.241
2030,1157.527
2031,1092.328
2032,1109.885
2033,1072.512
2034,1071.063
2035,1016.858
2036,994.869
2037,1019.799
2038,1007.313
2039,991.929
2040,975.096
2041,947.994
2042,905.507
2043,929.670
2044,936.999
2045,904.016
2046,887.908
2047,880.578
2048,927.454
2049,928.945
2050,912.070
2051,967.767
2052,987.540
2053,1033.691
2054,1047.626
2055,1063.009
2056,1131.149
2057,1194.857
2058,1236.619
2059,1270.327
2060,1273.992
2061,1303.310
2062,1339.916
2063,1400.002
2064,1421.991
2065,1408.056
2066,1409.505
2067,1415.385
2068,1457.147
2069,1458.596
2070,1418.326
2071,1394.121
2072,1410.996
2073,1416.834
2074,1362.629
2075,1381.678
2076,1379.504
2077,1363.354
2078,1340.640
2079,1378.013
2080,1364.121
2081,1326.748
2082,1375.839
2083,1339.916
2084,1389.007
2085,1349.461
2086,1375.072
2087,1385.342
2088,1394.121
2089,1419.775
2090,1435.158
2091,1438.099
2092,1460.812
2093,1515.017
2094,1548.725
2095,1547.233
2096,1574.379
2097,1617.589
2098,1670.346
2099,1693.783
2100,1728.216
2101,1797.805
2102,1859.339
2103,1876.939
2104,1913.544
2105,2001.457
2106,2019.781
2107,2082.041
2108,2125.294
2109,2149.456
2110,2202.937
2111,2239.542
2112,2241.758
2113,2276.915
2114,2279.131
2115,2300.353
2116,2261.531
2117,2260.807
2118,2247.639
2119,2224.159
2120,2187.553
2121,2161.900
2122,2109.143
2123,2079.100
2124,2051.998
2125,2031.500
2126,1991.954
2127,1956.755
2128,1913.544
2129,1883.502
2130,1841.015
2131,1830.788
2132,1795.589
2133,1801.469
2134,1752.378
2135,1720.886
2136,1697.448
2137,1686.454
2138,1656.411
2139,1635.146
2140,1624.195
2141,1621.979
2142,1589.762
2143,1582.433
2144,1543.569
2145,1560.444
2146,1515.742
2147,1482.034
2148,1463.752
2149,1476.920
2150,1426.380
2151,1410.996
2152,1400.002
2153,1423.439
2154,1404.391
2155,1374.348
2156,1358.240
2157,1395.612
2158,1350.186
2159,1380.953
2160,1405.115
2161,1362.629
2162,1402.942
2163,1434.434
2164,1429.320
2165,1421.991
2166,1465.201
2167,1471.082
2168,1484.250
2169,1537.006
2170,1579.492
2171,1569.947
2172,1593.427
2173,1642.476
2174,1627.859
2175,1649.806
2176,1674.735
2177,1719.395
2178,1706.951
2179,1708.443
2180,1719.395
2181,1747.264
2182,1750.929
2183,1716.497
2184,1742.875
2185,1717.221
2186,1698.173
2187,1725.275
2188,1671.070
2189,1652.746
2190,1658.627
2191,1619.763
2192,1605.146
2193,1611.709
2194,1563.384
2195,1528.185
2196,1498.185
2197,1464.477
2198,1468.866
2199,1412.445
2200,1404.391
2201,1338.467
2202,1346.521
2203,1310.640
2204,1268.878
2205,1194.857
2206,1196.349
2207,1124.544
2208,1082.058
2209,1063.009
2210,1027.086
2211,1052.015
2212,1045.410
2213,1022.696
2214,1033.691
2215,1030.026
2216,1028.577
2217,1036.631
2218,1050.566
2219,1040.296
2220,1105.496
2221,1082.058
2222,1146.533
2223,1126.760
2224,1186.079
2225,1200.014
2226,1215.397
2227,1219.787
2228,1186.079
2229,1192.684
2230,1225.625
2231,1207.343
2232,1170.695
2233,1175.809
2234,1205.852
2235,1208.792
2236,1188.295
2237,1170.695
2238,1172.144
2239,1207.343
2240,1227.841
2241,1254.219
2242,1275.441
2243,1279.872
2244,1361.905
2245,1364.845
2246,1389.007
2247,1436.650
2248,1518.682
2249,1529.676
2250,1575.828
2251,1627.092
2252,1636.638
2253,1660.800
2254,1695.232
2255,1722.335
2256,1742.875
2257,1766.313
2258,1797.805
2259,1826.356
2260,1829.296
2261,1815.404
2262,1850.561
2263,1853.459
2264,1823.458
2265,1824.183
2266,1810.972
2267,1787.535
2268,1763.372
2269,1733.329
2270,1746.540
2271,1682.065
2272,1656.411
2273,1647.632
2274,1594.152
2275,1539.179
2276,1490.855
2277,1471.806
2278,1380.953
2279,1375.072
2280,1323.808
2281,1273.267
2282,1176.576
2283,1156.036
2284,1093.777
2285,1052.739
2286,1007.313
2287,979.486
2288,929.670
2289,858.589
2290,830.762
2291,810.265
2292,754.568
2293,703.303
2294,651.996
2295,663.715
2296,614.666
2297,586.796
2298,538.472
2299,565.575
2300,532.591
2301,505.489
2302,485.716
2303,520.148
2304,539.921
2305,510.602
2306,578.742
2307,605.845
2308,641.044
2309,671.812
2310,716.471
2311,776.557
2312,829.313
2313,841.757
2314,937.724
2315,1001.474
2316,1046.134
2317,1086.447
2318,1163.365
2319,1178.749
2320,1253.494
2321,1293.040
2322,1312.089
2323,1315.029
2324,1391.223
2325,1378.013
2326,1382.402
2327,1435.158
2328,1457.872
2329,1436.650
2330,1440.272
2331,1468.866
2332,1487.915
2333,1483.525
2334,1495.244
2335,1499.634
2336,1480.585
2337,1508.412
2338,1486.466
2339,1467.417
2340,1467.417
2341,1466.650
2342,1465.926
2343,1471.082
2344,1481.309
2345,1465.926
2346,1461.536
2347,1464.477
2348,1424.888
2349,1457.147
2350,1450.542
2351,1436.650
2352,1391.948
2353,1419.775
2354,1409.505
2355,1384.618
2356,1391.223
2357,1414.661
2358,1435.883
2359,1442.488
2360,1413.937
2361,1428.553
2362,1443.937
2363,1480.585
2364,1526.736
2365,1518.682
2366,1520.898
2367,1560.444
2368,1559.719
2369,1616.865
2370,1588.271
2371,1613.200
2372,1636.638
2373,1621.254
2374,1660.076
2375,1629.308
2376,1658.627
2377,1621.254
2378,1657.860
2379,1616.098
2380,1611.709
2381,1647.632
2382,1613.200
2383,1602.930
2384,1607.319
2385,1622.703
2386,1605.871
2387,1586.098
2388,1613.200
2389,1570.714
2390,1603.655
2391,1564.833
2392,1539.946
2393,1569.222
2394,1552.390
2395,1528.185
2396,1512.077
2397,1459.321
2398,1430.769
2399,1416.834
2400,1409.505
2401,1352.402
2402,1360.456
2403,1306.208
2404,1320.143
2405,1304.759
2406,1276.932
2407,1254.943
2408,1259.332
2409,1259.332
2410,1260.824
2411,1257.884
2412,1257.884
2413,1212.457
2414,1225.625
2415,1263.722
2416,1266.662
2417,1248.338
2418,1249.105
2419,1238.111
2420,1273.267
2421,1263.722
2422,1277.657
2423,1295.981
2424,1285.711
2425,1295.981
2426,1285.711
2427,1294.489
2428,1291.591
2429,1294.489
2430,1293.040
2431,1292.316
2432,1270.327
2433,1284.986
2434,1259.332
2435,1258.608
2436,1294.489
2437,1279.872
2438,1273.992
2439,1331.862
2440,1302.543
2441,1364.845
2442,1348.737
2443,1401.451
2444,1376.564
2445,1400.726
2446,1421.266
2447,1446.877
2448,1460.088
2449,1496.693
2450,1541.395
2451,1528.185
2452,1564.109
2453,1543.569
2454,1592.660
2455,1617.589
2456,1596.325
2457,1625.643
2458,1677.675
2459,1646.865
2460,1678.400
2461,1689.394
2462,1726.724
2463,1684.238
2464,1688.627
2465,1713.556
2466,1704.778
2467,1667.405
2468,1690.119
2469,1627.859
2470,1653.470
2471,1613.200
2472,1556.779
2473,1541.395
2474,1515.017
2475,1488.639
2476,1484.974
2477,1457.147
2478,1429.320
2479,1361.905
2480,1371.408
2481,1339.191
2482,1311.364
2483,1279.105
2484,1258.608
2485,1249.105
2486,1252.727
2487,1273.992
2488,1244.673
2489,1263.722
2490,1240.284
2491,1258.608
2492,1291.591
2493,1301.819
2494,1321.592
2495,1339.191
2496,1380.229
2497,1397.061
2498,1395.612
2499,1474.704
2500,1472.531
2501,1494.520
2502,1528.185
2503,1569.947
2504,1625.643
2505,1630.033
2506,1668.854
2507,1674.735
2508,1722.335
2509,1712.108
2510,1756.043
2511,1736.270
2512,1726.000
2513,1748.713
2514,1747.989
2515,1718.670
2516,1734.778
2517,1709.167
2518,1690.843
2519,1667.405
2520,1684.238
2521,1628.584
2522,1605.146
2523,1572.163
2524,1545.785
2525,1521.622
2526,1509.904
2527,1512.077
2528,1453.482
2529,1474.704
2530,1446.877
2531,1399.277
2532,1369.959
2533,1356.024
2534,1347.245
2535,1338.467
2536,1331.137
2537,1327.472
2538,1331.862
2539,1316.478
2540,1323.083
2541,1321.592
2542,1339.916
2543,1339.191
2544,1347.970
2545,1350.186
2546,1334.802
2547,1347.245
2548,1385.342
2549,1386.067
2550,1360.456
2551,1396.337
2552,1435.158
2553,1405.840
2554,1437.374
2555,1482.801
2556,1463.752
2557,1501.849
2558,1481.309
2559,1506.963
2560,1509.904
2561,1567.049
2562,1537.731
2563,1553.114
2564,1596.325
2565,1596.325
2566,1568.498
2567,1553.114
2568,1541.395
2569,1535.515
2570,1517.958
2571,1545.785
2572,1508.412
2573,1462.985
2574,1439.548
2575,1449.093
2576,1378.013
2577,1345.797
2578,1352.402
2579,1303.310
2580,1273.267
2581,1203.678
2582,1175.809
2583,1162.641
2584,1144.317
2585,1108.436
2586,1055.680
2587,1021.247
2588,1012.469
2589,1039.571
2590,1031.517
2591,1005.139
2592,984.599
2593,1027.086
2594,994.869
2595,1045.410
2596,1076.177
2597,1093.052
2598,1095.226
2599,1109.885
2600,1141.377
2601,1199.247
2602,1210.241
2603,1237.344
2604,1277.657
2605,1315.029
2606,1388.283
2607,1421.991
2608,1471.082
2609,1534.066
2610,1584.606
2611,1597.816
2612,1680.573
2613,1712.108
2614,1737.719
2615,1798.529
2616,1831.512
2617,1866.669
2618,1934.809
2619,1939.923
2620,1986.798
2621,2001.457
2622,2023.446
2623,2054.938
2624,2082.041
2625,2110.635
2626,2109.910
2627,2126.018
2628,2120.862
2629,2115.024
2630,2109.143
2631,2113.533
2632,2091.586
2633,2060.819
2634,2055.663
2635,2049.824
2636,1997.793
2637,1977.295
2638,1935.533
2639,1900.377
2640,1858.615
2641,1809.523
2642,1786.086
2643,1692.292
2644,1658.627
2645,1586.098
2646,1512.801
2647,1472.531
2648,1404.391
2649,1309.873
2650,1264.489
2651,1175.809
2652,1117.214
2653,1086.447
2654,978.761
2655,958.221
2656,897.453
2657,814.654
2658,778.773
2659,726.741
2660,679.866
2661,585.348
2662,582.407
2663,537.748
2664,519.424
2665,486.440
2666,419.067
2667,443.954
2668,414.635
2669,416.127
2670,372.874
2671,397.803
2672,410.971
2673,408.797
2674,381.695
2675,383.144
2676,435.900
2677,411.738
2678,437.349
2679,488.656
2680,513.543
2681,528.926
2682,515.034
2683,585.348
2684,623.445
2685,613.899
2686,671.812
2687,688.644
2688,755.293
2689,789.000
2690,785.336
2691,866.686
2692,868.859
2693,902.567
2694,956.048
2695,980.934
2696,1011.702
2697,1057.128
2698,1114.998
2699,1144.317
2700,1141.377
2701,1189.019
2702,1219.062
2703,1207.343
2704,1249.105
2705,1285.711
2706,1322.359
2707,1342.856
2708,1351.635
2709,1347.245
2710,1358.240
2711,1422.715
2712,1408.780
2713,1435.158
2714,1451.266
2715,1478.369
2716,1487.190
2717,1509.904
2718,1533.341
2719,1578.768
2720,1608.044
2721,1649.081
2722,1652.022
2723,1684.238
2724,1710.616
2725,1755.318
2726,1808.075
2727,1805.859
2728,1831.512
2729,1868.118
2730,1917.209
2731,1906.215
2732,1952.366
2733,1969.966
2734,1945.803
2735,1955.306
2736,1970.690
2737,1961.187
2738,1965.576
2739,1950.917
2740,1939.198
2741,1904.042
2742,1875.447
2743,1871.783
2744,1815.404
2745,1772.875
2746,1746.540
2747,1739.935
2748,1666.681
2749,1667.405
2750,1637.362
2751,1553.839
2752,1515.742
2753,1490.855
2754,1476.920
2755,1461.536
2756,1387.558
2757,1397.061
2758,1335.527
2759,1348.737
2760,1304.035
2761,1320.867
2762,1301.819
2763,1290.824
2764,1302.543
2765,1323.083
2766,1311.364
2767,1293.040
2768,1323.083
2769,1355.299
2770,1369.959
2771,1382.402
2772,1447.602
2773,1431.494
2774,1476.920
2775,1512.077
2776,1534.066
2777,1604.379
2778,1630.033
2779,1632.973
2780,1698.173
2781,1695.957
2782,1713.556
2783,1734.778
2784,1752.378
2785,1769.977
2786,1772.151
2787,1790.475
2788,1778.756
2789,1781.696
2790,1804.410
2791,1752.378
2792,1749.437
2793,1694.508
2794,1669.579
2795,1665.914
2796,1624.195
2797,1554.563
2798,1542.120
2799,1498.909
2800,1433.709
2801,1413.937
2802,1389.007
2803,1363.354
2804,1306.975
2805,1275.441
2806,1253.494
2807,1257.884
2808,1239.560
2809,1227.116
2810,1275.441
2811,1252.727
2812,1254.943
2813,1273.992
2814,1295.981
2815,1315.754
2816,1378.013
2817,1408.780
2818,1407.331
2819,1451.266
2820,1464.477
2821,1515.742
2822,1541.395
2823,1521.622
2824,1563.384
2825,1595.601
2826,1567.773
2827,1590.487
2828,1625.643
2829,1578.768
2830,1575.103
2831,1598.541
2832,1552.390
2833,1532.617
2834,1545.060
2835,1520.898
2836,1497.418
2837,1453.482
2838,1459.321
2839,1461.536
2840,1408.780
2841,1375.072
2842,1364.121
2843,1331.862
2844,1321.592
2845,1324.532
2846,1277.657
2847,1293.040
2848,1243.224
2849,1224.176
2850,1232.954
2851,1189.019
2852,1204.403
2853,1198.522
2854,1155.311
2855,1191.193
2856,1164.814
2857,1184.630
2858,1198.522
2859,1160.425
2860,1209.517
2861,1186.079
2862,1224.900
2863,1260.824
2864,1275.441
2865,1293.040
2866,1311.364
2867,1327.472
2868,1341.407
2869,1315.754
2870,1377.288
2871,1363.354
2872,1379.504
2873,1428.553
2874,1397.786
2875,1433.709
2876,1460.812
2877,1482.034
2878,1476.196
2879,1459.321
2880,1465.926
2881,1487.915
2882,1526.012
2883,1531.125
2884,1504.023
2885,1489.364
2886,1510.628
2887,1499.634
2888,1504.747
2889,1481.309
2890,1468.866
2891,1471.806
2892,1468.866
2893,1459.321
2894,1447.602
2895,1432.218
2896,1440.272
2897,1442.488
2898,1409.505
2899,1396.337
2900,1416.834
2901,1419.050
2902,1413.937
2903,1481.309
2904,1504.747
2905,1515.017
2906,1532.617
2907,1566.282
2908,1637.362
2909,1678.400
2910,1714.281
2911,1766.313
2912,1819.026
2913,1893.047
2914,1956.755
2915,2004.398
2916,2056.430
2917,2101.814
2918,2135.521
2919,2169.229
2920,2186.062
2921,2230.040
2922,2249.812
2923,2271.077
2924,2276.915
2925,2258.591
2926,2276.191
2927,2249.088
2928,2228.591
2929,2220.494
2930,2193.391
2931,2153.845
2932,2100.365
2933,2062.268
2934,2021.230
2935,1958.971
2936,1912.096
2937,1841.740
2938,1794.140
2939,1750.162
2940,1676.184
2941,1616.098
2942,1552.390
2943,1528.185
2944,1465.201
2945,1400.726
2946,1341.407
2947,1304.035
2948,1259.332
2949,1236.619
2950,1162.641
2951,1131.874
2952,1079.117
2953,1021.972
2954,986.091
2955,970.707
2956,967.042
2957,887.908
2958,905.507
2959,844.697
2960,813.205
2961,785.336
2962,766.287
2963,769.952
2964,732.622
2965,768.503
2966,769.227
2967,719.412
2968,765.563
2969,750.179
2970,786.060
2971,789.725
2972,851.302
2973,872.524
2974,891.573
2975,902.567
2976,956.048
2977,1012.469
2978,1014.642
2979,1100.382
2980,1095.226
2981,1130.382
2982,1171.420
2983,1208.068
2984,1241.008
2985,1265.938
2986,1290.824
2987,1292.316
2988,1298.921
2989,1293.765
2990,1276.932
2991,1273.267
2992,1248.338
2993,1290.824
2994,1259.332
2995,1235.895
2996,1276.208
2997,1238.835
2998,1259.332
2999,1265.938
3000,1254.943
3001,1317.970
3002,1352.402
3003,1363.354
3004,1423.439
3005,1446.153
3006,1517.233
3007,1539.946
3008,1594.876
3009,1670.346
3010,1760.432
3011,1821.967
3012,1888.658
3013,1943.587
3014,1989.739
3015,2013.176
3016,2074.711
3017,2120.862
3018,2133.348
3019,2137.737
3020,2145.067
3021,2145.791
3022,2133.348
3023,2133.348
3024,2082.041
3025,2037.381
3026,1994.128
3027,1920.874
3028,1865.220
3029,1813.913
3030,1733.329
3031,1598.541
3032,1515.017
3033,1416.110
3034,1360.456
3035,1258.608
3036,1135.538
3037,1060.793
3038,953.107
3039,838.816
3040,789.000
3041,704.028
3042,611.726
3043,543.586
3044,430.019
3045,416.127
3046,346.538
3047,254.960
3048,210.983
3049,172.161
3050,159.718
3051,120.129
3052,67.416
3053,50.540
3054,54.205
3055,49.816
3056,53.481
3057,54.930
3058,54.205
3059,82.799
3060,168.496
3061,205.869
3062,260.074
3063,309.165
3064,378.030
3065,413.187
3066,511.369
3067,578.742
3068,657.877
3069,698.914
3070,788.276
3071,870.351
3072,938.448
3073,1019.031
3074,1074.728
3075,1155.311
3076,1205.852
3077,1228.565
3078,1320.867
3079,1386.834
3080,1428.553
3081,1471.082
3082,1493.753
3083,1508.412
3084,1567.773
3085,1594.876
3086,1587.546
3087,1652.746
3088,1632.973
3089,1672.519
3090,1672.519
3091,1687.178
3092,1687.178
3093,1718.670
3094,1735.545
3095,1706.951
3096,1700.346
3097,1709.892
3098,1732.605
3099,1695.232
3100,1690.843
3101,1704.011
3102,1706.951
3103,1728.940
3104,1707.676
3105,1680.573
3106,1690.119
3107,1700.346
3108,1696.724
3109,1703.286
3110,1718.670
3111,1729.665
3112,1745.048
3113,1778.032
3114,1791.924
3115,1794.140
3116,1827.123
3117,1808.075
3118,1845.404
3119,1830.788
3120,1860.788
3121,1833.686
3122,1873.274
3123,1835.902
3124,1833.686
3125,1832.961
3126,1804.410
3127,1804.410
3128,1815.404
3129,1791.199
3130,1776.540
3131,1754.594
3132,1723.826
3133,1679.849
3134,1646.141
3135,1666.681
3136,1610.984
3137,1627.859
3138,1588.271
3139,1550.898
3140,1534.066
3141,1571.438
3142,1550.174
3143,1547.233
3144,1541.395
3145,1531.850
3146,1534.066
3147,1534.790
3148,1518.682
3149,1530.401
3150,1503.298
3151,1493.028
3152,1502.574
3153,1517.958
3154,1505.514
3155,1528.952
3156,1524.563
3157,1497.418
3158,1479.136
3159,1482.801
3160,1453.482
3161,1432.985
3162,1428.553
3163,1438.823
3164,1369.234
3165,1395.612
3166,1323.808
3167,1348.737
3168,1292.316
3169,1260.057
3170,1284.262
3171,1265.213
3172,1238.835
3173,1189.744
3174,1197.073
3175,1220.511
3176,1170.695
3177,1187.528
3178,1210.241
3179,1221.960
3180,1246.165
3181,1255.668
3182,1268.878
3183,1284.262
3184,1290.100
3185,1359.689
3186,1367.018
3187,1386.067
3188,1445.428
3189,1465.926
3190,1502.574
3191,1515.742
3192,1515.742
3193,1583.882
3194,1571.438
3195,1632.249
3196,1612.433
3197,1643.243
3198,1669.579
3199,1684.962
3200,1677.675
3201,1727.491
3202,1717.946
3203,1704.778
3204,1709.167
3205,1722.335
3206,1729.665
3207,1698.173
3208,1676.908
3209,1695.957
3210,1654.195
3211,1624.919
3212,1619.763
3213,1622.703
3214,1573.612
3215,1537.731
3216,1537.731
3217,1509.136
3218,1519.406
3219,1487.915
3220,1462.261
3221,1452.758
3222,1461.536
3223,1448.369
3224,1399.277
3225,1386.067
3226,1380.953
3227,1410.996
3228,1353.851
3229,1353.851
3230,1320.867
3231,1347.245
3232,1287.160
3233,1308.424
3234,1291.591
3235,1274.716
3236,1249.105
3237,1190.468
3238,1199.247
3239,1193.408
3240,1134.814
3241,1165.581
3242,1134.047
3243,1130.382
3244,1106.944
3245,1140.652
3246,1128.933
3247,1161.192
3248,1167.755
3249,1150.922
3250,1184.630
3251,1232.954
3252,1263.722
3253,1269.602
3254,1286.435
3255,1301.819
3256,1371.408
3257,1350.910
3258,1401.451
3259,1449.093
3260,1445.428
3261,1464.477
3262,1501.849
3263,1537.006
3264,1612.433
3265,1611.709
3266,1682.789
3267,1678.400
3268,1730.389
3269,1769.210
3270,1830.021
3271,1839.566
3272,1899.652
3273,1891.556
3274,1917.934
3275,1972.906
3276,1957.522
3277,1986.798
3278,1989.739
3279,1975.079
3280,1975.804
3281,1966.301
3282,1960.420
3283,1958.971
3284,1931.144
3285,1911.371
3286,1868.885
3287,1845.404
3288,1834.453
3289,1789.750
3290,1746.540
3291,1761.156
3292,1720.886
3293,1690.119
3294,1710.616
3295,1651.297
3296,1654.962
3297,1662.292
3298,1630.033
3299,1619.038
3300,1613.925
3301,1636.638
3302,1638.087
3303,1612.433
3304,1636.638
3305,1623.428
3306,1615.373
3307,1578.001
3308,1550.174
3309,1537.006
3310,1525.287
3311,1526.736
3312,1517.958
3313,1458.596
3314,1464.477
3315,1443.212
3316,1397.786
3317,1361.180
3318,1322.359
3319,1295.256
3320,1271.776
3321,1259.332
3322,1173.635
3323,1178.749
3324,1108.436
3325,1046.134
3326,1029.301
3327,1002.199
3328,910.621
3329,908.405
3330,856.416
3331,824.157
3332,749.455
3333,740.676
3334,706.244
3335,676.201
3336,645.433
3337,621.996
3338,605.121
3339,565.575
3340,530.418
3341,565.575
3342,565.575
3343,536.981
3344,550.191
3345,594.851
3346,615.391
3347,630.050
3348,645.433
3349,645.433
3350,720.136
3351,765.563
3352,797.822
3353,837.367
3354,859.356
3355,912.070
3356,979.486
3357,1033.691
3358,1065.183
3359,1109.885
3360,1162.641
3361,1252.003
3362,1303.310
3363,1352.402
3364,1367.018
3365,1421.266
3366,1457.147
3367,1524.563
3368,1573.612
3369,1602.206
3370,1620.530
3371,1661.525
3372,1715.005
3373,1729.665
3374,1759.707
3375,1808.075
3376,1842.507
3377,1853.459
3378,1913.544
3379,1917.934
3380,1951.641
3381,1989.739
3382,2002.182
3383,2059.327
3384,2077.651
3385,2087.921
3386,2126.743
3387,2164.116
3388,2166.289
3389,2199.997
3390,2211.715
3391,2221.985
3392,2256.418
3393,2276.191
3394,2259.358
3395,2293.023
3396,2268.861
3397,2272.526
3398,2265.196
3399,2258.591
3400,2234.429
3401,2199.272
3402,2175.834
3403,2132.581
3404,2082.041
3405,2011.727
3406,1956.755
3407,1871.783
3408,1824.907
3409,1727.491
3410,1614.649
3411,1523.071
3412,1394.121
3413,1292.316
3414,1224.900
3415,1109.160
3416,953.107
3417,865.919
3418,764.838
3419,676.925
3420,532.591
3421,436.624
3422,347.987
3423,303.285
3424,186.096
3425,112.075
3426,52.032
3427,2.940
3428,0.724
3429,1.449
3430,0.724
3431,0.000
3432,0.000
3433,0.724
3434,0.724
3435,1.449
3436,0.724
3437,11.719
3438,45.427
3439,72.529
3440,131.848
3441,229.307
3442,258.625
3443,373.641
3444,409.522
3445,528.202
3446,583.899
3447,680.590
3448,766.287
3449,834.427
3450,871.075
3451,969.216
3452,1030.750
3453,1068.847
3454,1169.971
3455,1219.062
3456,1277.657
3457,1299.645
3458,1371.408
3459,1368.510
3460,1439.548
3461,1449.093
3462,1505.514
3463,1516.466
3464,1502.574
3465,1523.071
3466,1550.898
3467,1569.947
3468,1549.449
3469,1558.995
3470,1589.762
3471,1575.103
3472,1544.336
3473,1554.563
3474,1553.839
3475,1583.157
3476,1533.341
3477,1565.558
3478,1522.347
3479,1550.898
3480,1516.466
3481,1546.509
3482,1511.352
3483,1532.617
3484,1542.844
3485,1519.406
3486,1554.563
3487,1526.736
3488,1560.444
3489,1539.179
3490,1558.995
3491,1561.893
3492,1591.936
3493,1588.995
3494,1566.282
3495,1580.941
3496,1573.612
3497,1578.768
3498,1605.871
3499,1620.530
3500,1595.601
3501,1649.806
3502,1630.033
3503,1628.584
3504,1676.908
3505,1657.860
3506,1702.562
3507,1695.957
3508,1728.216
3509,1755.318
3510,1752.378
3511,1772.151
3512,1778.032
3513,1800.020
3514,1808.799
3515,1821.967
3516,1850.561
3517,1868.885
3518,1848.345
3519,1862.280
3520,1879.837
3521,1869.609
3522,1843.231
3523,1840.291
3524,1851.285
3525,1847.620
3526,1792.691
3527,1816.129
3528,1748.713
3529,1759.707
3530,1736.270
3531,1694.508
3532,1651.297
3533,1587.546
3534,1569.222
3535,1529.676
3536,1476.920
3537,1451.266
3538,1391.948
3539,1359.689
3540,1345.072
3541,1282.770
3542,1298.154
3543,1254.219
3544,1219.062
3545,1170.695
3546,1157.527
3547,1179.474
3548,1163.365
3549,1139.928
3550,1141.377
3551,1131.874
3552,1112.101
3553,1126.760
3554,1134.047
3555,1138.479
3556,1147.257
3557,1158.976
3558,1158.252
3559,1172.911
3560,1171.420
3561,1184.630
3562,1202.187
3563,1266.662
3564,1246.165
3565,1282.046
3566,1335.527
3567,1359.689
3568,1375.839
3569,1397.786
3570,1470.315
3571,1464.477
3572,1529.676
3573,1533.341
3574,1581.666
3575,1619.038
3576,1659.351
3577,1662.292
3578,1682.789
3579,1715.005
3580,1741.383
3581,1704.778
3582,1726.000
3583,1742.108
3584,1728.216
3585,1687.178
3586,1655.686
3587,1647.632
3588,1636.638
3589,1583.157
3590,1572.887
3591,1546.509
3592,1487.915
3593,1446.153
3594,1427.104
3595,1432.218
3596,1403.667
3597,1347.970
3598,1334.802
3599,1322.359
3600,1270.327
3601,1282.770
3602,1272.543
3603,1221.960
3604,1257.159
3605,1208.068
3606,1237.344
3607,1257.159
3608,1253.494
3609,1247.614
3610,1303.310
3611,1308.424
3612,1350.910
3613,1386.067
3614,1392.672
3615,1454.207
3616,1452.758
3617,1526.736
3618,1543.569
3619,1596.325
3620,1615.373
3621,1635.146
3622,1697.448
3623,1687.903
3624,1710.616
3625,1738.443
3626,1756.767
3627,1783.870
3628,1810.248
3629,1790.475
3630,1772.151
3631,1791.199
3632,1764.097
3633,1758.259
3634,1734.778
3635,1731.880
3636,1680.573
3637,1693.059
3638,1662.292
3639,1630.757
3640,1602.930
3641,1577.276
3642,1572.163
3643,1533.341
3644,1534.790
3645,1484.974
3646,1494.520
3647,1501.849
3648,1465.201
3649,1446.153
3650,1423.439
3651,1415.385
3652,1410.996
3653,1409.505
3654,1431.494
3655,1432.985
3656,1438.099
3657,1438.823
3658,1425.655
3659,1429.320
3660,1402.218
3661,1413.169
3662,1446.877
3663,1484.974
3664,1498.909
3665,1498.185
3666,1504.747
3667,1553.839
3668,1593.427
3669,1593.427
3670,1641.027
3671,1668.854
3672,1715.730
3673,1774.367
3674,1776.540
3675,1823.458
3676,1868.118
3677,1900.377
3678,1904.042
3679,1928.204
3680,1950.917
3681,1956.755
3682,1974.355
3683,1964.852
3684,1975.079
3685,1978.020
3686,1980.236
3687,1977.295
3688,1968.517
3689,1978.744
3690,1966.301
3691,1934.809
3692,1920.150
3693,1897.436
3694,1883.502
3695,1868.885
3696,1853.459
3697,1860.064
3698,1840.291
3699,1808.075
3700,1827.123
3701,1791.199
3702,1777.307
3703,1741.383
3704,1733.329
3705,1706.227
3706,1679.849
3707,1650.530
3708,1630.757
3709,1602.930
3710,1591.211
3711,1550.898
3712,1557.503
3713,1488.639
3714,1437.374
3715,1392.672
3716,1350.910
3717,1336.975
3718,1278.381
3719,1227.841
3720,1157.527
3721,1113.550
3722,1102.555
3723,1013.918
3724,993.420
3725,982.426
3726,920.167
3727,921.616
3728,890.124
3729,827.097
3730,849.811
3731,818.319
3732,786.060
3733,822.708
3734,777.282
3735,802.935
3736,799.270
3737,776.557
3738,805.876
3739,776.557
3740,783.162
3741,821.259
3742,831.487
3743,824.157
3744,852.027
3745,868.859
3746,887.908
3747,898.902
3748,924.556
3749,972.156
3750,998.534
3751,1049.799
3752,1087.896
3753,1093.777
3754,1191.960
3755,1242.500
3756,1260.824
3757,1348.737
3758,1408.780
3759,1410.272
3760,1497.418
3761,1501.849
3762,1541.395
3763,1575.828
3764,1605.146
3765,1640.303
3766,1663.016
3767,1687.903
3768,1690.119
3769,1669.579
3770,1648.357
3771,1606.595
3772,1583.882
3773,1545.785
3774,1529.676
3775,1465.926
3776,1441.764
3777,1415.385
3778,1336.975
3779,1293.765
3780,1219.787
3781,1192.684
3782,1156.760
3783,1104.047
3784,1049.074
3785,1009.529
3786,961.886
3787,920.891
3788,879.854
3789,805.876
3790,819.043
3791,767.054
3792,740.676
3793,726.741
3794,714.298
3795,701.812
3796,654.936
3797,668.147
3798,641.769
3799,649.823
3800,658.601
3801,627.834
3802,635.888
3803,680.590
3804,666.655
3805,673.985
3806,671.045
3807,694.525
3808,728.957
3809,778.773
3810,802.935
3811,787.552
3812,832.978
3813,852.027
3814,912.837
3815,944.329
3816,975.096
3817,994.145
3818,994.869
3819,1060.069
3820,1054.955
3821,1112.101
3822,1094.501
3823,1115.766
3824,1137.712
3825,1156.036
3826,1180.965
3827,1178.025
3828,1242.500
3829,1206.576
3830,1252.727
3831,1243.224
3832,1250.554
3833,1294.489
3834,1291.591
3835,1277.657
3836,1299.645
3837,1340.640
3838,1369.959
3839,1353.126
3840,1353.851
3841,1360.456
3842,1371.408
3843,1385.342
3844,1436.650
3845,1412.445
3846,1409.505
3847,1456.423
3848,1459.321
3849,1441.764
3850,1464.477
3851,1447.602
3852,1450.542
3853,1490.855
3854,1468.866
3855,1471.806
3856,1506.239
3857,1485.699
3858,1527.461
3859,1506.239
3860,1517.233
3861,1564.109
3862,1582.433
3863,1572.163
3864,1560.444
3865,1569.222
3866,1575.828
3867,1584.606
3868,1596.325
3869,1597.816
3870,1599.990
3871,1608.044
3872,1624.919
3873,1639.578
3874,1642.476
3875,1633.698
3876,1597.049
3877,1588.995
3878,1584.606
3879,1599.265
3880,1557.503
3881,1542.844
3882,1540.671
3883,1572.887
3884,1519.406
3885,1553.839
3886,1539.179
3887,1525.287
3888,1494.520
3889,1482.034
3890,1501.082
3891,1486.466
3892,1457.147
3893,1490.855
3894,1433.709
3895,1463.752
3896,1454.207
3897,1421.266
3898,1397.786
3899,1396.337
3900,1414.661
3901,1405.115
3902,1373.624
3903,1334.078
3904,1317.202
3905,1335.527
3906,1295.256
3907,1288.651
3908,1318.694
3909,1262.273
3910,1251.278
3911,1254.219
3912,1260.824
3913,1257.884
3914,1285.711
3915,1252.727
3916,1246.165
3917,1250.554
3918,1273.267
3919,1304.035
3920,1274.716
3921,1264.489
3922,1290.824
3923,1321.592
3924,1291.591
3925,1283.537
3926,1313.538
3927,1306.208
3928,1296.705
3929,1320.867
3930,1334.802
3931,1320.867
3932,1343.581
3933,1333.353
3934,1358.964
3935,1378.737
3936,1380.229
3937,1371.408
3938,1370.683
3939,1437.374
3940,1449.093
3941,1473.980
3942,1480.585
3943,1497.418
3944,1490.855
3945,1531.125
3946,1575.103
3947,1567.773
3948,1563.384
3949,1580.941
3950,1590.487
3951,1599.990
3952,1605.146
3953,1608.811
3954,1605.871
3955,1599.265
3956,1598.541
3957,1590.487
3958,1604.379
3959,1545.060
3960,1545.785
3961,1490.855
3962,1514.293
3963,1460.812
3964,1410.996
3965,1383.169
3966,1364.845
3967,1367.018
3968,1363.354
3969,1317.970
3970,1294.489
3971,1306.208
3972,1272.543
3973,1303.310
3974,1268.111
3975,1317.202
3976,1306.208
3977,1299.645
3978,1312.813
3979,1332.586
3980,1300.370
3981,1347.970
3982,1324.532
3983,1356.791
3984,1314.305
3985,1357.515
3986,1320.143
3987,1312.813
3988,1347.970
3989,1361.905
3990,1367.018
3991,1369.234
3992,1378.013
3993,1384.618
3994,1378.013
3995,1387.558
3996,1391.223
3997,1414.661
3998,1474.704
3999,1454.931
4000,1489.364
4001,1519.406
4002,1554.563
4003,1589.762
4004,1657.860
4005,1690.119
4006,1723.826
4007,1723.826
4008,1734.778
4009,1783.145
4010,1774.367
4011,1792.691
4012,1828.572
4013,1836.626
4014,1814.637
4015,1854.950
4016,1816.129
4017,1837.350
4018,1808.075
4019,1814.637
4020,1792.691
4021,1792.691
4022,1743.599
4023,1728.940
4024,1706.951
4025,1700.346
4026,1702.562
4027,1671.795
4028,1627.859
4029,1649.806
4030,1583.157
4031,1569.222
4032,1557.503
4033,1517.233
4034,1490.131
4035,1443.937
4036,1361.905
4037,1359.689
4038,1290.100
4039,1238.835
4040,1209.517
4041,1172.911
4042,1083.507
4043,1084.998
4044,1028.577
4045,985.366
4046,975.096
4047,915.735
4048,920.167
4049,857.140
4050,882.794
4051,834.427
4052,823.433
4053,854.200
4054,810.265
4055,818.319
4056,817.595
4057,855.692
4058,846.146
4059,805.876
4060,843.973
4061,843.973
4062,809.540
4063,861.530
4064,820.492
4065,853.476
4066,852.751
4067,830.762
4068,876.189
4069,849.811
4070,866.686
4071,910.621
4072,952.383
4073,961.161
4074,981.701
4075,1010.977
4076,1047.626
4077,1109.160
4078,1150.922
4079,1189.019
4080,1233.679
4081,1247.614
4082,1339.191
4083,1395.612
4084,1416.110
4085,1443.937
4086,1537.006
4087,1542.120
4088,1614.649
4089,1605.871
4090,1649.081
4091,1690.843
4092,1685.729
4093,1683.513
4094,1696.724
4095,1714.281
4096,1724.551
4097,1720.886
4098,1725.275
4099,1761.923
4100,1745.048
4101,1739.935
4102,1762.648
4103,1797.080
4104,1784.594
4105,1796.356
4106,1832.237
4107,1849.836
4108,1850.561
4109,1868.885
4110,1904.766
4111,1934.809
4112,1942.139
4113,1934.084
4114,1955.306
4115,1959.696
4116,1967.750
4117,1982.409
4118,1986.798
4119,1988.290
4120,1979.469
4121,1977.295
4122,1989.014
4123,1977.295
4124,1935.533
4125,1918.701
4126,1904.042
4127,1909.880
4128,1893.772
4129,1845.404
4130,1842.507
4131,1811.739
4132,1772.875
4133,1754.594
4134,1742.875
4135,1719.395
4136,1649.081
4137,1625.643
4138,1614.649
4139,1594.876
4140,1557.503
4141,1508.412
4142,1478.369
4143,1447.602
4144,1424.888
4145,1417.601
4146,1381.678
4147,1383.169
4148,1394.888
4149,1358.964
4150,1337.742
4151,1378.013
4152,1336.975
4153,1372.899
4154,1324.532
4155,1352.402
4156,1364.121
4157,1376.564
4158,1372.175
4159,1351.635
4160,1336.975
4161,1361.180
4162,1358.964
4163,1348.737
4164,1377.288
4165,1402.942
4166,1400.726
4167,1372.899
4168,1396.337
4169,1381.678
4170,1358.964
4171,1328.921
4172,1302.543
4173,1320.867
4174,1314.305
4175,1252.003
4176,1238.835
4177,1232.954
4178,1194.133
4179,1210.241
4180,1190.468
4181,1178.025
4182,1166.306
4183,1154.587
4184,1145.041
4185,1124.544
4186,1122.328
4187,1127.484
4188,1075.453
4189,1108.436
4190,1063.009
4191,1086.447
4192,1099.615
4193,1039.571
4194,1068.847
4195,1027.086
4196,1049.799
4197,997.085
4198,1010.977
4199,1001.474
4200,977.270
4201,980.934
4202,983.150
4203,972.156
4204,964.102
4205,967.042
4206,975.096
4207,978.037
4208,955.323
4209,978.037
4210,1031.517
4211,1027.853
4212,1029.301
4213,1092.328
4214,1100.382
4215,1125.268
4216,1180.965
4217,1204.403
4218,1212.457
4219,1218.295
4220,1265.213
4221,1264.489
4222,1292.316
4223,1282.046
4224,1328.921
4225,1337.742
4226,1319.418
4227,1346.521
4228,1368.510
4229,1340.640
4230,1384.618
4231,1342.856
4232,1362.629
4233,1391.948
4234,1397.786
4235,1356.024
4236,1378.737
4237,1407.331
4238,1396.337
4239,1397.061
4240,1363.354
4241,1371.408
4242,1375.839
4243,1387.558
4244,1356.024
4245,1356.024
4246,1354.575
4247,1345.797
4248,1342.132
4249,1304.759
4250,1279.105
4251,1290.100
4252,1295.981
4253,1246.889
4254,1276.932
4255,1262.273
4256,1232.230
4257,1246.889
4258,1278.381
4259,1247.614
4260,1288.651
4261,1312.813
4262,1280.597
4263,1346.521
4264,1355.299
4265,1345.072
4266,1378.013
4267,1397.786
4268,1407.331
4269,1457.147
4270,1482.034
4271,1462.985
4272,1517.958
4273,1515.017
4274,1496.693
4275,1540.671
4276,1502.574
4277,1508.412
4278,1532.617
4279,1495.244
4280,1506.963
4281,1509.136
4282,1506.239
4283,1470.315
4284,1448.369
4285,1477.645
4286,1439.548
4287,1454.207
4288,1420.499
4289,1426.380
4290,1408.056
4291,1413.169
4292,1425.655
4293,1446.877
4294,1433.709
4295,1394.121
4296,1407.331
4297,1408.780
4298,1432.218
4299,1394.121
4300,1427.104
4301,1383.894
4302,1386.834
4303,1388.283
4304,1397.061
4305,1408.056
4306,1435.883
4307,1428.553
4308,1445.428
4309,1499.634
4310,1479.136
4311,1536.282
4312,1561.893
4313,1572.163
4314,1589.762
4315,1608.811
4316,1635.913
4317,1676.908
4318,1706.951
4319,1742.108
4320,1753.827
4321,1757.492
4322,1796.356
4323,1770.702
4324,1815.404
4325,1786.086
4326,1775.816
4327,1791.924
4328,1757.492
4329,1771.426
4330,1738.443
4331,1753.102
4332,1706.951
4333,1735.545
4334,1712.832
4335,1680.573
4336,1649.806
4337,1616.865
4338,1602.930
4339,1589.762
4340,1548.725
4341,1545.785
4342,1517.958
4343,1487.190
4344,1442.488
4345,1395.612
4346,1372.175
4347,1346.521
4348,1285.711
4349,1229.290
4350,1205.127
4351,1216.122
4352,1197.073
4353,1170.695
4354,1164.814
4355,1155.311
4356,1149.431
4357,1149.431
4358,1153.095
4359,1161.192
4360,1162.641
4361,1190.468
4362,1206.576
4363,1218.295
4364,1238.111
4365,1257.884
4366,1307.700
4367,1334.078
4368,1391.223
4369,1466.650
4370,1482.801
4371,1520.898
4372,1569.222
4373,1612.433
4374,1660.076
4375,1721.610
4376,1738.443
4377,1769.210
4378,1793.415
4379,1817.577
4380,1837.350
4381,1847.620
4382,1854.226
4383,1869.609
4384,1851.285
4385,1827.123
4386,1838.075
4387,1778.032
4388,1753.102
4389,1754.594
4390,1712.108
4391,1665.189
4392,1632.973
4393,1619.038
4394,1541.395
4395,1557.503
4396,1505.514
4397,1451.266
4398,1454.931
4399,1403.667
4400,1391.223
4401,1376.564
4402,1384.618
4403,1355.299
4404,1377.288
4405,1336.251
4406,1365.569
4407,1332.586
4408,1361.180
4409,1353.126
4410,1336.975
4411,1357.515
4412,1359.689
4413,1371.408
4414,1394.121
4415,1361.180
4416,1356.024
4417,1371.408
4418,1375.839
4419,1407.331
4420,1368.510
4421,1372.175
4422,1380.953
4423,1381.678
4424,1425.655
4425,1403.667
4426,1392.672
4427,1396.337
4428,1405.115
4429,1410.996
4430,1452.034
4431,1465.926
4432,1452.758
4433,1458.596
4434,1459.321
4435,1488.639
4436,1516.466
4437,1515.017
4438,1544.336
4439,1571.438
4440,1583.882
4441,1625.643
4442,1630.033
4443,1651.297
4444,1688.627
4445,1706.951
4446,1780.972
4447,1773.642
4448,1802.194
4449,1843.231
4450,1843.231
4451,1891.556
4452,1890.107
4453,1898.885
4454,1912.096
4455,1943.587
4456,1950.193
4457,1950.917
4458,1945.803
4459,1972.906
4460,1955.306
4461,1953.857
4462,1918.701
4463,1891.556
4464,1873.274
4465,1863.729
4466,1838.075
4467,1769.977
4468,1772.151
4469,1704.778
4470,1649.806
4471,1629.308
4472,1604.379
4473,1534.790
4474,1486.466
4475,1484.974
4476,1442.488
4477,1362.629
4478,1361.905
4479,1315.029
4480,1302.543
4481,1271.051
4482,1239.560
4483,1234.446
4484,1199.247
4485,1218.295
4486,1167.755
4487,1210.241
4488,1198.522
4489,1174.360
4490,1174.360
4491,1181.690
4492,1180.965
4493,1223.451
4494,1183.863
4495,1233.679
4496,1211.733
4497,1263.722
4498,1262.997
4499,1246.889
4500,1260.057
4501,1306.975
4502,1322.359
4503,1313.538
4504,1351.635
4505,1410.272
4506,1410.272
4507,1412.445
4508,1482.801
4509,1474.704
4510,1491.579
4511,1517.233
4512,1542.120
4513,1567.773
4514,1597.049
4515,1649.806
4516,1627.859
4517,1668.130
4518,1698.173
4519,1670.346
4520,1715.005
4521,1680.573
4522,1712.108
4523,1719.395
4524,1693.783
4525,1666.681
4526,1688.627
4527,1675.459
4528,1609.535
4529,1581.666
4530,1557.503
4531,1520.131
4532,1517.233
4533,1442.488
4534,1443.212
4535,1361.905
4536,1314.305
4537,1288.651
4538,1265.938
4539,1198.522
4540,1149.431
4541,1112.101
4542,1079.117
4543,1061.518
4544,974.372
4545,979.486
4546,945.778
4547,904.016
4548,860.805
4549,829.313
4550,838.092
4551,792.665
4552,779.497
4553,772.168
4554,744.341
4555,726.017
4556,749.455
4557,748.006
4558,750.179
4559,752.395
4560,753.119
4561,744.341
4562,754.568
4563,756.784
4564,779.497
4565,775.833
4566,835.919
4567,819.043
4568,838.092
4569,837.367
4570,846.146
4571,887.908
4572,917.951
4573,932.610
4574,942.113
4575,941.389
4576,953.107
4577,955.323
4578,986.091
4579,967.767
4580,1024.912
4581,1037.356
4582,1049.074
4583,1025.637
4584,1085.723
4585,1079.842
4586,1090.112
4587,1089.387
4588,1129.658
4589,1100.382
4590,1099.615
4591,1106.944
4592,1113.550
4593,1169.246
4594,1160.425
4595,1162.641
4596,1163.365
4597,1182.414
4598,1175.084
4599,1241.008
4600,1211.733
4601,1262.997
4602,1247.614
4603,1315.754
4604,1298.154
4605,1347.970
4606,1382.402
4607,1380.953
4608,1415.385
4609,1413.937
4610,1406.607
4611,1460.812
4612,1451.266
4613,1450.542
4614,1427.104
4615,1419.050
4616,1430.769
4617,1458.596
4618,1442.488
4619,1429.320
4620,1414.661
4621,1421.991
4622,1418.326
4623,1408.780
4624,1403.667
4625,1392.672
4626,1395.612
4627,1393.397
4628,1344.305
4629,1342.856
4630,1358.964
4631,1374.348
4632,1388.283
4633,1400.726
4634,1404.391
4635,1420.499
4636,1392.672
4637,1434.434
4638,1408.056
4639,1407.331
4640,1454.931
4641,1445.428
4642,1426.380
4643,1440.272
4644,1472.531
4645,1482.801
4646,1467.417
4647,1447.602
4648,1503.298
4649,1462.261
4650,1517.958
4651,1476.920
4652,1495.969
4653,1525.287
4654,1481.309
4655,1522.347
4656,1471.082
4657,1498.909
4658,1485.699
4659,1443.937
4660,1427.104
4661,1427.829
4662,1420.499
4663,1397.786
4664,1358.240
4665,1356.791
4666,1336.251
4667,1318.694
4668,1298.921
4669,1293.040
4670,1265.938
4671,1270.327
4672,1268.111
4673,1283.537
4674,1252.727
4675,1290.100
4676,1309.148
4677,1273.992
4678,1286.435
4679,1311.364
4680,1350.910
4681,1366.294
4682,1410.272
4683,1441.039
4684,1500.358
4685,1502.574
4686,1558.228
4687,1610.260
4688,1660.800
4689,1696.724
4690,1761.156
4691,1815.404
4692,1873.999
4693,1912.096
4694,1942.139
4695,2018.333
4696,2029.284
4697,2056.430
4698,2095.976
4699,2086.430
4700,2103.305
4701,2110.635
4702,2095.976
4703,2068.149
4704,2060.819
4705,2011.003
4706,1996.344
4707,1935.533
4708,1887.166
4709,1818.302
4710,1769.977
4711,1663.740
4712,1597.816
4713,1512.801
4714,1478.369
4715,1387.558
4716,1324.532
4717,1253.494
4718,1241.008
4719,1200.014
4720,1157.527
4721,1114.998
4722,1049.074
4723,1058.620
4724,1022.696
4725,993.420
4726,973.647
4727,949.443
4728,945.053
4729,918.675
4730,863.746
4731,839.541
4732,865.919
4733,818.319
4734,835.152
4735,799.995
4736,840.308
4737,799.270
4738,808.773
4739,860.081
4740,865.194
4741,898.902
4742,926.729
4743,942.113
4744,969.216
4745,996.318
4746,1005.139
4747,1043.961
4748,1106.220
4749,1148.706
4750,1180.241
4751,1200.738
4752,1226.392
4753,1254.943
4754,1250.554
4755,1307.700
4756,1277.657
4757,1292.316
4758,1311.364
4759,1347.970
4760,1354.575
4761,1360.456
4762,1364.845
4763,1355.299
4764,1356.791
4765,1356.024
4766,1332.586
4767,1361.905
4768,1364.845
4769,1374.348
4770,1397.061
4771,1404.391
4772,1362.629
4773,1374.348
4774,1421.991
4775,1427.104
4776,1418.326
4777,1386.834
4778,1400.002
4779,1408.056
4780,1406.607
4781,1408.056
4782,1434.434
4783,1441.764
4784,1435.883
4785,1432.985
4786,1432.218
4787,1424.164
4788,1425.655
4789,1421.266
4790,1426.380
4791,1451.266
4792,1429.320
4793,1440.272
4794,1449.093
4795,1455.698
4796,1465.201
4797,1498.185
4798,1468.866
4799,1520.131
4800,1538.455
4801,1523.071
4802,1517.958
4803,1573.612
4804,1558.228
4805,1608.811
4806,1583.157
4807,1605.871
4808,1654.195
4809,1682.065
4810,1677.675
4811,1693.059
4812,1714.281
4813,1733.329
4814,1753.827
4815,1775.091
4816,1797.080
4817,1801.469
4818,1830.788
4819,1873.999
4820,1871.058
4821,1879.837
4822,1904.766
4823,1886.442
4824,1896.712
4825,1890.831
4826,1901.101
4827,1888.658
4828,1880.604
4829,1869.609
4830,1860.788
4831,1880.604
4832,1834.453
4833,1837.350
4834,1782.421
4835,1805.134
4836,1758.259
4837,1724.551
4838,1710.616
4839,1707.676
4840,1708.443
4841,1696.724
4842,1709.167
4843,1676.184
4844,1652.022
4845,1649.806
4846,1653.470
4847,1652.746
4848,1672.519
4849,1695.232
4850,1693.059
4851,1709.167
4852,1707.676
4853,1700.346
4854,1699.622
4855,1687.178
4856,1690.119
4857,1715.730
4858,1706.951
4859,1674.011
4860,1643.243
4861,1620.530
4862,1624.195
4863,1582.433
4864,1569.222
4865,1519.406
4866,1483.525
4867,1454.931
4868,1421.266
4869,1399.277
4870,1389.007
4871,1326.748
4872,1278.381
4873,1288.651
4874,1261.548
4875,1211.733
4876,1195.624
4877,1229.290
4878,1233.679
4879,1235.170
4880,1233.679
4881,1304.035
4882,1292.316
4883,1329.688
4884,1385.342
4885,1459.321
4886,1479.861
4887,1523.796
4888,1578.001
4889,1641.027
4890,1695.957
4891,1742.108
4892,1780.205
4893,1833.686
4894,1857.890
4895,1874.723
4896,1911.371
4897,1931.869
4898,1920.150
4899,1932.593
4900,1922.323
4901,1891.556
4902,1849.069
4903,1819.026
4904,1786.810
4905,1691.568
4906,1628.584
4907,1586.822
4908,1463.752
4909,1368.510
4910,1302.543
4911,1177.300
4912,1075.453
4913,1020.523
4914,909.897
4915,779.497
4916,689.369
4917,608.785
4918,525.986
4919,387.533
4920,304.009
4921,268.852
4922,194.874
4923,87.188
4924,31.492
4925,0.000
4926,0.000
4927,0.724
4928,0.724
4929,0.724
4930,1.449
4931,1.449
4932,0.724
4933,0.000
4934,0.724
4935,1.449
4936,1.449
4937,0.724
4938,0.724
4939,1.449
4940,0.000
4941,0.724
4942,12.443
4943,42.486
4944,69.589
4945,171.437
4946,235.145
4947,334.052
4948,413.911
4949,507.705
4950,549.466
4951,673.985
4952,742.849
4953,862.254
4954,947.269
4955,1032.242
4956,1084.998
4957,1189.019
4958,1219.787
4959,1285.711
4960,1344.305
4961,1438.823
4962,1471.082
4963,1492.304
4964,1551.665
4965,1576.552
4966,1585.331
4967,1605.871
4968,1641.027
4969,1659.351
4970,1675.459
4971,1681.298
4972,1742.875
4973,1717.221
4974,1765.588
4975,1742.875
4976,1761.156
4977,1750.162
4978,1786.086
4979,1778.032
4980,1810.972
4981,1772.151
4982,1813.913
4983,1772.875
4984,1809.523
4985,1763.372
4986,1755.318
4987,1747.989
4988,1765.588
4989,1750.929
4990,1747.264
4991,1760.432
4992,1717.221
4993,1733.329
4994,1747.989
4995,1725.275
4996,1739.210
4997,1728.940
4998,1745.048
4999,1753.102
5000,1759.707
5001,1794.864
5002,1778.032
5003,1778.756
5004,1788.259
5005,1800.745
5006,1813.913
5007,1824.183
5008,1821.967
5009,1818.302
5010,1818.302
5011,1819.026
5012,1805.134
5013,1808.799
5014,1823.458
5015,1776.540
5016,1781.696
5017,1765.588
5018,1769.977
5019,1725.275
5020,1749.437
5021,1706.227
5022,1740.659
5023,1697.448
5024,1693.783
5025,1719.395
5026,1679.849
5027,1688.627
5028,1702.562
5029,1693.059
5030,1681.298
5031,1678.400
5032,1642.476
5033,1627.859
5034,1605.871
5035,1623.428
5036,1556.779
5037,1555.330
5038,1536.282
5039,1504.747
5040,1524.563
5041,1483.525
5042,1446.877
5043,1430.769
5044,1438.823
5045,1450.542
5046,1440.272
5047,1427.829
5048,1411.721
5049,1363.354
5050,1397.786
5051,1339.916
5052,1338.467
5053,1361.905
5054,1301.819
5055,1326.748
5056,1293.765
5057,1248.338
5058,1257.159
5059,1243.949
5060,1198.522
5061,1192.684
5062,1140.652
5063,1158.976
5064,1132.598
5065,1101.106
5066,1095.950
5067,1110.609
5068,1132.598
5069,1137.712
5070,1150.922
5071,1170.695
5072,1184.630
5073,1200.014
5074,1218.295
5075,1298.154
5076,1339.191
5077,1353.851
5078,1416.834
5079,1471.082
5080,1487.915
5081,1567.049
5082,1602.930
5083,1610.984
5084,1667.405
5085,1672.519
5086,1690.119
5087,1719.395
5088,1743.599
5089,1720.162
5090,1733.329
5091,1730.389
5092,1712.108
5093,1709.892
5094,1716.497
5095,1723.826
5096,1696.724
5097,1681.298
5098,1659.351
5099,1649.806
5100,1635.146
5101,1597.049
5102,1551.665
5103,1548.001
5104,1558.995
5105,1501.082
5106,1513.568
5107,1465.201
5108,1477.645
5109,1442.488
5110,1467.417
5111,1441.039
5112,1418.326
5113,1435.883
5114,1471.082
5115,1445.428
5116,1449.093
5117,1491.579
5118,1515.017
5119,1542.120
5120,1550.174
5121,1569.222
5122,1543.569
5123,1564.833
5124,1567.049
5125,1608.811
5126,1619.763
5127,1612.433
5128,1580.941
5129,1621.254
5130,1588.271
5131,1595.601
5132,1577.276
5133,1564.833
5134,1547.233
5135,1572.163
5136,1558.995
5137,1545.060
5138,1546.509
5139,1534.790
5140,1519.406
5141,1499.634
5142,1470.315
5143,1468.866
5144,1451.266
5145,1465.926
5146,1478.369
5147,1428.553
5148,1421.991
5149,1420.499
5150,1439.548
5151,1444.704
5152,1451.266
5153,1450.542
5154,1472.531
5155,1484.250
5156,1489.364
5157,1482.801
5158,1459.321
5159,1474.704
5160,1475.471
5161,1484.974
5162,1495.244
5163,1515.742
5164,1514.293
5165,1515.742
5166,1547.233
5167,1561.893
5168,1539.179
5169,1594.876
5170,1560.444
5171,1572.163
5172,1596.325
5173,1591.211
5174,1613.200
5175,1615.373
5176,1639.578
5177,1620.530
5178,1664.465
5179,1625.643
5180,1624.195
5181,1649.806
5182,1668.130
5183,1641.027
5184,1628.584
5185,1624.195
5186,1666.681
5187,1631.482
5188,1632.249
5189,1619.763
5190,1606.595
5191,1615.373
5192,1588.271
5193,1628.584
5194,1616.098
5195,1580.941
5196,1564.833
5197,1567.049
5198,1597.816
5199,1597.816
5200,1569.222
5201,1548.725
5202,1535.515
5203,1531.125
5204,1534.066
5205,1542.120
5206,1536.282
5207,1566.282
5208,1512.801
5209,1510.628
5210,1506.239
5211,1528.185
5212,1541.395
5213,1504.747
5214,1477.645
5215,1480.585
5216,1498.909
5217,1442.488
5218,1467.417
5219,1415.385
5220,1449.818
5221,1388.283
5222,1372.899
5223,1353.851
5224,1352.402
5225,1354.575
5226,1347.245
5227,1346.521
5228,1343.581
5229,1287.160
5230,1287.160
5231,1297.430
5232,1301.819
5233,1320.143
5234,1318.694
5235,1312.813
5236,1280.597
5237,1311.364
5238,1266.662
5239,1268.111
5240,1264.489
5241,1283.537
5242,1286.435
5243,1272.543
5244,1298.921
5245,1263.722
5246,1247.614
5247,1269.602
5248,1244.673
5249,1264.489
5250,1273.992
5251,1301.094
5252,1265.213
5253,1278.381
5254,1300.370
5255,1365.569
5256,1377.288
5257,1388.283
5258,1406.607
5259,1457.147
5260,1521.622
5261,1508.412
5262,1547.233
5263,1572.887
5264,1631.482
5265,1652.746
5266,1648.357
5267,1689.394
5268,1684.962
5269,1695.232
5270,1672.519
5271,1691.568
5272,1643.243
5273,1642.476
5274,1618.314
5275,1577.276
5276,1541.395
5277,1468.142
5278,1455.698
5279,1396.337
5280,1340.640
5281,1300.370
5282,1208.068
5283,1168.479
5284,1128.209
5285,1064.458
5286,998.534
5287,994.869
5288,915.735
5289,923.789
5290,881.303
5291,856.416
5292,841.757
5293,783.162
5294,784.611
5295,743.574
5296,772.892
5297,717.963
5298,756.060
5299,731.130
5300,736.244
5301,716.471
5302,767.054
5303,726.741
5304,775.833
5305,746.514
5306,778.006
5307,778.773
5308,780.222
5309,770.676
5310,816.870
5311,843.206
5312,840.308
5313,836.643
5314,847.637
5315,881.303
5316,904.016
5317,940.664
5318,950.167
5319,972.156
5320,950.934
5321,992.653
5322,1032.966
5323,1032.242
5324,1016.134
5325,1063.734
5326,1090.112
5327,1103.280
5328,1093.052
5329,1132.598
5330,1139.203
5331,1134.047
5332,1153.095
5333,1150.922
5334,1144.317
5335,1180.965
5336,1211.008
5337,1217.571
5338,1223.451
5339,1227.116
5340,1247.614
5341,1282.046
5342,1290.824
5343,1326.748
5344,1331.862
5345,1356.024
5346,1340.640
5347,1394.888
5348,1359.689
5349,1424.164
5350,1405.115
5351,1413.937
5352,1421.266
5353,1468.866
5354,1453.482
5355,1470.315
5356,1506.963
5357,1470.315
5358,1520.131
5359,1502.574
5360,1484.250
5361,1505.514
5362,1521.622
5363,1479.861
5364,1522.347
5365,1486.466
5366,1463.752
5367,1501.849
5368,1480.585
5369,1441.764
5370,1422.715
5371,1420.499
5372,1400.002
5373,1377.288
5374,1358.964
5375,1356.791
5376,1369.959
5377,1360.456
5378,1353.126
5379,1355.299
5380,1372.899
5381,1388.283
5382,1353.851
5383,1372.899
5384,1392.672
5385,1421.266
5386,1444.704
5387,1465.926
5388,1482.801
5389,1531.125
5390,1534.066
5391,1567.773
5392,1613.925
5393,1661.525
5394,1651.297
5395,1701.113
5396,1742.875
5397,1761.923
5398,1754.594
5399,1796.356
5400,1799.253
5401,1800.745
5402,1803.643
5403,1832.237
5404,1833.686
5405,1819.793
5406,1826.356
5407,1852.010
5408,1806.583
5409,1825.632
5410,1787.535
5411,1783.870
5412,1747.264
5413,1726.724
5414,1708.443
5415,1674.735
5416,1621.254
5417,1568.498
5418,1535.515
5419,1493.753
5420,1472.531
5421,1440.272
5422,1372.899
5423,1365.569
5424,1306.975
5425,1289.375
5426,1234.446
5427,1225.625
5428,1180.241
5429,1179.474
5430,1169.971
5431,1153.095
5432,1131.149
5433,1125.268
5434,1117.214
5435,1112.825
5436,1101.831
5437,1119.430
5438,1122.328
5439,1129.658
5440,1135.538
5441,1140.652
5442,1148.706
5443,1200.738
5444,1194.133
5445,1204.403
5446,1274.716
5447,1264.489
5448,1290.100
5449,1330.413
5450,1368.510
5451,1409.505
5452,1444.704
5453,1477.645
5454,1507.688
5455,1523.071
5456,1573.612
5457,1577.276
5458,1605.146
5459,1622.703
5460,1682.065
5461,1692.292
5462,1681.298
5463,1671.070
5464,1707.676
5465,1679.849
5466,1701.113
5467,1687.903
5468,1657.135
5469,1684.962
5470,1670.346
5471,1646.865
5472,1647.632
5473,1632.249
5474,1622.703
5475,1561.168
5476,1560.444
5477,1558.228
5478,1536.282
5479,1512.801
5480,1492.304
5481,1520.898
5482,1513.568
5483,1484.250
5484,1479.136
5485,1471.806
5486,1462.985
5487,1405.115
5488,1412.445
5489,1425.655
5490,1422.715
5491,1369.234
5492,1394.121
5493,1361.180
5494,1380.953
5495,1369.959
5496,1373.624
5497,1365.569
5498,1335.527
5499,1353.126
5500,1393.397
5501,1398.553
5502,1405.840
5503,1417.601
5504,1416.834
5505,1440.272
5506,1453.482
5507,1443.212
5508,1444.704
5509,1496.693
5510,1484.250
5511,1521.622
5512,1557.503
5513,1526.736
5514,1561.893
5515,1575.828
5516,1585.331
5517,1588.995
5518,1606.595
5519,1629.308
5520,1624.195
5521,1623.428
5522,1619.038
5523,1609.535
5524,1602.930
5525,1607.319
5526,1629.308
5527,1573.612
5528,1605.871
5529,1556.055
5530,1534.790
5531,1549.449
5532,1504.023
5533,1512.077
5534,1468.142
5535,1434.434
5536,1411.721
5537,1415.385
5538,1414.661
5539,1377.288
5540,1386.067
5541,1384.618
5542,1359.689
5543,1323.808
5544,1309.873
5545,1329.688
5546,1328.921
5547,1342.132
5548,1334.802
5549,1331.862
5550,1338.467
5551,1340.640
5552,1332.586
5553,1361.905
5554,1366.294
5555,1382.402
5556,1381.678
5557,1449.818
5558,1433.709
5559,1444.704
5560,1490.855
5561,1520.131
5562,1550.898
5563,1553.114
5564,1546.509
5565,1572.887
5566,1587.546
5567,1646.865
5568,1635.146
5569,1638.811
5570,1655.686
5571,1687.178
5572,1692.292
5573,1687.178
5574,1712.108
5575,1730.389
5576,1722.335
5577,1727.491
5578,1736.994
5579,1693.783
5580,1703.286
5581,1717.221
5582,1676.184
5583,1672.519
5584,1676.184
5585,1663.740
5586,1674.011
5587,1656.411
5588,1663.016
5589,1646.865
5590,1649.081
5591,1639.578
5592,1638.087
5593,1599.265
5594,1580.217
5595,1591.211
5596,1599.990
5597,1570.714
5598,1539.946
5599,1532.617
5600,1535.515
5601,1495.969
5602,1493.028
5603,1442.488
5604,1415.385
5605,1412.445
5606,1378.737
5607,1342.856
5608,1350.186
5609,1304.035
5610,1326.748
5611,1305.484
5612,1260.824
5613,1230.781
5614,1260.057
5615,1239.560
5616,1221.235
5617,1262.273
5618,1214.673
5619,1270.327
5620,1246.889
5621,1246.889
5622,1249.105
5623,1304.035
5624,1306.975
5625,1291.591
5626,1328.921
5627,1358.240
5628,1333.353
5629,1333.353
5630,1357.515
5631,1368.510
5632,1340.640
5633,1349.461
5634,1384.618
5635,1379.504
5636,1329.688
5637,1324.532
5638,1352.402
5639,1331.862
5640,1305.484
5641,1317.970
5642,1275.441
5643,1289.375
5644,1279.872
5645,1276.932
5646,1288.651
5647,1252.727
5648,1279.105
5649,1251.278
5650,1277.657
5651,1297.430
5652,1299.645
5653,1321.592
5654,1308.424
5655,1307.700
5656,1333.353
5657,1375.072
5658,1367.018
5659,1436.650
5660,1440.272
5661,1439.548
5662,1491.579
5663,1520.898
5664,1546.509
5665,1547.233
5666,1547.233
5667,1574.379
5668,1614.649
5669,1630.033
5670,1638.087
5671,1639.578
5672,1632.973
5673,1583.157
5674,1594.876
5675,1593.427
5676,1567.773
5677,1515.017
5678,1473.255
5679,1432.985
5680,1367.785
5681,1356.791
5682,1283.537
5683,1230.781
5684,1165.581
5685,1128.209
5686,1063.734
5687,991.929
5688,969.983
5689,920.891
5690,868.135
5691,786.060
5692,755.293
5693,719.412
5694,667.380
5695,605.845
5696,569.964
5697,536.981
5698,556.029
5699,531.142
5700,530.418
5701,523.813
5702,523.813
5703,525.986
5704,537.748
5705,553.856
5706,540.645
5707,607.336
5708,640.277
5709,685.704
5710,725.292
5711,743.574
5712,772.892
5713,847.637
5714,917.951
5715,958.988
5716,1002.923
5717,1074.004
5718,1107.711
5719,1210.241
5720,1224.900
5721,1281.321
5722,1346.521
5723,1367.018
5724,1404.391
5725,1454.931
5726,1512.801
5727,1498.185
5728,1566.282
5729,1537.006
5730,1558.995
5731,1606.595
5732,1598.541
5733,1580.217
5734,1586.098
5735,1616.865
5736,1569.222
5737,1564.109
5738,1597.816
5739,1548.001
5740,1577.276
5741,1523.796
5742,1543.569
5743,1507.688
5744,1510.628
5745,1499.634
5746,1483.525
5747,1465.201
5748,1446.153
5749,1421.991
5750,1369.959
5751,1382.402
5752,1345.072
5753,1327.472
5754,1334.802
5755,1356.024
5756,1324.532
5757,1317.202
5758,1348.737
5759,1311.364
5760,1347.970
5761,1359.689
5762,1339.191
5763,1350.910
5764,1368.510
5765,1411.721
5766,1443.212
5767,1479.136
5768,1486.466
5769,1504.023
5770,1529.676
5771,1580.217
5772,1572.887
5773,1588.271
5774,1612.433
5775,1628.584
5776,1650.530
5777,1654.195
5778,1674.011
5779,1683.513
5780,1714.281
5781,1713.556
5782,1703.286
5783,1676.908
5784,1663.740
5785,1652.746
5786,1641.752
5787,1627.859
5788,1621.254
5789,1599.265
5790,1581.666
5791,1585.331
5792,1545.785
5793,1536.282
5794,1506.239
5795,1493.028
5796,1504.747
5797,1505.514
5798,1482.034
5799,1448.369
5800,1443.937
5801,1466.650
5802,1476.196
5803,1474.704
5804,1472.531
5805,1453.482
5806,1444.704
5807,1448.369
5808,1450.542
5809,1445.428
5810,1467.417
5811,1487.915
5812,1478.369
5813,1476.920
5814,1522.347
5815,1495.969
5816,1528.185
5817,1510.628
5818,1558.228
5819,1523.071
5820,1574.379
5821,1539.946
5822,1579.492
5823,1591.211
5824,1578.768
5825,1568.498
5826,1572.163
5827,1573.612
5828,1587.546
5829,1560.444
5830,1566.282
5831,1546.509
5832,1523.071
5833,1544.336
5834,1475.471
5835,1495.969
5836,1436.650
5837,1402.218
5838,1369.234
5839,1336.975
5840,1312.089
5841,1318.694
5842,1266.662
5843,1208.792
5844,1223.451
5845,1161.917
5846,1125.268
5847,1126.760
5848,1139.203
5849,1130.382
5850,1131.149
5851,1117.214
5852,1096.717
5853,1112.825
5854,1144.317
5855,1165.581
5856,1195.624
5857,1191.960
5858,1227.841
5859,1227.116
5860,1265.213
5861,1245.440
5862,1284.986
5863,1284.262
5864,1290.100
5865,1309.148
5866,1357.515
5867,1348.737
5868,1361.180
5869,1394.888
5870,1426.380
5871,1427.829
5872,1500.358
5873,1490.131
5874,1498.185
5875,1526.736
5876,1589.762
5877,1613.200
5878,1619.038
5879,1654.195
5880,1657.135
5881,1643.243
5882,1695.232
5883,1670.346
5884,1712.108
5885,1690.119
5886,1687.178
5887,1729.665
5888,1705.502
5889,1693.783
5890,1689.394
5891,1677.675
5892,1665.914
5893,1606.595
5894,1576.552
5895,1558.228
5896,1553.114
5897,1508.412
5898,1494.520
5899,1505.514
5900,1478.369
5901,1456.423
5902,1446.153
5903,1429.320
5904,1416.834
5905,1403.667
5906,1419.775
5907,1416.110
5908,1427.104
5909,1433.709
5910,1422.715
5911,1427.104
5912,1441.764
5913,1479.861
5914,1486.466
5915,1515.017
5916,1520.131
5917,1560.444
5918,1568.498
5919,1625.643
5920,1606.595
5921,1625.643
5922,1659.351
5923,1704.778
5924,1717.221
5925,1702.562
5926,1702.562
5927,1733.329
5928,1742.108
5929,1728.216
5930,1725.275
5931,1753.102
5932,1750.929
5933,1734.778
5934,1727.491
5935,1712.832
5936,1733.329
5937,1713.556
5938,1738.443
5939,1695.232
5940,1689.394
5941,1699.622
5942,1665.914
5943,1674.735
5944,1679.849
5945,1652.746
5946,1634.422
5947,1631.482
5948,1643.243
5949,1639.578
5950,1651.297
5951,1605.871
5952,1612.433
5953,1615.373
5954,1605.871
5955,1613.925
5956,1603.655
5957,1621.979
5958,1603.655
5959,1621.254
5960,1628.584
5961,1631.482
5962,1594.152
5963,1622.703
5964,1593.427
5965,1576.552
5966,1556.779
5967,1540.671
5968,1512.801
5969,1487.190
5970,1439.548
5971,1412.445
5972,1390.456
5973,1364.845
5974,1317.970
5975,1323.808
5976,1285.711
5977,1224.176
5978,1194.857
5979,1179.474
5980,1168.479
5981,1191.960
5982,1210.241
5983,1221.960
5984,1209.517
5985,1211.008
5986,1281.321
5987,1262.273
5988,1303.310
5989,1346.521
5990,1391.223
5991,1394.121
5992,1405.840
5993,1473.255
5994,1505.514
5995,1478.369
5996,1506.239
5997,1553.839
5998,1512.077
5999,1522.347
6000,1556.055
6001,1528.185
6002,1494.520
6003,1517.958
6004,1467.417
6005,1427.829
6006,1390.456
6007,1354.575
6008,1331.862
6009,1300.370
6010,1245.440
6011,1183.863
6012,1169.971
6013,1156.036
6014,1109.885
6015,1052.015
6016,1063.009
6017,1016.134
6018,1005.139
6019,960.437
6020,989.756
6021,975.821
6022,961.161
6023,927.454
6024,967.767
6025,949.443
6026,978.037
6027,974.372
6028,950.934
6029,1011.702
6030,1011.702
6031,1052.015
6032,1059.344
6033,1056.404
6034,1118.663
6035,1131.874
6036,1162.641
6037,1167.755
6038,1219.062
6039,1267.387
6040,1254.943
6041,1317.970
6042,1294.489
6043,1317.970
6044,1350.186
6045,1356.024
6046,1362.629
6047,1375.072
6048,1367.785
6049,1391.223
6050,1398.553
6051,1372.899
6052,1385.342
6053,1360.456
6054,1339.191
6055,1300.370
6056,1288.651
6057,1254.943
6058,1213.181
6059,1180.241
6060,1147.982
6061,1053.464
6062,1049.074
6063,982.426
6064,935.550
6065,882.070
6066,781.671
6067,773.617
6068,726.017
6069,641.769
6070,638.828
6071,591.953
6072,587.563
6073,577.293
6074,568.515
6075,585.348
6076,602.180
6077,600.007
6078,648.331
6079,663.715
6080,747.239
6081,804.384
6082,826.373
6083,906.956
6084,972.156
6085,1038.847
6086,1095.226
6087,1152.371
6088,1205.127
6089,1254.943
6090,1262.997
6091,1304.759
6092,1325.257
6093,1368.510
6094,1410.996
6095,1429.320
6096,1442.488
6097,1502.574
6098,1513.568
6099,1506.963
6100,1553.114
6101,1577.276
6102,1567.049
6103,1591.211
6104,1616.098
6105,1639.578
6106,1636.638
6107,1646.141
6108,1653.470
6109,1646.141
6110,1646.141
6111,1646.141
6112,1640.303
6113,1637.362
6114,1627.859
6115,1628.584
6116,1641.027
6117,1630.033
6118,1602.206
6119,1575.828
6120,1545.785
6121,1555.330
6122,1501.849
6123,1525.287
6124,1485.699
6125,1457.147
6126,1452.034
6127,1490.855
6128,1443.212
6129,1488.639
6130,1446.877
6131,1493.028
6132,1449.818
6133,1499.634
6134,1457.147
6135,1479.136
6136,1484.974
6137,1471.806
6138,1506.963
6139,1509.136
6140,1470.315
6141,1514.293
6142,1459.321
6143,1482.034
6144,1448.369
6145,1460.812
6146,1421.266
6147,1394.888
6148,1365.569
6149,1353.851
6150,1364.121
6151,1340.640
6152,1289.375
6153,1276.208
6154,1212.457
6155,1234.446
6156,1206.576
6157,1180.241
6158,1113.550
6159,1116.490
6160,1097.441
6161,1063.009
6162,1034.415
6163,1060.793
6164,997.810
6165,1035.907
6166,999.983
6167,984.599
6168,1012.469
6169,1013.193
6170,1020.523
6171,1054.955
6172,1070.339
6173,1084.231
6174,1099.615
6175,1097.441
6176,1125.268
6177,1149.431
6178,1180.965
6179,1245.440
6180,1254.943
6181,1266.662
6182,1310.640
6183,1351.635
6184,1339.191
6185,1361.180
6186,1375.072
6187,1419.050
6188,1427.104
6189,1433.709
6190,1434.434
6191,1482.801
6192,1478.369
6193,1487.190
6194,1503.298
6195,1531.125
6196,1550.174
6197,1543.569
6198,1569.222
6199,1583.157
6200,1619.763
6201,1671.070
6202,1661.525
6203,1680.573
6204,1698.173
6205,1730.389
6206,1717.946
6207,1764.821
6208,1738.443
6209,1778.756
6210,1774.367
6211,1776.540
6212,1777.307
6213,1763.372
6214,1796.356
6215,1747.989
6216,1775.091
6217,1716.497
6218,1708.443
6219,1679.124
6220,1637.362
6221,1620.530
6222,1557.503
6223,1515.017
6224,1456.423
6225,1413.937
6226,1390.456
6227,1287.927
6228,1254.943
6229,1172.144
6230,1117.939
6231,1072.512
6232,1008.804
6233,934.783
6234,906.956
6235,862.254
6236,816.103
6237,765.563
6238,717.963
6239,734.795
6240,730.406
6241,717.196
6242,724.525
6243,730.406
6244,742.125
6245,756.060
6246,750.903
6247,791.941
6248,820.492
6249,876.189
6250,910.621
6251,945.053
6252,959.713
6253,1062.285
6254,1100.382
6255,1147.982
6256,1208.792
6257,1293.765
6258,1351.635
6259,1411.721
6260,1482.801
6261,1505.514
6262,1583.882
6263,1643.243
6264,1692.292
6265,1747.989
6266,1841.740
6267,1871.783
6268,1899.652
6269,1967.025
6270,2011.003
6271,2018.333
6272,2058.603
6273,2102.581
6274,2148.732
6275,2160.451
6276,2204.386
6277,2222.710
6278,2223.434
6279,2265.196
6280,2276.191
6281,2312.839
6282,2309.174
6283,2337.725
6284,2363.379
6285,2350.936
6286,2378.763
6287,2395.595
6288,2380.212
6289,2382.428
6290,2386.817
6291,2350.169
6292,2331.120
6293,2313.563
6294,2307.682
6295,2276.915
6296,2226.375
6297,2201.445
6298,2174.343
6299,2135.521
6300,2076.927
6301,2049.824
6302,2027.836
6303,1962.636
6304,1950.193
6305,1888.658
6306,1884.993
6307,1852.734
6308,1797.805
6309,1765.588
6310,1776.540
6311,1739.210
6312,1717.946
6313,1693.059
6314,1674.735
6315,1652.746
6316,1673.243
6317,1638.087
6318,1615.373
6319,1612.433
6320,1623.428
6321,1662.292
6322,1641.027
6323,1651.297
6324,1689.394
6325,1680.573
6326,1675.459
6327,1703.286
6328,1690.119
6329,1746.540
6330,1712.832
6331,1761.923
6332,1728.940
6333,1747.264
6334,1727.491
6335,1737.719
6336,1719.395
6337,1712.832
6338,1737.719
6339,1690.843
6340,1676.908
6341,1671.070
6342,1650.530
6343,1626.368
6344,1610.984
6345,1585.331
6346,1566.282
6347,1549.449
6348,1558.995
6349,1513.568
6350,1501.849
6351,1508.412
6352,1498.909
6353,1479.136
6354,1450.542
6355,1436.650
6356,1424.164
6357,1394.888
6358,1397.786
6359,1380.229
6360,1395.612
6361,1404.391
6362,1426.380
6363,1430.769
6364,1432.218
6365,1415.385
6366,1427.829
6367,1442.488
6368,1486.466
6369,1475.471
6370,1487.190
6371,1523.071
6372,1551.665
6373,1565.558
6374,1614.649
6375,1655.686
6376,1673.243
6377,1717.946
6378,1750.929
6379,1782.421
6380,1834.453
6381,1887.891
6382,1933.317
6383,1941.371
6384,1963.360
6385,1983.133
6386,2007.338
6387,2049.824
6388,2040.279
6389,2020.506
6390,2015.392
6391,2026.387
6392,1958.971
6393,1952.366
6394,1887.166
6395,1813.188
6396,1779.480
6397,1679.124
6398,1622.703
6399,1502.574
6400,1383.169
6401,1304.035
6402,1184.630
6403,1063.734
6404,953.832
6405,828.589
6406,706.244
6407,579.467
6408,426.354
6409,328.214
6410,178.042
6411,50.540
6412,0.724
6413,1.449
6414,1.449
6415,0.724
6416,1.449
6417,0.724
6418,0.000
6419,1.449
6420,1.449
6421,0.724
6422,0.724
6423,0.724
6424,0.000
6425,0.724
6426,1.449
6427,0.724
6428,0.724
6429,1.449
6430,0.724
6431,0.000
6432,0.724
6433,0.724
6434,1.449
6435,1.449
6436,0.724
6437,0.000
6438,0.724
6439,1.449
6440,1.449
6441,1.449
6442,0.724
6443,0.724
6444,5.114
6445,55.697
6446,117.231
6447,208.809
6448,309.165
6449,429.295
6450,585.348
6451,693.758
6452,796.330
6453,910.621
6454,1014.642
6455,1104.047
6456,1179.474
6457,1256.392
6458,1331.137
6459,1416.834
6460,1428.553
6461,1516.466
6462,1539.946
6463,1570.714
6464,1597.049
6465,1652.746
6466,1639.578
6467,1652.022
6468,1668.130
6469,1665.189
6470,1686.454
6471,1703.286
6472,1678.400
6473,1653.470
6474,1640.303
6475,1630.757
6476,1624.195
6477,1616.098
6478,1611.709
6479,1636.638
6480,1622.703
6481,1632.973
6482,1620.530
6483,1658.627
6484,1636.638
6485,1641.752
6486,1657.135
6487,1678.400
6488,1691.568
6489,1695.957
6490,1693.059
6491,1714.281
6492,1742.108
6493,1744.324
6494,1721.610
6495,1726.000
6496,1731.880
6497,1734.054
6498,1768.486
6499,1726.724
6500,1734.054
6501,1757.492
6502,1706.227
6503,1712.108
6504,1738.443
6505,1684.238
6506,1691.568
6507,1713.556
6508,1684.962
6509,1656.411
6510,1672.519
6511,1675.459
6512,1651.297
6513,1670.346
6514,1657.860
6515,1663.016
6516,1629.308
6517,1631.482
6518,1630.033
6519,1619.038
6520,1599.990
6521,1591.936
6522,1565.558
6523,1540.671
6524,1516.466
6525,1491.579
6526,1471.082
6527,1472.531
6528,1439.548
6529,1432.985
6530,1397.061
6531,1367.785
6532,1350.186
6533,1338.467
6534,1273.992
6535,1295.981
6536,1263.722
6537,1217.571
6538,1191.960
6539,1176.576
6540,1167.030
6541,1146.533
6542,1147.982
6543,1161.192
6544,1121.604
6545,1123.095
6546,1139.928
6547,1121.604
6548,1084.231
6549,1101.831
6550,1121.604
6551,1104.771
6552,1107.711
6553,1138.479
6554,1127.484
6555,1134.814
6556,1171.420
6557,1202.911
6558,1234.446
6559,1257.159
6560,1338.467
6561,1357.515
6562,1431.494
6563,1485.699
6564,1506.239
6565,1587.546
6566,1641.752
6567,1679.849
6568,1728.216
6569,1742.108
6570,1765.588
6571,1823.458
6572,1801.469
6573,1832.961
6574,1821.242
6575,1825.632
6576,1844.680
6577,1790.475
6578,1805.859
6579,1742.108
6580,1690.119
6581,1690.119
6582,1634.422
6583,1580.941
6584,1517.958
6585,1451.266
6586,1449.818
6587,1400.002
6588,1348.737
6589,1280.597
6590,1217.571
6591,1200.738
6592,1170.695
6593,1111.376
6594,1103.280
6595,1055.680
6596,1012.469
6597,1047.626
6598,994.145
6599,1035.907
6600,1005.864
6601,1052.015
6602,1071.063
6603,1047.626
6604,1082.782
6605,1126.760
6606,1169.246
6607,1183.863
6608,1277.657
6609,1287.927
6610,1333.353
6611,1432.218
6612,1459.321
6613,1542.844
6614,1602.930
6615,1624.919
6616,1697.448
6617,1713.556
6618,1766.313
6619,1841.015
6620,1869.609
6621,1892.323
6622,1915.036
6623,1904.042
6624,1890.831
6625,1897.436
6626,1893.772
6627,1879.112
6628,1857.123
6629,1845.404
6630,1821.967
6631,1819.026
6632,1793.415
6633,1775.091
6634,1771.426
6635,1728.216
6636,1708.443
6637,1718.670
6638,1693.059
6639,1698.173
6640,1668.854
6641,1675.459
6642,1666.681
6643,1632.249
6644,1646.141
6645,1615.373
6646,1613.200
6647,1627.859
6648,1595.601
6649,1576.552
6650,1567.049
6651,1562.617
6652,1556.779
6653,1536.282
6654,1529.676
6655,1531.125
6656,1530.401
6657,1553.114
6658,1569.947
6659,1539.946
6660,1562.617
6661,1528.185
6662,1559.719
6663,1587.546
6664,1564.833
6665,1602.206
6666,1578.768
6667,1589.762
6668,1590.487
6669,1613.925
6670,1632.973
6671,1619.763
6672,1643.968
6673,1658.627
6674,1662.292
6675,1620.530
6676,1621.254
6677,1624.195
6678,1633.698
6679,1638.087
6680,1602.206
6681,1608.811
6682,1565.558
6683,1591.936
6684,1532.617
6685,1515.742
6686,1495.969
6687,1488.639
6688,1505.514
6689,1482.034
6690,1475.471
6691,1430.045
6692,1425.655
6693,1397.061
6694,1380.229
6695,1368.510
6696,1383.894
6697,1398.553
6698,1345.797
6699,1356.024
6700,1383.894
6701,1340.640
6702,1334.802
6703,1349.461
6704,1380.229
6705,1328.921
6706,1357.515
6707,1326.024
6708,1342.132
6709,1324.532
6710,1297.430
6711,1285.711
6712,1294.489
6713,1250.554
6714,1221.960
6715,1203.678
6716,1184.630
6717,1127.484
6718,1074.728
6719,1068.123
6720,1044.685
6721,1008.804
6722,973.647
6723,942.837
6724,901.843
6725,880.578
6726,815.379
6727,838.816
6728,820.492
6729,820.492
6730,810.265
6731,810.265
6732,817.595
6733,843.206
6734,842.481
6735,841.757
6736,881.303
6737,932.610
6738,966.318
6739,991.204
6740,1023.463
6741,1053.464
6742,1117.939
6743,1161.192
6744,1204.403
6745,1285.711
6746,1299.645
6747,1344.305
6748,1422.715
6749,1474.704
6750,1511.352
6751,1578.001
6752,1648.357
6753,1697.448
6754,1744.324
6755,1822.691
6756,1889.382
6757,1921.599
6758,1974.355
6759,2010.236
6760,2041.046
6761,2084.981
6762,2112.084
6763,2123.078
6764,2146.516
6765,2179.499
6766,2178.008
6767,2169.229
6768,2167.013
6769,2168.505
6770,2171.445
6771,2118.689
6772,2098.149
6773,2083.532
6774,2045.435
6775,1982.409
6776,1909.155
6777,1844.680
6778,1777.307
6779,1690.843
6780,1607.319
6781,1567.773
6782,1454.931
6783,1350.186
6784,1293.765
6785,1205.852
6786,1074.728
6787,986.815
6788,937.724
6789,814.654
6790,782.438
6791,690.093
6792,662.990
6793,578.742
6794,572.180
6795,534.807
6796,498.159
6797,462.278
6798,436.624
6799,416.851
6800,458.613
6801,417.576
6802,446.894
6803,438.840
6804,457.889
6805,473.997
6806,537.748
6807,527.478
6808,578.018
6809,564.083
6810,585.348
6811,635.163
6812,668.147
6813,682.763
6814,683.530
6815,708.417
6816,703.303
6817,772.168
6818,745.790
6819,812.438
6820,829.313
6821,861.530
6822,850.535
6823,876.913
6824,942.113
6825,967.042
6826,972.156
6827,1014.642
6828,1071.063
6829,1095.950
6830,1098.166
6831,1169.246
6832,1163.365
6833,1237.344
6834,1249.105
6835,1276.208
6836,1316.478
6837,1323.808
6838,1343.581
6839,1345.797
6840,1348.737
6841,1400.002
6842,1392.672
6843,1415.385
6844,1403.667
6845,1406.607
6846,1396.337
6847,1400.726
6848,1412.445
6849,1427.829
6850,1450.542
6851,1473.255
6852,1456.423
6853,1442.488
6854,1499.634
6855,1469.591
6856,1511.352
6857,1482.034
6858,1530.401
6859,1514.293
6860,1571.438
6861,1539.179
6862,1558.995
6863,1603.655
6864,1619.763
6865,1624.919
6866,1621.254
6867,1651.297
6868,1650.530
6869,1671.070
6870,1679.124
6871,1687.178
6872,1736.994
6873,1715.730
6874,1696.724
6875,1718.670
6876,1720.886
6877,1720.886
6878,1716.497
6879,1704.011
6880,1696.724
6881,1674.011
6882,1635.146
6883,1617.589
6884,1611.709
6885,1620.530
6886,1596.325
6887,1599.265
6888,1617.589
6889,1590.487
6890,1588.995
6891,1550.898
6892,1567.049
6893,1578.768
6894,1523.071
6895,1548.725
6896,1504.023
6897,1477.645
6898,1446.153
6899,1438.823
6900,1434.434
6901,1386.067
6902,1338.467
6903,1309.873
6904,1312.089
6905,1265.938
6906,1220.511
6907,1175.809
6908,1147.257
6909,1127.484
6910,1128.933
6911,1133.323
6912,1082.782
6913,1118.663
6914,1084.998
6915,1082.782
6916,1120.155
6917,1156.760
6918,1176.576
6919,1200.014
6920,1227.116
6921,1243.949
6922,1247.614
6923,1316.478
6924,1355.299
6925,1363.354
6926,1401.451
6927,1460.088
6928,1520.898
6929,1542.844
6930,1572.887
6931,1616.865
6932,1655.686
6933,1693.783
6934,1750.929
6935,1747.264
6936,1805.859
6937,1819.793
6938,1799.253
6939,1845.404
6940,1808.799
6941,1836.626
6942,1814.637
6943,1799.253
6944,1796.356
6945,1791.924
6946,1766.313
6947,1718.670
6948,1678.400
6949,1624.919
6950,1609.535
6951,1532.617
6952,1484.250
6953,1435.158
6954,1409.505
6955,1385.342
6956,1359.689
6957,1295.256
6958,1327.472
6959,1291.591
6960,1320.143
6961,1287.160
6962,1320.867
6963,1334.078
6964,1372.899
6965,1405.840
6966,1413.937
6967,1482.801
6968,1470.315
6969,1529.676
6970,1536.282
6971,1543.569
6972,1576.552
6973,1601.481
6974,1620.530
6975,1583.157
6976,1577.276
6977,1600.714
6978,1615.373
6979,1558.228
6980,1569.947
6981,1552.390
6982,1524.563
6983,1508.412
6984,1523.071
6985,1491.579
6986,1469.591
6987,1441.764
6988,1449.818
6989,1459.321
6990,1431.494
6991,1394.121
6992,1385.342
6993,1385.342
6994,1415.385
6995,1420.499
6996,1434.434
6997,1422.715
6998,1423.439
6999,1424.888
7000,1487.915
7001,1458.596
7002,1525.287
7003,1498.185
7004,1550.174
7005,1580.941
7006,1558.995
7007,1574.379
7008,1599.265
7009,1605.146
7010,1604.379
7011,1590.487
7012,1553.839
7013,1570.714
7014,1538.455
7015,1504.747
7016,1515.742
7017,1490.855
7018,1476.920
7019,1448.369
7020,1468.866
7021,1475.471
7022,1442.488
7023,1467.417
7024,1444.704
7025,1478.369
7026,1446.877
7027,1471.806
7028,1481.309
7029,1507.688
7030,1496.693
7031,1551.665
7032,1565.558
7033,1544.336
7034,1549.449
7035,1565.558
7036,1586.822
7037,1599.990
7038,1619.763
7039,1619.763
7040,1633.698
7041,1654.962
7042,1666.681
7043,1660.076
7044,1680.573
7045,1698.897
7046,1726.000
7047,1742.875
7048,1745.773
7049,1716.497
7050,1769.210
7051,1759.707
7052,1753.827
7053,1764.821
7054,1794.864
7055,1810.972
7056,1786.086
7057,1776.540
7058,1777.307
7059,1786.086
7060,1810.972
7061,1762.648
7062,1779.480
7063,1789.026
7064,1741.383
7065,1748.713
7066,1761.923
7067,1708.443
7068,1736.270
7069,1684.238
7070,1710.616
7071,1672.519
7072,1677.675
7073,1650.530
7074,1613.925
7075,1598.541
7076,1624.195
7077,1591.211
7078,1589.762
7079,1528.185
7080,1519.406
7081,1523.071
7082,1471.082
7083,1443.212
7084,1423.439
7085,1432.218
7086,1375.072
7087,1357.515
7088,1326.748
7089,1295.981
7090,1234.446
7091,1243.949
7092,1210.241
7093,1169.971
7094,1152.371
7095,1142.144
7096,1076.177
7097,1090.112
7098,1049.799
7099,1012.469
7100,1048.350
7101,1002.199
7102,995.594
7103,1020.523
7104,1020.523
7105,993.420
7106,997.085
7107,1002.199
7108,991.204
7109,999.983
7110,1013.193
7111,982.426
7112,1030.026
7113,1024.912
7114,1017.583
7115,1007.313
7116,996.318
7117,981.701
7118,980.210
7119,964.826
7120,969.983
7121,958.221
7122,959.713
7123,950.167
7124,957.497
7125,978.037
7126,996.318
7127,997.810
7128,1077.668
7129,1123.095
7130,1161.192
7131,1235.170
7132,1276.208
7133,1377.288
7134,1440.272
7135,1527.461
7136,1611.709
7137,1665.914
7138,1767.037
7139,1829.296
7140,1901.101
7141,1986.074
7142,2037.381
7143,2104.754
7144,2169.229
7145,2200.721
7146,2234.429
7147,2246.872
7148,2297.455
7149,2282.796
7150,2271.077
7151,2280.580
7152,2245.423
7153,2213.931
7154,2162.624
7155,2122.354
7156,2048.333
7157,2018.333
7158,1923.814
7159,1804.410
7160,1737.719
7161,1624.195
7162,1502.574
7163,1394.121
7164,1271.776
7165,1205.127
7166,1062.285
7167,965.551
7168,849.086
7169,729.682
7170,591.228
7171,517.932
7172,413.911
7173,278.398
7174,229.307
7175,147.999
7176,53.481
7177,0.724
7178,0.724
7179,0.000
7180,0.000
7181,0.724
7182,0.724
7183,0.724
7184,0.724
7185,0.724
7186,0.000
7187,0.724
7188,1.449
7189,1.449
7190,1.449
7191,4.389
7192,31.492
7193,55.697
7194,145.783
7195,216.863
7196,337.717
7197,395.587
7198,491.554
7199,630.050
7200,693.758
7201,838.816
7202,926.005
7203,1041.745
7204,1115.766
7205,1222.727
7206,1304.035
7207,1348.737
7208,1448.369
7209,1509.136
7210,1553.114
7211,1586.098
7212,1599.265
7213,1636.638
7214,1686.454
7215,1690.843
7216,1692.292
7217,1708.443
7218,1731.880
7219,1727.491
7220,1750.929
7221,1719.395
7222,1704.011
7223,1733.329
7224,1681.298
7225,1712.832
7226,1660.076
7227,1690.119
7228,1679.124
7229,1664.465
7230,1628.584
7231,1621.254
7232,1619.038
7233,1613.200
7234,1605.871
7235,1608.044
7236,1607.319
7237,1604.379
7238,1610.260
7239,1611.709
7240,1614.649
7241,1618.314
7242,1624.195
7243,1629.308
7244,1628.584
7245,1651.297
7246,1654.962
7247,1682.789
7248,1667.405
7249,1648.357
7250,1641.752
7251,1669.579
7252,1668.854
7253,1644.692
7254,1661.525
7255,1645.416
7256,1624.195
7257,1588.995
7258,1563.384
7259,1543.569
7260,1545.060
7261,1538.455
7262,1504.747
7263,1464.477
7264,1466.650
7265,1460.812
7266,1428.553
7267,1400.002
7268,1405.840
7269,1363.354
7270,1345.072
7271,1361.905
7272,1301.819
7273,1295.981
7274,1285.711
7275,1283.537
7276,1279.872
7277,1290.100
7278,1291.591
7279,1296.705
7280,1328.197
7281,1333.353
7282,1338.467
7283,1339.191
7284,1319.418
7285,1300.370
7286,1299.645
7287,1347.245
7288,1332.586
7289,1325.257
7290,1318.694
7291,1328.197
7292,1327.472
7293,1276.932
7294,1290.824
7295,1285.711
7296,1252.727
7297,1270.327
7298,1285.711
7299,1237.344
7300,1278.381
7301,1245.440
7302,1257.159
7303,1243.949
7304,1285.711
7305,1251.278
7306,1273.992
7307,1309.873
7308,1291.591
7309,1322.359
7310,1362.629
7311,1374.348
7312,1443.212
7313,1451.266
7314,1511.352
7315,1542.844
7316,1608.811
7317,1664.465
7318,1727.491
7319,1762.648
7320,1810.972
7321,1872.507
7322,1918.701
7323,1939.198
7324,2007.338
7325,2029.284
7326,2038.106
7327,2073.987
7328,2093.035
7329,2111.359
7330,2090.862
7331,2065.933
7332,2057.154
7333,2062.992
7334,2014.668
7335,1975.804
7336,1953.133
7337,1898.885
7338,1813.188
7339,1769.977
7340,1682.789
7341,1619.038
7342,1549.449
7343,1530.401
7344,1427.829
7345,1416.110
7346,1335.527
7347,1264.489
7348,1241.775
7349,1164.814
7350,1152.371
7351,1087.896
7352,1034.415
7353,997.085
7354,994.869
7355,932.610
7356,934.783
7357,895.237
7358,882.794
7359,873.973
7360,855.692
7361,827.822
7362,806.600
7363,793.390
7364,834.427
7365,846.870
7366,857.140
7367,882.070
7368,893.789
7369,926.729
7370,925.280
7371,1003.648
7372,1040.296
7373,1077.668
7374,1134.047
7375,1167.755
7376,1172.911
7377,1213.906
7378,1276.932
7379,1339.916
7380,1353.126
7381,1372.899
7382,1451.266
7383,1487.915
7384,1527.461
7385,1567.049
7386,1602.206
7387,1638.087
7388,1644.692
7389,1711.340
7390,1750.162
7391,1761.923
7392,1797.805
7393,1833.686
7394,1879.112
7395,1929.653
7396,1938.474
7397,1959.696
7398,1951.641
7399,1993.403
7400,1989.014
7401,1982.409
7402,1950.917
7403,1953.857
7404,1933.317
7405,1923.090
7406,1919.425
7407,1884.269
7408,1856.399
7409,1841.740
7410,1830.021
7411,1842.507
7412,1851.285
7413,1853.459
7414,1828.572
7415,1833.686
7416,1824.183
7417,1855.674
7418,1845.404
7419,1849.069
7420,1871.058
7421,1873.999
7422,1897.436
7423,1917.209
7424,1903.317
7425,1923.814
7426,1927.479
7427,1954.582
7428,1976.571
7429,1948.701
7430,1969.241
7431,1985.349
7432,1975.079
7433,2013.901
7434,1984.625
7435,2027.111
7436,2024.171
7437,2018.333
7438,2023.446
7439,2018.333
7440,2013.901
7441,2027.111
7442,2041.046
7443,2030.776
7444,2007.338
7445,1994.852
7446,1980.960
7447,1945.803
7448,1925.988
7449,1911.371
7450,1887.891
7451,1859.339
7452,1836.626
7453,1824.183
7454,1807.307
7455,1775.091
7456,1747.264
7457,1745.048
7458,1698.173
7459,1649.081
7460,1638.811
7461,1606.595
7462,1556.779
7463,1558.228
7464,1481.309
7465,1490.131
7466,1453.482
7467,1414.661
7468,1327.472
7469,1334.802
7470,1279.105
7471,1219.062
7472,1206.576
7473,1174.360
7474,1095.950
7475,1092.328
7476,1049.799
7477,1031.517
7478,993.420
7479,961.886
7480,933.334
7481,892.297
7482,852.027
7483,831.487
7484,826.373
7485,797.822
7486,785.336
7487,789.725
7488,782.438
7489,779.497
7490,785.336
7491,786.060
7492,776.557
7493,805.109
7494,813.205
7495,812.438
7496,823.433
7497,813.205
7498,804.384
7499,842.481
7500,853.476
7501,814.654
7502,817.595
7503,845.422
7504,836.643
7505,822.708
7506,788.276
7507,822.708
7508,798.546
7509,785.336
7510,789.725
7511,753.119
7512,789.000
7513,766.287
7514,740.676
7515,785.336
7516,752.395
7517,793.390
7518,789.000
7519,783.887
7520,787.552
7521,837.367
7522,835.152
7523,843.206
7524,908.405
7525,945.778
7526,944.329
7527,1023.463
7528,1081.333
7529,1128.209
7530,1172.911
7531,1230.781
7532,1287.160
7533,1376.564
7534,1447.602
7535,1503.298
7536,1554.563
7537,1627.092
7538,1739.935
7539,1766.313
7540,1838.075
7541,1915.760
7542,1978.744
7543,2009.511
7544,2061.543
7545,2081.316
7546,2117.197
7547,2135.521
7548,2138.462
7549,2123.803
7550,2115.748
7551,2113.533
7552,2044.668
7553,2023.446
7554,1965.576
7555,1859.339
7556,1791.199
7557,1679.124
7558,1585.331
7559,1520.131
7560,1372.175
7561,1296.705
7562,1148.706
7563,1060.793
7564,902.567
7565,826.373
7566,660.817
7567,575.078
7568,485.716
7569,332.603
7570,237.361
7571,143.610
7572,56.421
7573,0.724
7574,0.000
7575,0.724
7576,1.449
7577,1.449
7578,0.724
7579,1.449
7580,0.000
7581,0.724
7582,1.449
7583,1.449
7584,0.724
7585,0.724
7586,0.724
7587,0.000
7588,0.724
7589,1.449
7590,0.724
7591,0.724
7592,0.724
7593,0.000
7594,0.000
7595,1.449
7596,1.449
7597,30.767
7598,60.086
7599,154.561
7600,235.145
7601,378.754
7602,488.656
7603,575.078
7604,703.303
7605,791.216
7606,916.502
7607,980.210
7608,1100.382
7609,1189.019
7610,1290.824
7611,1372.899
7612,1428.553
7613,1469.591
7614,1539.179
7615,1603.655
7616,1671.070
7617,1752.378
7618,1786.086
7619,1837.350
7620,1883.502
7621,1947.977
7622,2001.457
7623,2027.111
7624,2069.597
7625,2124.527
7626,2155.294
7627,2180.948
7628,2204.386
7629,2235.878
7630,2238.818
7631,2241.034
7632,2249.088
7633,2252.753
7634,2232.255
7635,2238.094
7636,2203.661
7637,2200.721
7638,2194.158
7639,2151.630
7640,2107.694
7641,2109.143
7642,2042.495
7643,2032.225
7644,1995.619
7645,1972.906
7646,1917.934
7647,1864.453
7648,1865.944
7649,1796.356
7650,1797.805
7651,1737.719
7652,1694.508
7653,1663.016
7654,1630.033
7655,1620.530
7656,1618.314
7657,1562.617
7658,1531.125
7659,1528.185
7660,1482.801
7661,1480.585
7662,1439.548
7663,1420.499
7664,1402.942
7665,1389.732
7666,1375.839
7667,1357.515
7668,1329.688
7669,1276.932
7670,1261.548
7671,1285.711
7672,1224.176
7673,1250.554
7674,1215.397
7675,1232.230
7676,1219.062
7677,1216.122
7678,1204.403
7679,1180.241
7680,1230.057
7681,1208.792
7682,1241.775
7683,1218.295
7684,1260.824
7685,1261.548
7686,1278.381
7687,1314.305
7688,1347.245
7689,1372.899
7690,1385.342
7691,1386.834
7692,1423.439
7693,1458.596
7694,1452.034
7695,1504.023
7696,1510.628
7697,1561.168
7698,1544.336
7699,1591.211
7700,1627.859
7701,1597.816
7702,1640.303
7703,1676.184
7704,1686.454
7705,1690.843
7706,1692.292
7707,1703.286
7708,1678.400
7709,1723.059
7710,1719.395
7711,1676.908
7712,1693.783
7713,1693.059
7714,1708.443
7715,1698.173
7716,1693.783
7717,1674.011
7718,1625.643
7719,1605.871
7720,1599.265
7721,1599.265
7722,1598.541
7723,1542.844
7724,1567.773
7725,1523.071
7726,1495.244
7727,1464.477
7728,1441.764
7729,1424.164
7730,1436.650
7731,1425.655
7732,1394.888
7733,1356.791
7734,1342.132
7735,1333.353
7736,1266.662
7737,1253.494
7738,1253.494
7739,1222.727
7740,1176.576
7741,1191.193
7742,1161.917
7743,1109.160
7744,1136.263
7745,1119.430
7746,1052.015
7747,1062.285
7748,1079.117
7749,1074.004
7750,1073.279
7751,1077.668
7752,1064.458
7753,1090.112
7754,1112.101
7755,1134.814
7756,1136.263
7757,1178.749
7758,1208.792
7759,1264.489
7760,1257.159
7761,1320.867
7762,1363.354
7763,1388.283
7764,1441.039
7765,1466.650
7766,1519.406
7767,1525.287
7768,1565.558
7769,1573.612
7770,1597.816
7771,1647.632
7772,1640.303
7773,1675.459
7774,1684.962
7775,1688.627
7776,1693.783
7777,1708.443
7778,1742.108
7779,1730.389
7780,1736.270
7781,1772.875
7782,1755.318
7783,1758.259
7784,1778.032
7785,1792.691
7786,1781.696
7787,1781.696
7788,1791.199
7789,1810.972
7790,1831.512
7791,1849.836
7792,1862.280
7793,1856.399
7794,1852.734
7795,1895.987
7796,1917.934
7797,1917.209
7798,1901.826
7799,1955.306
7800,1934.084
7801,1976.571
7802,1967.025
7803,1981.684
7804,2011.727
7805,2007.338
7806,2046.160
7807,2022.722
7808,2050.549
7809,2083.532
7810,2076.203
7811,2093.035
7812,2095.976
7813,2112.808
7814,2131.132
7815,2137.737
7816,2115.748
7817,2134.073
7818,2149.456
7819,2117.964
7820,2146.516
7821,2119.413
7822,2097.424
7823,2084.257
7824,2100.365
7825,2051.998
7826,2041.770
7827,2039.554
7828,2016.117
7829,1964.852
7830,1923.814
7831,1909.880
7832,1877.663
7833,1832.237
7834,1826.356
7835,1772.875
7836,1777.307
7837,1734.778
7838,1710.616
7839,1646.865
7840,1611.709
7841,1608.811
7842,1567.049
7843,1571.438
7844,1511.352
7845,1526.736
7846,1458.596
7847,1482.034
7848,1438.099
7849,1409.505
7850,1431.494
7851,1394.888
7852,1360.456
7853,1352.402
7854,1339.916
7855,1341.407
7856,1343.581
7857,1331.862
7858,1328.197
7859,1294.489
7860,1260.057
7861,1249.830
7862,1256.392
7863,1230.781
7864,1230.057
7865,1178.749
7866,1185.354
7867,1186.803
7868,1153.863
7869,1149.431
7870,1117.939
7871,1098.890
7872,1106.944
7873,1131.149
7874,1134.814
7875,1125.993
7876,1115.766
7877,1118.663
7878,1110.609
7879,1106.220
7880,1123.095
7881,1134.047
7882,1128.209
7883,1111.376
7884,1123.095
7885,1098.166
7886,1065.183
7887,1047.626
7888,1035.907
7889,1062.285
7890,1011.702
7891,1008.080
7892,1015.367
7893,953.107
7894,986.815
7895,925.280
7896,939.940
7897,917.226
7898,880.578
7899,910.621
7900,904.783
7901,893.789
7902,890.124
7903,889.357
7904,895.237
7905,903.292
7906,912.070
7907,906.232
7908,937.724
7909,950.934
7910,1003.648
7911,1049.799
7912,1085.723
7913,1120.155
7914,1147.257
7915,1233.679
7916,1256.392
7917,1326.748
7918,1411.721
7919,1445.428
7920,1506.963
7921,1547.233
7922,1611.709
7923,1617.589
7924,1701.838
7925,1687.178
7926,1712.108
7927,1757.492
7928,1763.372
7929,1715.730
7930,1712.108
7931,1708.443
7932,1676.184
7933,1607.319
7934,1546.509
7935,1488.639
7936,1430.045
7937,1321.592
7938,1248.338
7939,1169.971
7940,1030.750
7941,966.318
7942,830.762
7943,779.497
7944,676.201
7945,576.569
7946,466.667
7947,368.484
7948,299.620
7949,161.167
7950,80.583
7951,21.989
7952,0.724
7953,1.449
7954,1.449
7955,0.000
7956,0.724
7957,1.449
7958,1.449
7959,1.449
7960,0.724
7961,0.000
7962,0.724
7963,1.449
7964,1.449
7965,1.449
7966,0.000
7967,0.724
7968,1.449
7969,24.162
7970,51.265
7971,143.610
7972,228.582
7973,268.852
7974,405.132
7975,489.381
7976,536.256
7977,632.223
7978,764.838
7979,854.924
7980,900.351
7981,991.929
7982,1069.614
7983,1185.354
7984,1224.176
7985,1302.543
7986,1343.581
7987,1449.818
7988,1481.309
7989,1516.466
7990,1566.282
7991,1624.195
7992,1650.530
7993,1668.854
7994,1690.843
7995,1665.914
7996,1701.113
7997,1700.346
7998,1690.119
7999,1713.556
8000,1695.957
8001,1715.005
8002,1702.562
8003,1705.502
8004,1708.443
8005,1731.880
8006,1704.778
8007,1745.048
8008,1715.730
8009,1736.270
8010,1730.389
8011,1775.816
8012,1750.929
8013,1783.870
8014,1786.810
8015,1825.632
8016,1846.896
8017,1868.885
8018,1882.053
8019,1887.891
8020,1923.090
8021,1927.479
8022,1931.869
8023,1943.587
8024,1978.020
8025,2001.457
8026,2008.787
8027,1995.619
8028,2011.727
8029,2032.225
8030,2019.781
8031,2049.824
8032,2024.171
8033,2031.500
8034,2037.381
8035,2028.560
8036,2028.560
8037,2021.997
8038,2021.230
8039,1998.517
8040,1974.355
8041,1944.312
8042,1903.317
8043,1873.999
8044,1873.999
8045,1797.805
8046,1754.594
8047,1714.281
8048,1656.411
8049,1633.698
8050,1581.666
8051,1502.574
8052,1446.153
8053,1391.948
8054,1365.569
8055,1293.040
8056,1284.262
8057,1233.679
8058,1194.133
8059,1155.311
8060,1107.711
8061,1063.009
8062,1047.626
8063,1033.691
8064,1017.583
8065,1032.242
8066,1068.847
8067,1063.009
8068,1084.231
8069,1160.425
8070,1191.960
8071,1202.911
8072,1271.776
8073,1328.197
8074,1380.953
8075,1406.607
8076,1453.482
8077,1518.682
8078,1535.515
8079,1589.762
8080,1621.979
8081,1642.476
8082,1665.914
8083,1726.724
8084,1711.340
8085,1716.497
8086,1763.372
8087,1721.610
8088,1719.395
8089,1721.610
8090,1747.989
8091,1727.491
8092,1696.724
8093,1684.962
8094,1665.914
8095,1641.027
8096,1635.146
8097,1566.282
8098,1579.492
8099,1523.071
8100,1477.645
8101,1477.645
8102,1426.380
8103,1373.624
8104,1354.575
8105,1332.586
8106,1258.608
8107,1265.938
8108,1206.576
8109,1196.349
8110,1172.911
8111,1160.425
8112,1145.041
8113,1119.430
8114,1123.095
8115,1097.441
8116,1083.507
8117,1115.766
8118,1137.712
8119,1152.371
8120,1169.971
8121,1196.349
8122,1220.511
8123,1213.181
8124,1266.662
8125,1280.597
8126,1362.629
8127,1400.726
8128,1428.553
8129,1489.364
8130,1503.298
8131,1569.222
8132,1567.049
8133,1610.260
8134,1657.860
8135,1687.903
8136,1712.832
8137,1772.151
8138,1803.643
8139,1796.356
8140,1841.740
8141,1828.572
8142,1868.118
8143,1850.561
8144,1873.999
8145,1898.161
8146,1904.766
8147,1925.263
8148,1909.155
8149,1906.215
8150,1918.701
8151,1934.084
8152,1899.652
8153,1892.323
8154,1922.323
8155,1897.436
8156,1890.107
8157,1891.556
8158,1868.118
8159,1854.226
8160,1843.956
8161,1860.064
8162,1858.615
8163,1842.507
8164,1810.248
8165,1822.691
8166,1799.253
8167,1799.253
8168,1821.242
8169,1785.361
8170,1805.859
8171,1792.691
8172,1805.134
8173,1778.756
8174,1814.637
8175,1808.799
8176,1779.480
8177,1802.194
8178,1799.253
8179,1776.540
8180,1784.594
8181,1779.480
8182,1793.415
8183,1796.356
8184,1775.816
8185,1775.091
8186,1774.367
8187,1783.870
8188,1761.156
8189,1762.648
8190,1757.492
8191,1755.318
8192,1745.773
8193,1745.773
8194,1736.270
8195,1725.275
8196,1760.432
8197,1717.221
8198,1762.648
8199,1719.395
8200,1742.108
8201,1731.156
8202,1712.108
8203,1739.935
8204,1739.210
8205,1717.946
8206,1761.923
8207,1727.491
8208,1743.599
8209,1772.875
8210,1746.540
8211,1768.486
8212,1762.648
8213,1760.432
8214,1779.480
8215,1780.972
8216,1763.372
8217,1793.415
8218,1755.318
8219,1785.361
8220,1743.599
8221,1739.935
8222,1751.653
8223,1702.562
8224,1676.908
8225,1659.351
8226,1649.806
8227,1652.746
8228,1602.930
8229,1572.887
8230,1575.103
8231,1554.563
8232,1504.747
8233,1471.082
8234,1465.201
8235,1457.147
8236,1438.823
8237,1381.678
8238,1367.018
8239,1375.072
8240,1318.694
8241,1344.305
8242,1312.813
8243,1265.213
8244,1290.824
8245,1264.489
8246,1246.889
8247,1229.290
8248,1223.451
8249,1202.911
8250,1139.928
8251,1154.587
8252,1116.490
8253,1120.879
8254,1102.555
8255,1049.799
8256,1035.182
8257,1043.236
8258,1049.074
8259,1046.134
8260,997.810
8261,1020.523
8262,1023.463
8263,984.599
8264,1017.583
8265,982.426
8266,1015.367
8267,994.869
8268,974.372
8269,984.599
8270,995.594
8271,1013.918
8272,1003.648
8273,997.810
8274,1003.648
8275,993.420
8276,998.534
8277,997.085
8278,994.145
8279,983.875
8280,1004.415
8281,1023.463
8282,1035.182
8283,1038.080
8284,1074.728
8285,1102.555
8286,1106.220
8287,1123.095
8288,1199.247
8289,1211.733
8290,1255.668
8291,1278.381
8292,1290.824
8293,1366.294
8294,1349.461
8295,1398.553
8296,1435.158
8297,1441.764
8298,1457.147
8299,1431.494
8300,1427.829
8301,1403.667
8302,1394.888
8303,1332.586
8304,1308.424
8305,1273.267
8306,1216.846
8307,1129.658
8308,1098.890
8309,1016.134
8310,941.389
8311,834.427
8312,801.486
8313,696.698
8314,642.493
8315,569.964
8316,446.894
8317,376.538
8318,360.430
8319,293.782
8320,218.312
8321,140.669
8322,109.902
8323,60.810
8324,46.151
8325,14.659
8326,0.724
8327,0.000
8328,0.724
8329,0.724
8330,1.449
8331,1.449
8332,0.000
8333,10.994
8334,32.216
8335,54.205
8336,73.254
8337,170.712
8338,188.269
8339,251.295
8340,303.285
8341,400.019
8342,448.343
8343,572.180
8344,617.564
8345,706.968
8346,816.870
8347,887.183
8348,980.934
8349,1031.517
8350,1089.387
8351,1212.457
8352,1233.679
8353,1298.154
8354,1361.180
8355,1462.985
8356,1462.261
8357,1521.622
8358,1568.498
8359,1606.595
8360,1626.368
8361,1631.482
8362,1649.806
8363,1681.298
8364,1708.443
8365,1675.459
8366,1674.735
8367,1712.832
8368,1693.783
8369,1676.908
8370,1676.908
8371,1650.530
8372,1630.757
8373,1649.081
8374,1598.541
8375,1586.098
8376,1596.325
8377,1555.330
8378,1560.444
8379,1541.395
8380,1535.515
8381,1521.622
8382,1542.844
8383,1504.747
8384,1537.006
8385,1521.622
8386,1524.563
8387,1545.060
8388,1565.558
8389,1556.779
8390,1610.260
8391,1588.271
8392,1624.919
8393,1644.692
8394,1671.070
8395,1741.383
8396,1753.827
8397,1783.870
8398,1814.637
8399,1857.890
8400,1906.939
8401,1931.144
8402,1937.749
8403,1962.636
8404,2004.398
8405,2037.381
8406,2033.716
8407,2032.225
8408,2043.944
8409,2056.430
8410,2046.884
8411,2023.446
8412,1991.954
8413,1953.857
8414,1924.539
8415,1911.371
8416,1839.566
8417,1781.696
8418,1758.983
8419,1676.184
8420,1611.709
8421,1586.098
8422,1526.012
8423,1465.926
8424,1361.180
8425,1347.245
8426,1253.494
8427,1206.576
8428,1164.814
8429,1150.198
8430,1097.441
8431,1032.966
8432,1057.896
8433,1041.745
8434,1035.182
8435,1038.080
8436,1040.296
8437,1028.577
8438,1035.182
8439,1109.885
8440,1134.814
8441,1194.133
8442,1230.057
8443,1254.219
8444,1334.078
8445,1397.061
8446,1461.536
8447,1490.855
8448,1524.563
8449,1616.865
8450,1627.092
8451,1687.903
8452,1708.443
8453,1747.264
8454,1780.972
8455,1775.091
8456,1828.572
8457,1788.259
8458,1821.967
8459,1778.032
8460,1783.145
8461,1740.659
8462,1762.648
8463,1715.005
8464,1675.459
8465,1652.022
8466,1632.249
8467,1564.833
8468,1571.438
8469,1507.688
8470,1511.352
8471,1498.909
8472,1445.428
8473,1417.601
8474,1438.099
8475,1375.072
8476,1392.672
8477,1372.175
8478,1383.169
8479,1347.970
8480,1355.299
8481,1320.867
8482,1353.126
8483,1296.705
8484,1309.148
8485,1293.040
8486,1285.711
8487,1308.424
8488,1268.878
8489,1255.668
8490,1287.927
8491,1244.673
8492,1277.657
8493,1268.878
8494,1249.105
8495,1266.662
8496,1296.705
8497,1286.435
8498,1295.981
8499,1313.538
8500,1355.299
8501,1389.007
8502,1391.223
8503,1425.655
8504,1461.536
8505,1483.525
8506,1493.753
8507,1543.569
8508,1569.947
8509,1615.373
8510,1665.189
8511,1701.838
8512,1749.437
8513,1825.632
8514,1829.296
8515,1884.269
8516,1937.749
8517,1944.312
8518,1978.744
8519,2009.511
8520,2056.430
8521,2044.668
8522,2064.484
8523,2096.700
8524,2134.797
8525,2137.737
8526,2172.894
8527,2179.499
8528,2205.877
8529,2230.764
8530,2221.985
8531,2268.137
8532,2284.969
8533,2314.288
8534,2331.120
8535,2346.504
8536,2356.050
8537,2394.871
8538,2408.039
8539,2394.871
8540,2426.363
8541,2413.195
8542,2412.471
8543,2405.141
8544,2370.709
8545,2382.428
8546,2337.725
8547,2312.072
8548,2294.515
8549,2257.142
8550,2215.380
8551,2186.062
8552,2169.954
8553,2113.533
8554,2091.586
8555,2071.813
8556,2033.716
8557,1976.571
8558,1938.474
8559,1934.809
8560,1886.442
8561,1836.626
8562,1805.134
8563,1785.361
8564,1738.443
8565,1706.951
8566,1688.627
8567,1677.675
8568,1609.535
8569,1591.936
8570,1601.481
8571,1541.395
8572,1550.174
8573,1558.228
8574,1504.747
8575,1537.006
8576,1544.336
8577,1525.287
8578,1551.665
8579,1557.503
8580,1543.569
8581,1590.487
8582,1594.152
8583,1649.081
8584,1629.308
8585,1652.746
8586,1693.059
8587,1697.448
8588,1722.335
8589,1731.880
8590,1737.719
8591,1724.551
8592,1703.286
8593,1693.059
8594,1687.178
8595,1675.459
8596,1606.595
8597,1616.865
8598,1539.179
8599,1497.418
8600,1461.536
8601,1430.045
8602,1400.002
8603,1390.456
8604,1348.737
8605,1293.040
8606,1245.440
8607,1241.008
8608,1244.673
8609,1224.176
8610,1211.733
8611,1185.354
8612,1172.911
8613,1143.593
8614,1123.820
8615,1124.544
8616,1155.311
8617,1156.760
8618,1134.814
8619,1126.760
8620,1131.874
8621,1134.047
8622,1124.544
8623,1098.890
8624,1093.052
8625,1093.777
8626,1033.691
8627,1055.680
8628,1016.858
8629,989.756
8630,1008.080
8631,967.767
8632,939.215
8633,958.988
8634,936.275
8635,921.616
8636,899.627
8637,854.924
8638,846.146
8639,816.870
8640,780.222
8641,815.379
8642,799.995
8643,781.671
8644,755.293
8645,783.162
8646,752.395
8647,785.336
8648,743.574
8649,783.162
8650,771.443
8651,773.617
8652,830.038
8653,807.325
8654,850.535
8655,890.848
8656,909.897
8657,934.783
8658,915.735
8659,992.653
8660,972.880
8661,1046.901
8662,1024.188
8663,1060.069
8664,1114.998
8665,1138.479
8666,1155.311
8667,1146.533
8668,1202.187
8669,1227.841
8670,1209.517
8671,1240.284
8672,1235.895
8673,1269.602
8674,1275.441
8675,1251.278
8676,1220.511
8677,1241.008
8678,1242.500
8679,1203.678
8680,1169.246
8681,1186.079
8682,1167.755
8683,1145.808
8684,1090.112
8685,1069.614
8686,1004.415
8687,1009.529
8688,986.815
8689,947.994
8690,898.178
8691,856.416
8692,823.433
8693,775.833
8694,794.881
8695,761.898
8696,741.400
8697,715.747
8698,668.871
8699,632.223
8700,660.093
8701,609.510
8702,644.709
8703,634.439
8704,592.677
8705,641.769
8706,654.936
8707,646.882
8708,641.769
8709,662.990
8710,692.309
8711,771.443
8712,760.449
8713,826.373
8714,893.789
8715,927.454
8716,943.604
8717,1021.247
8718,1082.058
8719,1111.376
8720,1213.906
8721,1235.170
8722,1323.083
8723,1350.910
8724,1417.601
8725,1436.650
8726,1483.525
8727,1531.850
8728,1570.714
8729,1632.973
8730,1690.119
8731,1682.789
8732,1735.545
8733,1779.480
8734,1775.816
8735,1789.026
8736,1816.129
8737,1831.512
8738,1825.632
8739,1821.242
8740,1838.842
8741,1799.253
8742,1777.307
8743,1756.043
8744,1732.605
8745,1671.795
8746,1674.735
8747,1629.308
8748,1558.995
8749,1505.514
8750,1447.602
8751,1417.601
8752,1363.354
8753,1306.975
8754,1249.830
