'Elapsed time','wrist_ppg'
'hh:mm:ss.mmm','mV'
'0:00.000',1350.186
'0:00.004',1362.629
'0:00.008',1374.348
'0:00.012',1375.839
'0:00.016',1395.612
'0:00.020',1402.218
'0:00.023',1408.056
'0:00.027',1419.775
'0:00.031',1411.721
'0:00.035',1416.110
'0:00.039',1407.331
'0:00.043',1453.482
'0:00.047',1435.158
'0:00.051',1445.428
'0:00.055',1458.596
'0:00.059',1450.542
'0:00.063',1495.244
'0:00.066',1474.704
'0:00.070',1518.682
'0:00.074',1498.185
'0:00.078',1513.568
'0:00.082',1504.747
'0:00.086',1556.055
'0:00.090',1521.622
'0:00.094',1569.947
'0:00.098',1539.179
'0:00.102',1583.882
'0:00.105',1555.330
'0:00.109',1602.930
'0:00.113',1570.714
'0:00.117',1575.828
'0:00.121',1602.930
'0:00.125',1627.092
'0:00.129',1588.995
'0:00.133',1613.925
'0:00.137',1627.859
'0:00.141',1594.152
'0:00.145',1619.038
'0:00.148',1618.314
'0:00.152',1602.930
'0:00.156',1614.649
'0:00.160',1630.033
'0:00.164',1615.373
'0:00.168',1590.487
'0:00.172',1617.589
'0:00.176',1575.828
'0:00.180',1581.666
'0:00.184',1589.762
'0:00.188',1576.552
'0:00.191',1561.168
'0:00.195',1573.612
'0:00.199',1543.569
'0:00.203',1530.401
'0:00.207',1536.282
'0:00.211',1557.503
'0:00.215',1515.017
'0:00.219',1533.341
'0:00.223',1518.682
'0:00.227',1513.568
'0:00.230',1483.525
'0:00.234',1492.304
'0:00.238',1505.514
'0:00.242',1478.369
'0:00.246',1489.364
'0:00.250',1471.082
'0:00.254',1506.963
'0:00.258',1471.806
'0:00.262',1465.926
'0:00.266',1500.358
'0:00.270',1479.136
'0:00.273',1481.309
'0:00.277',1497.418
'0:00.281',1485.699
'0:00.285',1477.645
'0:00.289',1452.034
'0:00.293',1453.482
'0:00.297',1485.699
'0:00.301',1487.915
'0:00.305',1470.315
'0:00.309',1467.417
'0:00.313',1449.093
'0:00.316',1482.801
'0:00.320',1490.131
'0:00.324',1476.920
'0:00.328',1460.812
'0:00.332',1449.818
'0:00.336',1452.034
'0:00.340',1493.753
'0:00.344',1463.752
'0:00.348',1475.471
'0:00.352',1478.369
'0:00.355',1494.520
'0:00.359',1490.855
'0:00.363',1451.266
'0:00.367',1473.255
'0:00.371',1489.364
'0:00.375',1450.542
'0:00.379',1481.309
'0:00.383',1465.201
'0:00.387',1471.806
'0:00.391',1458.596
'0:00.395',1435.158
'0:00.398',1430.045
'0:00.402',1445.428
'0:00.406',1460.088
'0:00.410',1460.812
'0:00.414',1456.423
'0:00.418',1439.548
'0:00.422',1446.153
'0:00.426',1437.374
'0:00.430',1416.110
'0:00.434',1457.872
'0:00.438',1440.272
'0:00.441',1428.553
'0:00.445',1422.715
'0:00.449',1422.715
'0:00.453',1424.164
'0:00.457',1426.380
'0:00.461',1438.099
'0:00.465',1441.039
'0:00.469',1460.088
'0:00.473',1477.645
'0:00.477',1464.477
'0:00.480',1475.471
'0:00.484',1471.806
'0:00.488',1510.628
'0:00.492',1476.196
'0:00.496',1488.639
'0:00.500',1474.704
'0:00.504',1484.974
'0:00.508',1516.466
'0:00.512',1509.136
'0:00.516',1489.364
'0:00.520',1504.023
'0:00.523',1479.861
'0:00.527',1473.980
'0:00.531',1490.131
'0:00.535',1493.028
'0:00.539',1473.980
'0:00.543',1512.801
'0:00.547',1473.980
'0:00.551',1498.909
'0:00.555',1490.855
'0:00.559',1479.861
'0:00.563',1460.812
'0:00.566',1484.974
'0:00.570',1493.753
'0:00.574',1451.266
'0:00.578',1457.147
'0:00.582',1484.250
'0:00.586',1470.315
'0:00.590',1462.261
'0:00.594',1424.888
'0:00.598',1423.439
'0:00.602',1409.505
'0:00.605',1414.661
'0:00.609',1410.272
'0:00.613',1356.791
'0:00.617',1380.229
'0:00.621',1319.418
'0:00.625',1331.862
'0:00.629',1305.484
'0:00.633',1277.657
'0:00.637',1253.494
'0:00.641',1213.906
'0:00.645',1178.025
'0:00.648',1167.030
'0:00.652',1141.377
'0:00.656',1112.101
'0:00.660',1046.901
'0:00.664',1068.123
'0:00.668',1030.026
'0:00.672',1027.853
'0:00.676',1008.080
'0:00.680',993.420
'0:00.684',994.145
'0:00.688',989.756
'0:00.691',965.551
'0:00.695',992.653
'0:00.699',986.091
'0:00.703',997.085
'0:00.707',1036.631
'0:00.711',1028.577
'0:00.715',1059.344
'0:00.719',1082.782
'0:00.723',1071.788
'0:00.727',1120.155
'0:00.730',1168.479
'0:00.734',1195.624
'0:00.738',1185.354
'0:00.742',1241.775
'0:00.746',1299.645
'0:00.750',1330.413
'0:00.754',1367.785
'0:00.758',1376.564
'0:00.762',1392.672
'0:00.766',1462.985
'0:00.770',1481.309
'0:00.773',1491.579
'0:00.777',1538.455
'0:00.781',1561.893
'0:00.785',1579.492
'0:00.789',1603.655
'0:00.793',1629.308
'0:00.797',1649.081
'0:00.801',1661.525
'0:00.805',1668.130
'0:00.809',1698.173
'0:00.813',1703.286
'0:00.816',1703.286
'0:00.820',1707.676
'0:00.824',1701.838
'0:00.828',1696.724
'0:00.832',1688.627
'0:00.836',1665.189
'0:00.840',1640.303
'0:00.844',1636.638
'0:00.848',1632.973
'0:00.852',1571.438
'0:00.855',1575.103
'0:00.859',1545.060
'0:00.863',1553.839
'0:00.867',1532.617
'0:00.871',1518.682
'0:00.875',1493.753
'0:00.879',1476.920
'0:00.883',1428.553
'0:00.887',1414.661
'0:00.891',1427.104
'0:00.895',1378.737
'0:00.898',1393.397
'0:00.902',1360.456
'0:00.906',1385.342
'0:00.910',1342.132
'0:00.914',1375.072
'0:00.918',1332.586
'0:00.922',1364.845
'0:00.926',1336.251
'0:00.930',1354.575
'0:00.934',1323.808
'0:00.938',1356.791
'0:00.941',1327.472
'0:00.945',1353.126
'0:00.949',1315.754
'0:00.953',1343.581
'0:00.957',1321.592
'0:00.961',1323.808
'0:00.965',1321.592
'0:00.969',1298.921
'0:00.973',1337.742
'0:00.977',1330.413
'0:00.980',1287.927
'0:00.984',1329.688
'0:00.988',1309.873
'0:00.992',1282.046
'0:00.996',1319.418
'0:01.000',1279.105
'0:01.004',1316.478
'0:01.008',1284.262
'0:01.012',1270.327
'0:01.016',1315.754
'0:01.020',1302.543
'0:01.023',1321.592
'0:01.027',1301.094
'0:01.031',1295.981
'0:01.035',1329.688
'0:01.039',1347.970
'0:01.043',1361.905
'0:01.047',1366.294
'0:01.051',1348.737
'0:01.055',1371.408
'0:01.059',1352.402
'0:01.063',1364.845
'0:01.066',1384.618
'0:01.070',1371.408
'0:01.074',1410.272
'0:01.078',1422.715
'0:01.082',1432.218
'0:01.086',1428.553
'0:01.090',1434.434
'0:01.094',1433.709
'0:01.098',1432.218
'0:01.102',1439.548
'0:01.105',1410.272
'0:01.109',1399.277
'0:01.113',1405.115
'0:01.117',1441.764
'0:01.121',1441.039
'0:01.125',1432.985
'0:01.129',1416.834
'0:01.133',1417.601
'0:01.137',1397.061
'0:01.141',1397.786
'0:01.145',1403.667
'0:01.148',1410.272
'0:01.152',1427.104
'0:01.156',1428.553
'0:01.160',1429.320
'0:01.164',1424.888
'0:01.168',1388.283
'0:01.172',1402.218
'0:01.176',1372.899
'0:01.180',1376.564
'0:01.184',1380.953
'0:01.188',1402.942
'0:01.191',1405.840
'0:01.195',1386.067
'0:01.199',1367.018
'0:01.203',1370.683
'0:01.207',1400.002
'0:01.211',1390.456
'0:01.215',1399.277
'0:01.219',1393.397
'0:01.223',1367.018
'0:01.227',1363.354
'0:01.230',1400.002
'0:01.234',1406.607
'0:01.238',1400.002
'0:01.242',1375.839
'0:01.246',1408.056
'0:01.250',1428.553
'0:01.254',1399.277
'0:01.258',1430.045
'0:01.262',1448.369
'0:01.266',1453.482
'0:01.270',1433.709
'0:01.273',1431.494
'0:01.277',1467.417
'0:01.281',1475.471
'0:01.285',1470.315
'0:01.289',1453.482
'0:01.293',1449.093
'0:01.297',1418.326
'0:01.301',1435.158
'0:01.305',1435.158
'0:01.309',1428.553
'0:01.313',1420.499
'0:01.316',1410.272
'0:01.320',1394.121
'0:01.324',1353.126
'0:01.328',1361.905
'0:01.332',1376.564
'0:01.336',1372.175
'0:01.340',1379.504
'0:01.344',1350.186
'0:01.348',1329.688
'0:01.352',1342.856
'0:01.355',1344.305
'0:01.359',1353.126
'0:01.363',1367.785
'0:01.367',1362.629
'0:01.371',1311.364
'0:01.375',1343.581
'0:01.379',1303.310
'0:01.383',1328.921
'0:01.387',1314.305
'0:01.391',1276.932
'0:01.395',1287.927
'0:01.398',1308.424
'0:01.402',1301.094
'0:01.406',1261.548
'0:01.410',1258.608
'0:01.414',1279.872
'0:01.418',1268.878
'0:01.422',1281.321
'0:01.426',1319.418
'0:01.430',1334.078
'0:01.434',1356.024
'0:01.438',1369.959
'0:01.441',1398.553
'0:01.445',1425.655
'0:01.449',1411.721
'0:01.453',1443.937
'0:01.457',1460.088
'0:01.461',1502.574
'0:01.465',1501.849
'0:01.469',1520.898
'0:01.473',1544.336
'0:01.477',1543.569
'0:01.480',1566.282
'0:01.484',1583.157
'0:01.488',1567.773
'0:01.492',1554.563
'0:01.496',1561.893
'0:01.500',1558.995
'0:01.504',1565.558
'0:01.508',1506.963
'0:01.512',1528.185
'0:01.516',1474.704
'0:01.520',1467.417
'0:01.523',1468.142
'0:01.527',1428.553
'0:01.531',1451.266
'0:01.535',1400.726
'0:01.539',1404.391
'0:01.543',1389.007
'0:01.547',1379.504
'0:01.551',1361.180
'0:01.555',1327.472
'0:01.559',1295.981
'0:01.563',1313.538
'0:01.566',1299.645
'0:01.570',1251.278
'0:01.574',1226.392
'0:01.578',1246.889
'0:01.582',1195.624
'0:01.586',1225.625
'0:01.590',1211.008
'0:01.594',1197.073
'0:01.598',1182.414
'0:01.602',1161.917
'0:01.605',1134.814
'0:01.609',1125.268
'0:01.613',1124.544
'0:01.617',1129.658
'0:01.621',1116.490
'0:01.625',1103.280
'0:01.629',1097.441
'0:01.633',1102.555
'0:01.637',1112.825
'0:01.641',1117.214
'0:01.645',1118.663
'0:01.648',1122.328
'0:01.652',1128.933
'0:01.656',1130.382
'0:01.660',1134.047
'0:01.664',1134.047
'0:01.668',1127.484
'0:01.672',1134.814
'0:01.676',1138.479
'0:01.680',1148.706
'0:01.684',1150.198
'0:01.688',1139.928
'0:01.691',1139.203
'0:01.695',1180.965
'0:01.699',1178.025
'0:01.703',1177.300
'0:01.707',1223.451
'0:01.711',1213.181
'0:01.715',1261.548
'0:01.719',1246.165
'0:01.723',1306.975
'0:01.727',1315.754
'0:01.730',1344.305
'0:01.734',1347.245
'0:01.738',1418.326
'0:01.742',1432.218
'0:01.746',1435.158
'0:01.750',1491.579
'0:01.754',1499.634
'0:01.758',1550.898
'0:01.762',1577.276
'0:01.766',1611.709
'0:01.770',1621.979
'0:01.773',1623.428
'0:01.777',1621.254
'0:01.781',1675.459
'0:01.785',1663.016
'0:01.789',1663.740
'0:01.793',1649.806
'0:01.797',1648.357
'0:01.801',1671.795
'0:01.805',1684.238
'0:01.809',1665.914
'0:01.813',1663.016
'0:01.816',1643.968
'0:01.820',1654.962
'0:01.824',1638.087
'0:01.828',1597.049
'0:01.832',1591.936
'0:01.836',1581.666
'0:01.840',1577.276
'0:01.844',1588.995
'0:01.848',1567.773
'0:01.852',1526.012
'0:01.855',1523.796
'0:01.859',1550.898
'0:01.863',1499.634
'0:01.867',1529.676
'0:01.871',1487.915
'0:01.875',1489.364
'0:01.879',1498.909
'0:01.883',1464.477
'0:01.887',1477.645
'0:01.891',1476.920
'0:01.895',1441.039
'0:01.898',1433.709
'0:01.902',1468.866
'0:01.906',1431.494
'0:01.910',1426.380
'0:01.914',1446.877
'0:01.918',1449.818
'0:01.922',1424.888
'0:01.926',1409.505
'0:01.930',1407.331
'0:01.934',1409.505
'0:01.938',1426.380
'0:01.941',1424.164
'0:01.945',1422.715
'0:01.949',1426.380
'0:01.953',1430.045
'0:01.957',1462.985
'0:01.961',1421.991
'0:01.965',1457.872
'0:01.969',1469.591
'0:01.973',1459.321
'0:01.977',1447.602
'0:01.980',1441.039
'0:01.984',1442.488
'0:01.988',1455.698
'0:01.992',1476.196
'0:01.996',1443.937
'0:02.000',1473.980
'0:02.004',1445.428
'0:02.008',1478.369
'0:02.012',1476.196
'0:02.016',1486.466
'0:02.020',1447.602
'0:02.023',1465.201
'0:02.027',1468.142
'0:02.031',1449.093
'0:02.035',1483.525
'0:02.039',1441.039
'0:02.043',1475.471
'0:02.047',1435.883
'0:02.051',1476.196
'0:02.055',1447.602
'0:02.059',1431.494
'0:02.063',1461.536
'0:02.066',1452.034
'0:02.070',1441.039
'0:02.074',1439.548
'0:02.078',1429.320
'0:02.082',1416.110
'0:02.086',1436.650
'0:02.090',1424.888
'0:02.094',1408.780
'0:02.098',1440.272
'0:02.102',1441.764
'0:02.105',1410.272
'0:02.109',1458.596
'0:02.113',1424.164
'0:02.117',1452.758
'0:02.121',1438.823
'0:02.125',1430.769
'0:02.129',1465.201
'0:02.133',1436.650
'0:02.137',1429.320
'0:02.141',1465.926
'0:02.145',1429.320
'0:02.148',1471.082
'0:02.152',1434.434
'0:02.156',1448.369
'0:02.160',1469.591
'0:02.164',1430.769
'0:02.168',1465.926
'0:02.172',1417.601
'0:02.176',1454.207
'0:02.180',1419.050
'0:02.184',1391.223
'0:02.188',1373.624
'0:02.191',1362.629
'0:02.195',1360.456
'0:02.199',1343.581
'0:02.203',1289.375
'0:02.207',1251.278
'0:02.211',1260.824
'0:02.215',1222.727
'0:02.219',1182.414
'0:02.223',1166.306
'0:02.227',1136.987
'0:02.230',1098.166
'0:02.234',1069.614
'0:02.238',1091.561
'0:02.242',1061.518
'0:02.246',1068.847
'0:02.250',1070.339
'0:02.254',1043.236
'0:02.258',1092.328
'0:02.262',1105.496
'0:02.266',1087.896
'0:02.270',1106.944
'0:02.273',1144.317
'0:02.277',1200.738
'0:02.281',1218.295
'0:02.285',1246.165
'0:02.289',1241.008
'0:02.293',1308.424
'0:02.297',1297.430
'0:02.301',1342.856
'0:02.305',1334.802
'0:02.309',1357.515
'0:02.313',1372.899
'0:02.316',1393.397
'0:02.320',1407.331
'0:02.324',1421.266
'0:02.328',1471.806
'0:02.332',1475.471
'0:02.336',1456.423
'0:02.340',1484.974
'0:02.344',1498.909
'0:02.348',1474.704
'0:02.352',1508.412
'0:02.355',1481.309
'0:02.359',1503.298
'0:02.363',1479.136
'0:02.367',1521.622
'0:02.371',1506.963
'0:02.375',1479.861
'0:02.379',1476.920
'0:02.383',1514.293
'0:02.387',1496.693
'0:02.391',1487.915
'0:02.395',1502.574
'0:02.398',1472.531
'0:02.402',1481.309
'0:02.406',1457.147
'0:02.410',1471.082
'0:02.414',1446.153
'0:02.418',1468.866
'0:02.422',1465.926
'0:02.426',1434.434
'0:02.430',1419.050
'0:02.434',1403.667
'0:02.438',1397.061
'0:02.441',1374.348
'0:02.445',1358.964
'0:02.449',1345.072
'0:02.453',1350.910
'0:02.457',1368.510
'0:02.461',1316.478
'0:02.465',1350.910
'0:02.469',1315.029
'0:02.473',1350.910
'0:02.477',1317.970
'0:02.480',1346.521
'0:02.484',1376.564
'0:02.488',1375.839
'0:02.492',1369.234
'0:02.496',1388.283
'0:02.500',1443.937
'0:02.504',1474.704
'0:02.508',1472.531
'0:02.512',1508.412
'0:02.516',1529.676
'0:02.520',1548.001
'0:02.523',1590.487
'0:02.527',1623.428
'0:02.531',1598.541
'0:02.535',1605.871
'0:02.539',1612.433
'0:02.543',1626.368
'0:02.547',1610.984
'0:02.551',1621.254
'0:02.555',1612.433
'0:02.559',1545.785
'0:02.563',1555.330
'0:02.566',1485.699
'0:02.570',1441.039
'0:02.574',1400.726
'0:02.578',1385.342
'0:02.582',1315.029
'0:02.586',1290.824
'0:02.590',1238.111
'0:02.594',1191.193
'0:02.598',1111.376
'0:02.602',1095.950
'0:02.605',1041.745
'0:02.609',1005.864
'0:02.613',983.150
'0:02.617',944.329
'0:02.621',925.280
'0:02.625',884.243
'0:02.629',842.481
'0:02.633',874.740
'0:02.637',871.800
'0:02.641',837.367
'0:02.645',862.254
'0:02.648',892.297
'0:02.652',912.070
'0:02.656',931.119
'0:02.660',920.891
'0:02.664',992.653
'0:02.668',1011.702
'0:02.672',1026.361
'0:02.676',1068.847
'0:02.680',1124.544
'0:02.684',1175.809
'0:02.688',1244.673
'0:02.691',1282.770
'0:02.695',1336.251
'0:02.699',1358.240
'0:02.703',1389.007
'0:02.707',1446.877
'0:02.711',1508.412
'0:02.715',1531.850
'0:02.719',1580.217
'0:02.723',1614.649
'0:02.727',1619.038
'0:02.730',1646.141
'0:02.734',1692.292
'0:02.738',1678.400
'0:02.742',1728.216
'0:02.746',1730.389
'0:02.750',1726.724
'0:02.754',1756.767
'0:02.758',1736.994
'0:02.762',1726.724
'0:02.766',1735.545
'0:02.770',1712.108
'0:02.773',1728.940
'0:02.777',1712.832
'0:02.781',1690.843
'0:02.785',1668.130
'0:02.789',1670.346
'0:02.793',1649.806
'0:02.797',1605.871
'0:02.801',1572.163
'0:02.805',1561.168
'0:02.809',1522.347
'0:02.813',1465.201
'0:02.816',1450.542
'0:02.820',1407.331
'0:02.824',1378.013
'0:02.828',1350.910
'0:02.832',1325.257
'0:02.836',1318.694
'0:02.840',1306.975
'0:02.844',1284.986
'0:02.848',1239.560
'0:02.852',1243.224
'0:02.855',1256.392
'0:02.859',1251.278
'0:02.863',1241.008
'0:02.867',1243.224
'0:02.871',1245.440
'0:02.875',1248.338
'0:02.879',1256.392
'0:02.883',1256.392
'0:02.887',1248.338
'0:02.891',1264.489
'0:02.895',1287.160
'0:02.898',1286.435
'0:02.902',1282.046
'0:02.906',1297.430
'0:02.910',1324.532
'0:02.914',1349.461
'0:02.918',1346.521
'0:02.922',1364.845
'0:02.926',1397.786
'0:02.930',1415.385
'0:02.934',1434.434
'0:02.938',1438.099
'0:02.941',1416.110
'0:02.945',1438.099
'0:02.949',1477.645
'0:02.953',1452.758
'0:02.957',1480.585
'0:02.961',1479.136
'0:02.965',1520.898
'0:02.969',1486.466
'0:02.973',1514.293
'0:02.977',1543.569
'0:02.980',1507.688
'0:02.984',1530.401
'0:02.988',1562.617
'0:02.992',1526.736
'0:02.996',1564.109
'0:03.000',1528.952
'0:03.004',1545.785
'0:03.008',1551.665
'0:03.012',1569.947
'0:03.016',1541.395
'0:03.020',1561.893
'0:03.023',1535.515
'0:03.027',1546.509
'0:03.031',1511.352
'0:03.035',1538.455
'0:03.039',1506.963
'0:03.043',1520.898
'0:03.047',1489.364
'0:03.051',1498.185
'0:03.055',1466.650
'0:03.059',1498.185
'0:03.063',1456.423
'0:03.066',1463.752
'0:03.070',1446.877
'0:03.074',1422.715
'0:03.078',1454.931
'0:03.082',1433.709
'0:03.086',1416.834
'0:03.090',1392.672
'0:03.094',1398.553
'0:03.098',1376.564
'0:03.102',1354.575
'0:03.105',1367.785
'0:03.109',1351.635
'0:03.113',1350.910
'0:03.117',1347.970
'0:03.121',1309.148
'0:03.125',1314.305
'0:03.129',1328.921
'0:03.133',1315.754
'0:03.137',1268.111
'0:03.141',1301.819
'0:03.145',1280.597
'0:03.148',1270.327
'0:03.152',1253.494
'0:03.156',1269.602
'0:03.160',1279.872
'0:03.164',1289.375
'0:03.168',1249.105
'0:03.172',1251.278
'0:03.176',1266.662
'0:03.180',1279.105
'0:03.184',1287.927
'0:03.188',1295.981
'0:03.191',1296.705
'0:03.195',1295.981
'0:03.199',1295.981
'0:03.203',1267.387
'0:03.207',1290.824
'0:03.211',1295.981
'0:03.215',1310.640
'0:03.219',1304.035
'0:03.223',1305.484
'0:03.227',1311.364
'0:03.230',1318.694
'0:03.234',1309.148
'0:03.238',1307.700
'0:03.242',1331.137
'0:03.246',1324.532
'0:03.250',1330.413
'0:03.254',1329.688
'0:03.258',1352.402
'0:03.262',1339.916
'0:03.266',1397.786
'0:03.270',1409.505
'0:03.273',1399.277
'0:03.277',1435.883
'0:03.281',1421.991
'0:03.285',1469.591
'0:03.289',1457.872
'0:03.293',1489.364
'0:03.297',1528.185
'0:03.301',1548.001
'0:03.305',1534.790
'0:03.309',1535.515
'0:03.313',1547.233
'0:03.316',1577.276
'0:03.320',1589.762
'0:03.324',1575.828
'0:03.328',1561.893
'0:03.332',1549.449
'0:03.336',1568.498
'0:03.340',1578.001
'0:03.344',1528.185
'0:03.348',1537.006
'0:03.352',1556.055
'0:03.355',1527.461
'0:03.359',1502.574
'0:03.363',1527.461
'0:03.367',1501.082
'0:03.371',1538.455
'0:03.375',1509.136
'0:03.379',1498.909
'0:03.383',1538.455
'0:03.387',1532.617
'0:03.391',1535.515
'0:03.395',1567.773
'0:03.398',1550.898
'0:03.402',1560.444
'0:03.406',1567.049
'0:03.410',1595.601
'0:03.414',1617.589
'0:03.418',1641.752
'0:03.422',1651.297
'0:03.426',1660.076
'0:03.430',1671.795
'0:03.434',1676.184
'0:03.438',1674.011
'0:03.441',1679.849
'0:03.445',1675.459
'0:03.449',1677.675
'0:03.453',1674.011
'0:03.457',1669.579
'0:03.461',1649.081
'0:03.465',1636.638
'0:03.469',1604.379
'0:03.473',1589.762
'0:03.477',1579.492
'0:03.480',1561.893
'0:03.484',1558.995
'0:03.488',1513.568
'0:03.492',1509.136
'0:03.496',1482.801
'0:03.500',1468.866
'0:03.504',1471.082
'0:03.508',1427.829
'0:03.512',1447.602
'0:03.516',1419.775
'0:03.520',1413.937
'0:03.523',1383.894
'0:03.527',1426.380
'0:03.531',1413.937
'0:03.535',1407.331
'0:03.539',1405.115
'0:03.543',1413.169
'0:03.547',1421.266
'0:03.551',1449.093
'0:03.555',1452.758
'0:03.559',1491.579
'0:03.563',1460.812
'0:03.566',1494.520
'0:03.570',1530.401
'0:03.574',1537.006
'0:03.578',1553.839
'0:03.582',1553.839
'0:03.586',1536.282
'0:03.590',1571.438
'0:03.594',1590.487
'0:03.598',1586.822
'0:03.602',1584.606
'0:03.605',1585.331
'0:03.609',1561.893
'0:03.613',1558.995
'0:03.617',1593.427
'0:03.621',1576.552
'0:03.625',1550.174
'0:03.629',1542.120
'0:03.633',1539.946
'0:03.637',1552.390
'0:03.641',1543.569
'0:03.645',1555.330
'0:03.648',1503.298
'0:03.652',1502.574
'0:03.656',1526.012
'0:03.660',1482.034
'0:03.664',1468.142
'0:03.668',1494.520
'0:03.672',1448.369
'0:03.676',1468.142
'0:03.680',1438.099
'0:03.684',1416.834
'0:03.688',1427.829
'0:03.691',1386.067
'0:03.695',1411.721
'0:03.699',1401.451
'0:03.703',1386.834
'0:03.707',1376.564
'0:03.711',1367.018
'0:03.715',1363.354
'0:03.719',1358.240
'0:03.723',1333.353
'0:03.727',1326.748
'0:03.730',1343.581
'0:03.734',1309.873
'0:03.738',1338.467
'0:03.742',1297.430
'0:03.746',1322.359
'0:03.750',1294.489
'0:03.754',1331.137
'0:03.758',1318.694
'0:03.762',1290.824
'0:03.766',1306.975
'0:03.770',1329.688
'0:03.773',1294.489
'0:03.777',1314.305
'0:03.781',1328.921
'0:03.785',1327.472
'0:03.789',1326.024
'0:03.793',1320.867
'0:03.797',1326.024
'0:03.801',1284.986
'0:03.805',1306.975
'0:03.809',1309.148
'0:03.813',1271.051
'0:03.816',1273.267
'0:03.820',1293.765
'0:03.824',1308.424
'0:03.828',1282.770
'0:03.832',1274.716
'0:03.836',1269.602
'0:03.840',1268.111
'0:03.844',1283.537
'0:03.848',1276.208
'0:03.852',1279.105
'0:03.855',1287.927
'0:03.859',1297.430
'0:03.863',1309.873
'0:03.867',1309.873
'0:03.871',1315.754
'0:03.875',1318.694
'0:03.879',1326.024
'0:03.883',1315.754
'0:03.887',1306.975
'0:03.891',1323.083
'0:03.895',1328.921
'0:03.898',1325.257
'0:03.902',1302.543
'0:03.906',1285.711
'0:03.910',1311.364
'0:03.914',1307.700
'0:03.918',1293.040
'0:03.922',1293.765
'0:03.926',1317.202
'0:03.930',1277.657
'0:03.934',1314.305
'0:03.938',1311.364
'0:03.941',1287.160
'0:03.945',1308.424
'0:03.949',1290.824
'0:03.953',1315.029
'0:03.957',1314.305
'0:03.961',1298.154
'0:03.965',1326.748
'0:03.969',1348.737
'0:03.973',1347.970
'0:03.977',1312.813
'0:03.980',1330.413
'0:03.984',1356.791
'0:03.988',1361.905
'0:03.992',1320.867
'0:03.996',1336.975
'0:04.000',1339.191
'0:04.004',1349.461
'0:04.008',1363.354
'0:04.012',1359.689
'0:04.016',1334.078
'0:04.020',1330.413
'0:04.023',1329.688
'0:04.027',1308.424
'0:04.031',1293.765
'0:04.035',1288.651
'0:04.039',1276.932
'0:04.043',1287.160
'0:04.047',1246.889
'0:04.051',1254.219
'0:04.055',1233.679
'0:04.059',1254.943
'0:04.063',1226.392
'0:04.066',1234.446
'0:04.070',1235.895
'0:04.074',1205.127
'0:04.078',1190.468
'0:04.082',1213.181
'0:04.086',1175.084
'0:04.090',1208.792
'0:04.094',1190.468
'0:04.098',1180.241
'0:04.102',1161.917
'0:04.105',1159.701
'0:04.109',1191.193
'0:04.113',1167.755
'0:04.117',1150.922
'0:04.121',1196.349
'0:04.125',1169.246
'0:04.129',1167.755
'0:04.133',1197.073
'0:04.137',1205.127
'0:04.141',1224.176
'0:04.145',1224.900
'0:04.148',1246.889
'0:04.152',1268.111
'0:04.156',1326.024
'0:04.160',1361.180
'0:04.164',1390.456
'0:04.168',1428.553
'0:04.172',1444.704
'0:04.176',1528.185
'0:04.180',1575.103
'0:04.184',1617.589
'0:04.188',1679.849
'0:04.191',1701.113
'0:04.195',1789.750
'0:04.199',1813.913
'0:04.203',1892.323
'0:04.207',1939.198
'0:04.211',1977.295
'0:04.215',1999.284
'0:04.219',2040.279
'0:04.223',2087.921
'0:04.227',2122.354
'0:04.230',2128.959
'0:04.234',2114.300
'0:04.238',2126.743
'0:04.242',2113.533
'0:04.246',2104.754
'0:04.250',2076.927
'0:04.254',2018.333
'0:04.258',1992.679
'0:04.262',1936.982
'0:04.266',1865.944
'0:04.270',1796.356
'0:04.273',1770.702
'0:04.277',1676.184
'0:04.281',1616.098
'0:04.285',1515.017
'0:04.289',1469.591
'0:04.293',1393.397
'0:04.297',1328.921
'0:04.301',1224.176
'0:04.305',1164.090
'0:04.309',1119.430
'0:04.313',1020.523
'0:04.316',1002.199
'0:04.320',947.994
'0:04.324',909.897
'0:04.328',865.919
'0:04.332',804.384
'0:04.336',808.049
'0:04.340',750.179
'0:04.344',751.628
'0:04.348',759.725
'0:04.352',764.838
'0:04.355',757.509
'0:04.359',765.563
'0:04.363',789.000
'0:04.367',802.211
'0:04.371',804.384
'0:04.375',871.800
'0:04.379',910.621
'0:04.383',945.053
'0:04.387',980.934
'0:04.391',1000.750
'0:04.395',1062.285
'0:04.398',1098.890
'0:04.402',1166.306
'0:04.406',1186.079
'0:04.410',1268.111
'0:04.414',1293.765
'0:04.418',1315.754
'0:04.422',1358.240
'0:04.426',1399.277
'0:04.430',1443.937
'0:04.434',1518.682
'0:04.438',1511.352
'0:04.441',1551.665
'0:04.445',1597.049
'0:04.449',1599.990
'0:04.453',1602.206
'0:04.457',1620.530
'0:04.461',1638.087
'0:04.465',1643.968
'0:04.469',1649.806
'0:04.473',1649.806
'0:04.477',1648.357
'0:04.480',1641.027
'0:04.484',1624.919
'0:04.488',1631.482
'0:04.492',1578.001
'0:04.496',1594.876
'0:04.500',1534.790
'0:04.504',1550.174
'0:04.508',1511.352
'0:04.512',1498.185
'0:04.516',1472.531
'0:04.520',1409.505
'0:04.523',1414.661
'0:04.527',1369.234
'0:04.531',1375.839
'0:04.535',1317.202
'0:04.539',1309.148
'0:04.543',1307.700
'0:04.547',1279.105
'0:04.551',1258.608
'0:04.555',1243.224
'0:04.559',1213.906
'0:04.563',1220.511
'0:04.566',1212.457
'0:04.570',1205.127
'0:04.574',1214.673
'0:04.578',1204.403
'0:04.582',1208.792
'0:04.586',1201.463
'0:04.590',1196.349
'0:04.594',1211.008
'0:04.598',1219.062
'0:04.602',1218.295
'0:04.605',1232.230
'0:04.609',1240.284
'0:04.613',1221.960
'0:04.617',1268.878
'0:04.621',1282.046
'0:04.625',1254.943
'0:04.629',1303.310
'0:04.633',1293.765
'0:04.637',1312.089
'0:04.641',1312.813
'0:04.645',1363.354
'0:04.648',1343.581
'0:04.652',1350.910
'0:04.656',1367.785
'0:04.660',1388.283
'0:04.664',1400.726
'0:04.668',1418.326
'0:04.672',1467.417
'0:04.676',1483.525
'0:04.680',1464.477
'0:04.684',1488.639
'0:04.688',1512.077
'0:04.691',1481.309
'0:04.695',1526.736
'0:04.699',1493.753
'0:04.703',1517.958
'0:04.707',1521.622
'0:04.711',1498.185
'0:04.715',1517.233
'0:04.719',1525.287
'0:04.723',1528.185
'0:04.727',1479.136
'0:04.730',1483.525
'0:04.734',1479.136
'0:04.738',1469.591
'0:04.742',1490.855
'0:04.746',1440.272
'0:04.750',1464.477
'0:04.754',1442.488
'0:04.758',1454.931
'0:04.762',1424.888
'0:04.766',1404.391
'0:04.770',1417.601
'0:04.773',1382.402
'0:04.777',1405.840
'0:04.781',1372.175
'0:04.785',1397.786
'0:04.789',1364.121
'0:04.793',1356.024
'0:04.797',1383.894
'0:04.801',1343.581
'0:04.805',1373.624
'0:04.809',1349.461
'0:04.813',1359.689
'0:04.816',1337.742
'0:04.820',1322.359
'0:04.824',1364.121
'0:04.828',1331.137
'0:04.832',1362.629
'0:04.836',1328.197
'0:04.840',1317.970
'0:04.844',1350.910
'0:04.848',1364.845
'0:04.852',1331.137
'0:04.855',1326.748
'0:04.859',1370.683
'0:04.863',1333.353
'0:04.867',1376.564
'0:04.871',1352.402
'0:04.875',1345.072
'0:04.879',1353.126
'0:04.883',1393.397
'0:04.887',1369.234
'0:04.891',1358.240
'0:04.895',1390.456
'0:04.898',1367.018
'0:04.902',1416.834
'0:04.906',1409.505
'0:04.910',1382.402
'0:04.914',1413.937
'0:04.918',1382.402
'0:04.922',1400.726
'0:04.926',1403.667
'0:04.930',1379.504
'0:04.934',1387.558
'0:04.938',1367.018
'0:04.941',1361.905
'0:04.945',1361.905
'0:04.949',1342.132
'0:04.953',1302.543
'0:04.957',1318.694
'0:04.961',1313.538
'0:04.965',1274.716
'0:04.969',1288.651
'0:04.973',1273.267
'0:04.977',1232.954
'0:04.980',1232.954
'0:04.984',1238.111
'0:04.988',1198.522
'0:04.992',1207.343
'0:04.996',1216.122
'0:05.000',1195.624
'0:05.004',1194.857
'0:05.008',1178.749
'0:05.012',1171.420
'0:05.016',1169.971
'0:05.020',1171.420
'0:05.023',1207.343
'0:05.027',1197.798
'0:05.031',1180.241
'0:05.035',1205.852
'0:05.039',1227.841
'0:05.043',1235.895
'0:05.047',1224.176
'0:05.051',1270.327
'0:05.055',1273.992
'0:05.059',1313.538
'0:05.063',1339.916
'0:05.066',1335.527
'0:05.070',1371.408
'0:05.074',1359.689
'0:05.078',1413.937
'0:05.082',1425.655
'0:05.086',1415.385
'0:05.090',1433.709
'0:05.094',1489.364
'0:05.098',1461.536
'0:05.102',1487.190
'0:05.105',1508.412
'0:05.109',1520.131
'0:05.113',1526.012
'0:05.117',1535.515
'0:05.121',1552.390
'0:05.125',1559.719
'0:05.129',1571.438
'0:05.133',1573.612
'0:05.137',1589.762
'0:05.141',1591.211
'0:05.145',1580.217
'0:05.148',1548.725
'0:05.152',1572.163
'0:05.156',1580.941
'0:05.160',1544.336
'0:05.164',1534.066
'0:05.168',1548.001
'0:05.172',1544.336
'0:05.176',1509.904
'0:05.180',1509.136
'0:05.184',1503.298
'0:05.188',1505.514
'0:05.191',1512.077
'0:05.195',1479.861
'0:05.199',1471.082
'0:05.203',1430.769
'0:05.207',1446.877
'0:05.211',1419.050
'0:05.215',1380.953
'0:05.219',1348.737
'0:05.223',1326.748
'0:05.227',1320.867
'0:05.230',1260.057
'0:05.234',1270.327
'0:05.238',1216.846
'0:05.242',1191.960
'0:05.246',1134.047
'0:05.250',1132.598
'0:05.254',1120.155
'0:05.258',1092.328
'0:05.262',1054.955
'0:05.266',1005.864
'0:05.270',1029.301
'0:05.273',975.821
'0:05.277',989.031
'0:05.281',991.929
'0:05.285',971.431
'0:05.289',947.269
'0:05.293',977.270
'0:05.297',960.437
'0:05.301',955.323
'0:05.305',946.502
'0:05.309',991.929
'0:05.313',963.377
'0:05.316',1011.702
'0:05.320',997.810
'0:05.324',1010.977
'0:05.328',1030.026
'0:05.332',1046.134
'0:05.336',1075.453
'0:05.340',1114.274
'0:05.344',1123.095
'0:05.348',1152.371
'0:05.352',1188.295
'0:05.355',1217.571
'0:05.359',1217.571
'0:05.363',1258.608
'0:05.367',1252.003
'0:05.371',1292.316
'0:05.375',1326.748
'0:05.379',1367.018
'0:05.383',1382.402
'0:05.387',1383.169
'0:05.391',1386.834
'0:05.395',1449.818
'0:05.398',1441.039
'0:05.402',1487.190
'0:05.406',1471.082
'0:05.410',1504.747
'0:05.414',1545.785
'0:05.418',1534.066
'0:05.422',1545.060
'0:05.426',1572.163
'0:05.430',1611.709
'0:05.434',1585.331
'0:05.438',1634.422
'0:05.441',1679.849
'0:05.445',1655.686
'0:05.449',1654.195
'0:05.453',1668.854
'0:05.457',1679.849
'0:05.461',1643.968
'0:05.465',1646.865
'0:05.469',1671.070
'0:05.473',1640.303
'0:05.477',1657.135
'0:05.480',1616.098
'0:05.484',1630.757
'0:05.488',1630.033
'0:05.492',1593.427
'0:05.496',1584.606
'0:05.500',1602.930
'0:05.504',1568.498
'0:05.508',1548.725
'0:05.512',1550.174
'0:05.516',1575.103
'0:05.520',1525.287
'0:05.523',1557.503
'0:05.527',1512.077
'0:05.531',1546.509
'0:05.535',1539.946
'0:05.539',1508.412
'0:05.543',1484.974
'0:05.547',1523.071
'0:05.551',1495.969
'0:05.555',1474.704
'0:05.559',1501.849
'0:05.563',1498.185
'0:05.566',1464.477
'0:05.570',1507.688
'0:05.574',1503.298
'0:05.578',1484.974
'0:05.582',1524.563
'0:05.586',1492.304
'0:05.590',1541.395
'0:05.594',1509.904
'0:05.598',1540.671
'0:05.602',1547.233
'0:05.605',1537.731
'0:05.609',1567.049
'0:05.613',1553.839
'0:05.617',1552.390
'0:05.621',1548.001
'0:05.625',1535.515
'0:05.629',1578.001
'0:05.633',1539.946
'0:05.637',1544.336
'0:05.641',1572.887
'0:05.645',1534.790
'0:05.648',1545.060
'0:05.652',1558.228
'0:05.656',1538.455
'0:05.660',1510.628
'0:05.664',1500.358
'0:05.668',1505.514
'0:05.672',1504.747
'0:05.676',1511.352
'0:05.680',1500.358
'0:05.684',1490.855
'0:05.688',1478.369
'0:05.691',1429.320
'0:05.695',1450.542
'0:05.699',1432.218
'0:05.703',1391.223
'0:05.707',1399.277
'0:05.711',1369.234
'0:05.715',1329.688
'0:05.719',1343.581
'0:05.723',1316.478
'0:05.727',1285.711
'0:05.730',1295.981
'0:05.734',1286.435
'0:05.738',1251.278
'0:05.742',1232.230
'0:05.746',1271.051
'0:05.750',1251.278
'0:05.754',1238.111
'0:05.758',1226.392
'0:05.762',1237.344
'0:05.766',1252.003
'0:05.770',1258.608
'0:05.773',1257.884
'0:05.777',1259.332
'0:05.781',1258.608
'0:05.785',1262.273
'0:05.789',1262.273
'0:05.793',1260.824
'0:05.797',1267.387
'0:05.801',1262.997
'0:05.805',1257.884
'0:05.809',1252.727
'0:05.813',1258.608
'0:05.816',1292.316
'0:05.820',1287.160
'0:05.824',1277.657
'0:05.828',1272.543
'0:05.832',1318.694
'0:05.836',1291.591
'0:05.840',1338.467
'0:05.844',1304.035
'0:05.848',1334.078
'0:05.852',1333.353
'0:05.855',1362.629
'0:05.859',1334.802
'0:05.863',1350.910
'0:05.867',1342.132
'0:05.871',1326.024
'0:05.875',1349.461
'0:05.879',1323.808
'0:05.883',1326.748
'0:05.887',1334.802
'0:05.891',1302.543
'0:05.895',1290.824
'0:05.898',1300.370
'0:05.902',1268.111
'0:05.906',1290.100
'0:05.910',1248.338
'0:05.914',1268.111
'0:05.918',1270.327
'0:05.922',1249.830
'0:05.926',1227.841
'0:05.930',1230.781
'0:05.934',1241.008
'0:05.938',1217.571
'0:05.941',1235.895
'0:05.945',1235.895
'0:05.949',1236.619
'0:05.953',1265.213
'0:05.957',1265.938
'0:05.961',1255.668
'0:05.965',1294.489
'0:05.969',1328.921
'0:05.973',1344.305
'0:05.977',1384.618
'0:05.980',1421.266
'0:05.984',1429.320
'0:05.988',1454.207
'0:05.992',1536.282
'0:05.996',1557.503
'0:06.000',1605.146
'0:06.004',1650.530
'0:06.008',1714.281
'0:06.012',1746.540
'0:06.016',1805.134
'0:06.020',1842.507
'0:06.023',1862.280
'0:06.027',1894.496
'0:06.031',1954.582
'0:06.035',1940.647
'0:06.039',1964.852
'0:06.043',1988.290
'0:06.047',1975.079
'0:06.051',1954.582
'0:06.055',1959.696
'0:06.059',1904.042
'0:06.063',1873.274
'0:06.066',1835.902
'0:06.070',1813.188
'0:06.074',1746.540
'0:06.078',1679.849
'0:06.082',1623.428
'0:06.086',1588.995
'0:06.090',1493.028
'0:06.094',1468.142
'0:06.098',1401.451
'0:06.102',1286.435
'0:06.105',1263.722
'0:06.109',1196.349
'0:06.113',1090.836
'0:06.117',1055.680
'0:06.121',1002.923
'0:06.125',969.216
'0:06.129',924.556
'0:06.133',860.805
'0:06.137',843.973
'0:06.141',814.654
'0:06.145',778.006
'0:06.148',808.049
'0:06.152',799.995
'0:06.156',769.952
'0:06.160',823.433
'0:06.164',811.714
'0:06.168',859.356
'0:06.172',886.459
'0:06.176',916.502
'0:06.180',924.556
'0:06.184',954.599
'0:06.188',981.701
'0:06.191',1035.907
'0:06.195',1085.723
'0:06.199',1106.944
'0:06.203',1189.019
'0:06.207',1188.295
'0:06.211',1260.824
'0:06.215',1319.418
'0:06.219',1339.191
'0:06.223',1359.689
'0:06.227',1426.380
'0:06.230',1424.888
'0:06.234',1496.693
'0:06.238',1489.364
'0:06.242',1510.628
'0:06.246',1560.444
'0:06.250',1544.336
'0:06.254',1563.384
'0:06.258',1604.379
'0:06.262',1580.941
'0:06.266',1576.552
'0:06.270',1576.552
'0:06.273',1580.941
'0:06.277',1572.163
'0:06.281',1563.384
'0:06.285',1542.120
'0:06.289',1531.125
'0:06.293',1510.628
'0:06.297',1499.634
'0:06.301',1489.364
'0:06.305',1461.536
'0:06.309',1464.477
'0:06.313',1462.261
'0:06.316',1410.996
'0:06.320',1429.320
'0:06.324',1376.564
'0:06.328',1401.451
'0:06.332',1353.126
'0:06.336',1384.618
'0:06.340',1358.964
'0:06.344',1350.910
'0:06.348',1339.916
'0:06.352',1349.461
'0:06.355',1365.569
'0:06.359',1347.970
'0:06.363',1403.667
'0:06.367',1424.164
'0:06.371',1438.823
'0:06.375',1476.920
'0:06.379',1496.693
'0:06.383',1510.628
'0:06.387',1590.487
'0:06.391',1621.979
'0:06.395',1668.854
'0:06.398',1728.216
'0:06.402',1824.183
'0:06.406',1852.734
'0:06.410',1936.258
'0:06.414',1997.068
'0:06.418',2032.949
'0:06.422',2104.030
'0:06.426',2120.862
'0:06.430',2165.564
'0:06.434',2206.602
'0:06.438',2201.445
'0:06.441',2226.375
'0:06.445',2241.034
'0:06.449',2229.315
'0:06.453',2227.824
'0:06.457',2197.823
'0:06.461',2190.494
'0:06.465',2167.780
'0:06.469',2129.683
'0:06.473',2106.246
'0:06.477',2081.316
'0:06.480',2037.381
'0:06.484',1991.954
'0:06.488',1958.971
'0:06.492',1903.317
'0:06.496',1863.729
'0:06.500',1834.453
'0:06.504',1789.750
'0:06.508',1729.665
'0:06.512',1696.724
'0:06.516',1693.783
'0:06.520',1615.373
'0:06.523',1613.200
'0:06.527',1562.617
'0:06.531',1517.958
'0:06.535',1484.974
'0:06.539',1467.417
'0:06.543',1471.806
'0:06.547',1410.996
'0:06.551',1416.110
'0:06.555',1391.223
'0:06.559',1346.521
'0:06.563',1356.791
'0:06.566',1323.083
'0:06.570',1279.105
'0:06.574',1273.267
'0:06.578',1263.722
'0:06.582',1249.830
'0:06.586',1249.105
'0:06.590',1221.960
'0:06.594',1224.900
'0:06.598',1219.787
'0:06.602',1214.673
'0:06.605',1192.684
'0:06.609',1183.138
'0:06.613',1178.749
'0:06.617',1194.857
'0:06.621',1178.025
'0:06.625',1169.971
'0:06.629',1175.084
'0:06.633',1136.987
'0:06.637',1164.814
'0:06.641',1148.706
'0:06.645',1128.209
'0:06.648',1138.479
'0:06.652',1136.987
'0:06.656',1127.484
'0:06.660',1091.561
'0:06.664',1067.398
'0:06.668',1080.566
'0:06.672',1048.350
'0:06.676',1052.739
'0:06.680',1044.685
'0:06.684',1033.691
'0:06.688',1016.134
'0:06.691',998.534
'0:06.695',981.701
'0:06.699',980.934
'0:06.703',974.372
'0:06.707',961.886
'0:06.711',971.431
'0:06.715',968.491
'0:06.719',956.048
'0:06.723',961.886
'0:06.727',967.042
'0:06.730',956.048
'0:06.734',983.875
'0:06.738',999.259
'0:06.742',972.156
'0:06.746',1018.307
'0:06.750',1019.799
'0:06.754',1025.637
'0:06.758',1046.134
'0:06.762',1082.058
'0:06.766',1093.052
'0:06.770',1109.160
'0:06.773',1168.479
'0:06.777',1167.030
'0:06.781',1226.392
'0:06.785',1247.614
'0:06.789',1254.943
'0:06.793',1279.872
'0:06.797',1322.359
'0:06.801',1383.894
'0:06.805',1386.067
'0:06.809',1400.002
'0:06.813',1468.142
'0:06.816',1490.855
'0:06.820',1478.369
'0:06.824',1527.461
'0:06.828',1534.790
'0:06.832',1542.120
'0:06.836',1555.330
'0:06.840',1577.276
'0:06.844',1610.984
'0:06.848',1594.876
'0:06.852',1591.936
'0:06.855',1587.546
'0:06.859',1605.146
'0:06.863',1621.254
'0:06.867',1583.157
'0:06.871',1616.865
'0:06.875',1568.498
'0:06.879',1593.427
'0:06.883',1550.898
'0:06.887',1575.103
'0:06.891',1534.066
'0:06.895',1506.963
'0:06.898',1487.915
'0:06.902',1471.806
'0:06.906',1471.806
'0:06.910',1455.698
'0:06.914',1391.948
'0:06.918',1377.288
'0:06.922',1335.527
'0:06.926',1342.132
'0:06.930',1286.435
'0:06.934',1252.003
'0:06.938',1227.841
'0:06.941',1212.457
'0:06.945',1205.127
'0:06.949',1168.479
'0:06.953',1143.593
'0:06.957',1153.095
'0:06.961',1090.112
'0:06.965',1101.106
'0:06.969',1067.398
'0:06.973',1034.415
'0:06.977',1013.918
'0:06.980',1005.139
'0:06.984',989.031
'0:06.988',975.821
'0:06.992',978.761
'0:06.996',993.420
'0:07.000',969.983
'0:07.004',963.377
'0:07.008',956.048
'0:07.012',972.880
'0:07.016',960.437
'0:07.020',1010.977
'0:07.023',1024.912
'0:07.027',1046.901
'0:07.031',1063.009
'0:07.035',1074.004
'0:07.039',1124.544
'0:07.043',1163.365
'0:07.047',1190.468
'0:07.051',1203.678
'0:07.055',1249.105
'0:07.059',1283.537
'0:07.063',1334.802
'0:07.066',1370.683
'0:07.070',1400.002
'0:07.074',1422.715
'0:07.078',1413.937
'0:07.082',1466.650
'0:07.086',1452.034
'0:07.090',1493.028
'0:07.094',1534.790
'0:07.098',1517.233
'0:07.102',1528.952
'0:07.105',1553.114
'0:07.109',1564.109
'0:07.113',1582.433
'0:07.117',1610.260
'0:07.121',1616.098
'0:07.125',1590.487
'0:07.129',1592.660
'0:07.133',1590.487
'0:07.137',1592.660
'0:07.141',1589.762
'0:07.145',1594.876
'0:07.148',1616.865
'0:07.152',1603.655
'0:07.156',1601.481
'0:07.160',1590.487
'0:07.164',1534.790
'0:07.168',1562.617
'0:07.172',1548.001
'0:07.176',1526.012
'0:07.180',1495.969
'0:07.184',1493.028
'0:07.188',1465.201
'0:07.191',1462.261
'0:07.195',1449.818
'0:07.199',1439.548
'0:07.203',1381.678
'0:07.207',1378.013
'0:07.211',1372.175
'0:07.215',1380.229
'0:07.219',1326.024
'0:07.223',1337.742
'0:07.227',1334.078
'0:07.230',1334.802
'0:07.234',1311.364
'0:07.238',1293.765
'0:07.242',1308.424
'0:07.246',1298.154
'0:07.250',1295.981
'0:07.254',1262.997
'0:07.258',1287.927
'0:07.262',1304.759
'0:07.266',1284.986
'0:07.270',1278.381
'0:07.273',1263.722
'0:07.277',1285.711
'0:07.281',1290.100
'0:07.285',1274.716
'0:07.289',1314.305
'0:07.293',1309.148
'0:07.297',1276.208
'0:07.301',1320.143
'0:07.305',1329.688
'0:07.309',1340.640
'0:07.313',1345.072
'0:07.316',1333.353
'0:07.320',1326.748
'0:07.324',1368.510
'0:07.328',1388.283
'0:07.332',1385.342
'0:07.336',1364.845
'0:07.340',1403.667
'0:07.344',1403.667
'0:07.348',1413.937
'0:07.352',1434.434
'0:07.355',1427.829
'0:07.359',1441.764
'0:07.363',1406.607
'0:07.367',1441.039
'0:07.371',1391.948
'0:07.375',1429.320
'0:07.379',1399.277
'0:07.383',1375.072
'0:07.387',1376.564
'0:07.391',1391.223
'0:07.395',1386.834
'0:07.398',1345.072
'0:07.402',1335.527
'0:07.406',1351.635
'0:07.410',1345.797
'0:07.414',1330.413
'0:07.418',1306.975
'0:07.422',1293.765
'0:07.426',1290.100
'0:07.430',1289.375
'0:07.434',1272.543
'0:07.438',1227.841
'0:07.441',1238.835
'0:07.445',1253.494
'0:07.449',1197.798
'0:07.453',1214.673
'0:07.457',1177.300
'0:07.461',1191.960
'0:07.465',1192.684
'0:07.469',1178.749
'0:07.473',1154.587
'0:07.477',1136.987
'0:07.480',1119.430
'0:07.484',1114.998
'0:07.488',1117.939
'0:07.492',1116.490
'0:07.496',1095.950
'0:07.500',1080.566
'0:07.504',1074.728
'0:07.508',1028.577
'0:07.512',1038.847
'0:07.516',1023.463
'0:07.520',1011.702
'0:07.523',997.810
'0:07.527',988.264
'0:07.531',981.701
'0:07.535',983.150
'0:07.539',947.269
'0:07.543',987.540
'0:07.547',975.096
'0:07.551',977.270
'0:07.555',988.264
'0:07.559',1044.685
'0:07.563',1074.004
'0:07.566',1093.777
'0:07.570',1171.420
'0:07.574',1211.733
'0:07.578',1256.392
'0:07.582',1329.688
'0:07.586',1429.320
'0:07.590',1482.801
'0:07.594',1572.887
'0:07.598',1665.189
'0:07.602',1747.264
'0:07.605',1833.686
'0:07.609',1942.139
'0:07.613',2031.500
'0:07.617',2105.478
'0:07.621',2187.553
'0:07.625',2254.202
'0:07.629',2317.952
'0:07.633',2350.169
'0:07.637',2413.195
'0:07.641',2447.627
'0:07.645',2471.065
'0:07.648',2470.341
'0:07.652',2463.735
'0:07.656',2459.346
'0:07.660',2424.189
'0:07.664',2404.417
'0:07.668',2367.044
'0:07.672',2304.018
'0:07.676',2242.483
'0:07.680',2166.289
'0:07.684',2084.257
'0:07.688',1989.014
'0:07.691',1934.809
'0:07.695',1837.350
'0:07.699',1739.935
'0:07.703',1644.692
'0:07.707',1538.455
'0:07.711',1474.704
'0:07.715',1358.240
'0:07.719',1301.094
'0:07.723',1189.744
'0:07.727',1124.544
'0:07.730',1049.799
'0:07.734',1032.242
'0:07.738',958.988
'0:07.742',931.119
'0:07.746',895.237
'0:07.750',875.464
'0:07.754',858.589
'0:07.758',842.481
'0:07.762',830.762
'0:07.766',828.589
'0:07.770',827.822
'0:07.773',877.638
'0:07.777',913.562
'0:07.781',923.789
'0:07.785',986.091
'0:07.789',1002.199
'0:07.793',1069.614
'0:07.797',1146.533
'0:07.801',1191.960
'0:07.805',1224.900
'0:07.809',1277.657
'0:07.813',1356.024
'0:07.816',1393.397
'0:07.820',1406.607
'0:07.824',1485.699
'0:07.828',1528.185
'0:07.832',1562.617
'0:07.836',1587.546
'0:07.840',1614.649
'0:07.844',1598.541
'0:07.848',1616.098
'0:07.852',1627.859
'0:07.855',1652.022
'0:07.859',1646.141
'0:07.863',1619.763
'0:07.867',1649.806
'0:07.871',1642.476
'0:07.875',1630.757
'0:07.879',1600.714
'0:07.883',1578.768
'0:07.887',1558.228
'0:07.891',1537.006
'0:07.895',1504.023
'0:07.898',1483.525
'0:07.902',1493.028
'0:07.906',1452.758
'0:07.910',1464.477
'0:07.914',1407.331
'0:07.918',1380.953
'0:07.922',1380.953
'0:07.926',1360.456
'0:07.930',1326.024
'0:07.934',1321.592
'0:07.938',1298.154
'0:07.941',1298.154
'0:07.945',1315.029
'0:07.949',1262.273
'0:07.953',1264.489
'0:07.957',1287.927
'0:07.961',1282.046
'0:07.965',1240.284
'0:07.969',1254.219
'0:07.973',1264.489
'0:07.977',1247.614
'0:07.980',1244.673
'0:07.984',1257.159
'0:07.988',1276.208
'0:07.992',1289.375
'0:07.996',1304.035
'0:08.000',1301.819
'0:08.004',1312.813
'0:08.008',1310.640
'0:08.012',1294.489
'0:08.016',1306.208
'0:08.020',1317.970
'0:08.023',1342.132
'0:08.027',1336.251
'0:08.031',1350.186
'0:08.035',1384.618
'0:08.039',1396.337
'0:08.043',1403.667
'0:08.047',1415.385
'0:08.051',1418.326
'0:08.055',1443.937
'0:08.059',1463.752
'0:08.063',1444.704
'0:08.066',1442.488
'0:08.070',1461.536
'0:08.074',1462.985
'0:08.078',1468.142
'0:08.082',1473.980
'0:08.086',1449.818
'0:08.090',1485.699
'0:08.094',1458.596
'0:08.098',1440.272
'0:08.102',1482.034
'0:08.105',1440.272
'0:08.109',1469.591
'0:08.113',1448.369
'0:08.117',1442.488
'0:08.121',1415.385
'0:08.125',1427.829
'0:08.129',1426.380
'0:08.133',1394.888
'0:08.137',1387.558
'0:08.141',1378.737
'0:08.145',1363.354
'0:08.148',1373.624
'0:08.152',1389.732
'0:08.156',1384.618
'0:08.160',1370.683
'0:08.164',1361.905
'0:08.168',1358.240
'0:08.172',1361.905
'0:08.176',1372.175
'0:08.180',1375.839
'0:08.184',1379.504
'0:08.188',1386.067
'0:08.191',1394.121
'0:08.195',1378.013
'0:08.199',1367.018
'0:08.203',1378.737
'0:08.207',1425.655
'0:08.211',1443.212
'0:08.215',1434.434
'0:08.219',1428.553
'0:08.223',1428.553
'0:08.227',1460.812
'0:08.230',1447.602
'0:08.234',1454.931
'0:08.238',1464.477
'0:08.242',1439.548
'0:08.246',1479.136
'0:08.250',1430.769
'0:08.254',1443.937
'0:08.258',1455.698
'0:08.262',1421.991
'0:08.266',1393.397
'0:08.270',1427.104
'0:08.273',1405.840
'0:08.277',1386.067
'0:08.281',1372.175
'0:08.285',1350.910
'0:08.289',1346.521
'0:08.293',1331.137
'0:08.297',1321.592
'0:08.301',1318.694
'0:08.305',1321.592
'0:08.309',1304.035
'0:08.313',1304.035
'0:08.316',1319.418
'0:08.320',1320.867
'0:08.324',1304.759
'0:08.328',1316.478
'0:08.332',1323.808
'0:08.336',1320.143
'0:08.340',1315.754
'0:08.344',1332.586
'0:08.348',1332.586
'0:08.352',1331.862
'0:08.355',1335.527
'0:08.359',1340.640
'0:08.363',1311.364
'0:08.367',1325.257
'0:08.371',1346.521
'0:08.375',1364.121
'0:08.379',1382.402
'0:08.383',1399.277
'0:08.387',1428.553
'0:08.391',1474.704
'0:08.395',1496.693
'0:08.398',1538.455
'0:08.402',1581.666
'0:08.406',1635.913
'0:08.410',1702.562
'0:08.414',1721.610
'0:08.418',1767.762
'0:08.422',1814.637
'0:08.426',1871.783
'0:08.430',1932.593
'0:08.434',1951.641
'0:08.438',1997.793
'0:08.441',2038.106
'0:08.445',2041.046
'0:08.449',2068.149
'0:08.453',2098.916
'0:08.457',2076.927
'0:08.461',2071.813
'0:08.465',2080.592
'0:08.469',2038.106
'0:08.473',2038.830
'0:08.477',1983.900
'0:08.480',1937.749
'0:08.484',1914.269
'0:08.488',1845.404
'0:08.492',1824.907
'0:08.496',1745.773
'0:08.500',1677.675
'0:08.504',1643.968
'0:08.508',1552.390
'0:08.512',1476.196
'0:08.516',1448.369
'0:08.520',1358.240
'0:08.523',1302.543
'0:08.527',1268.111
'0:08.531',1210.241
'0:08.535',1122.328
'0:08.539',1099.615
'0:08.543',1021.972
'0:08.547',995.594
'0:08.551',977.270
'0:08.555',923.064
'0:08.559',900.351
'0:08.563',885.734
'0:08.566',879.129
'0:08.570',879.129
'0:08.574',897.453
'0:08.578',926.729
'0:08.582',939.940
'0:08.586',961.161
'0:08.590',954.599
'0:08.594',1014.642
'0:08.598',1059.344
'0:08.602',1094.501
'0:08.605',1130.382
'0:08.609',1150.198
'0:08.613',1166.306
'0:08.617',1241.775
'0:08.621',1262.997
'0:08.625',1319.418
'0:08.629',1340.640
'0:08.633',1380.229
'0:08.637',1431.494
'0:08.641',1459.321
'0:08.645',1457.147
'0:08.648',1515.742
'0:08.652',1546.509
'0:08.656',1572.163
'0:08.660',1587.546
'0:08.664',1591.936
'0:08.668',1593.427
'0:08.672',1610.984
'0:08.676',1594.876
'0:08.680',1576.552
'0:08.684',1576.552
'0:08.688',1564.833
'0:08.691',1560.444
'0:08.695',1545.785
'0:08.699',1542.844
'0:08.703',1534.790
'0:08.707',1522.347
'0:08.711',1475.471
'0:08.715',1473.255
'0:08.719',1477.645
'0:08.723',1426.380
'0:08.727',1405.115
'0:08.730',1418.326
'0:08.734',1376.564
'0:08.738',1364.121
'0:08.742',1357.515
'0:08.746',1335.527
'0:08.750',1317.970
'0:08.754',1290.824
'0:08.758',1249.830
'0:08.762',1254.219
'0:08.766',1271.051
'0:08.770',1222.727
'0:08.773',1246.165
'0:08.777',1260.824
'0:08.781',1263.722
'0:08.785',1227.841
'0:08.789',1236.619
'0:08.793',1259.332
'0:08.797',1257.884
'0:08.801',1281.321
'0:08.805',1295.981
'0:08.809',1317.202
'0:08.813',1323.808
'0:08.816',1328.197
'0:08.820',1393.397
'0:08.824',1392.672
'0:08.828',1438.823
'0:08.832',1437.374
'0:08.836',1468.866
'0:08.840',1520.898
'0:08.844',1551.665
'0:08.848',1578.001
'0:08.852',1580.217
'0:08.855',1603.655
'0:08.859',1657.135
'0:08.863',1671.070
'0:08.867',1693.783
'0:08.871',1706.951
'0:08.875',1741.383
'0:08.879',1759.707
'0:08.883',1732.605
'0:08.887',1777.307
'0:08.891',1772.875
'0:08.895',1745.048
'0:08.898',1767.037
'0:08.902',1743.599
'0:08.906',1762.648
'0:08.910',1767.037
'0:08.914',1723.059
'0:08.918',1753.827
'0:08.922',1701.838
'0:08.926',1720.162
'0:08.930',1690.119
'0:08.934',1657.860
'0:08.938',1669.579
'0:08.941',1659.351
'0:08.945',1613.925
'0:08.949',1565.558
'0:08.953',1547.233
'0:08.957',1539.946
'0:08.961',1485.699
'0:08.965',1493.028
'0:08.969',1443.212
'0:08.973',1399.277
'0:08.977',1412.445
'0:08.980',1391.223
'0:08.984',1374.348
'0:08.988',1336.251
'0:08.992',1300.370
'0:08.996',1289.375
'0:09.000',1304.035
'0:09.004',1308.424
'0:09.008',1306.208
'0:09.012',1290.100
'0:09.016',1276.932
'0:09.020',1268.111
'0:09.023',1260.057
'0:09.027',1261.548
'0:09.031',1257.884
'0:09.035',1262.997
'0:09.039',1223.451
'0:09.043',1242.500
'0:09.047',1189.744
'0:09.051',1213.181
'0:09.055',1170.695
'0:09.059',1166.306
'0:09.063',1162.641
'0:09.066',1136.987
'0:09.070',1119.430
'0:09.074',1098.166
'0:09.078',1065.183
'0:09.082',1041.745
'0:09.086',1045.410
'0:09.090',1006.588
'0:09.094',1002.923
'0:09.098',1028.577
'0:09.102',993.420
'0:09.105',1005.139
'0:09.109',1043.236
'0:09.113',1061.518
'0:09.117',1071.063
'0:09.121',1087.896
'0:09.125',1094.501
'0:09.129',1085.723
'0:09.133',1135.538
'0:09.137',1142.144
'0:09.141',1189.744
'0:09.145',1164.814
'0:09.148',1193.408
'0:09.152',1235.895
'0:09.156',1216.846
'0:09.160',1230.057
'0:09.164',1252.003
'0:09.168',1260.824
'0:09.172',1322.359
'0:09.176',1349.461
'0:09.180',1345.797
'0:09.184',1380.953
'0:09.188',1421.991
'0:09.191',1481.309
'0:09.195',1485.699
'0:09.199',1525.287
'0:09.203',1592.660
'0:09.207',1642.476
'0:09.211',1669.579
'0:09.215',1718.670
'0:09.219',1764.097
'0:09.223',1810.972
'0:09.227',1848.345
'0:09.230',1855.674
'0:09.234',1904.042
'0:09.238',1939.923
'0:09.242',1926.755
'0:09.246',1942.139
'0:09.250',1950.193
'0:09.254',1950.193
'0:09.258',1944.312
'0:09.262',1933.317
'0:09.266',1939.923
'0:09.270',1900.377
'0:09.273',1887.166
'0:09.277',1841.740
'0:09.281',1822.691
'0:09.285',1774.367
'0:09.289',1767.037
'0:09.293',1683.513
'0:09.297',1654.962
'0:09.301',1601.481
'0:09.305',1548.725
'0:09.309',1457.872
'0:09.313',1434.434
'0:09.316',1346.521
'0:09.320',1293.765
'0:09.324',1249.830
'0:09.328',1239.560
'0:09.332',1175.809
'0:09.336',1127.484
'0:09.340',1087.171
'0:09.344',1072.512
'0:09.348',1068.847
'0:09.352',1046.901
'0:09.355',1045.410
'0:09.359',1041.745
'0:09.363',1006.588
'0:09.367',1043.236
'0:09.371',1075.453
'0:09.375',1077.668
'0:09.379',1086.447
'0:09.383',1147.982
'0:09.387',1134.047
'0:09.391',1175.084
'0:09.395',1217.571
'0:09.398',1227.841
'0:09.402',1265.213
'0:09.406',1284.986
'0:09.410',1312.089
'0:09.414',1383.894
'0:09.418',1391.223
'0:09.422',1389.007
'0:09.426',1431.494
'0:09.430',1463.752
'0:09.434',1476.920
'0:09.438',1466.650
'0:09.441',1470.315
'0:09.445',1487.190
'0:09.449',1517.233
'0:09.453',1517.233
'0:09.457',1498.909
'0:09.461',1488.639
'0:09.465',1479.136
'0:09.469',1468.866
'0:09.473',1466.650
'0:09.477',1473.255
'0:09.480',1487.915
'0:09.484',1486.466
'0:09.488',1437.374
'0:09.492',1448.369
'0:09.496',1460.812
'0:09.500',1421.991
'0:09.504',1415.385
'0:09.508',1440.272
'0:09.512',1388.283
'0:09.516',1421.991
'0:09.520',1386.067
'0:09.523',1372.899
'0:09.527',1411.721
'0:09.531',1380.229
'0:09.535',1379.504
'0:09.539',1406.607
'0:09.543',1374.348
'0:09.547',1369.959
'0:09.551',1398.553
'0:09.555',1408.056
'0:09.559',1369.234
'0:09.563',1380.229
'0:09.566',1380.953
'0:09.570',1402.218
'0:09.574',1417.601
'0:09.578',1384.618
'0:09.582',1384.618
'0:09.586',1411.721
'0:09.590',1380.953
'0:09.594',1399.277
'0:09.598',1435.883
'0:09.602',1400.726
'0:09.605',1427.104
'0:09.609',1454.931
'0:09.613',1448.369
'0:09.617',1453.482
'0:09.621',1469.591
'0:09.625',1459.321
'0:09.629',1468.866
'0:09.633',1455.698
'0:09.637',1464.477
'0:09.641',1488.639
'0:09.645',1475.471
'0:09.648',1473.980
'0:09.652',1479.136
'0:09.656',1485.699
'0:09.660',1490.855
'0:09.664',1485.699
'0:09.668',1487.190
'0:09.672',1441.764
'0:09.676',1440.272
'0:09.680',1439.548
'0:09.684',1438.823
'0:09.688',1479.136
'0:09.691',1479.136
'0:09.695',1454.931
'0:09.699',1449.093
'0:09.703',1480.585
'0:09.707',1441.039
'0:09.711',1450.542
'0:09.715',1465.926
'0:09.719',1458.596
'0:09.723',1435.883
'0:09.727',1425.655
'0:09.730',1438.099
'0:09.734',1429.320
'0:09.738',1420.499
'0:09.742',1430.045
'0:09.746',1430.045
'0:09.750',1430.045
'0:09.754',1381.678
'0:09.758',1412.445
'0:09.762',1361.180
'0:09.766',1383.169
'0:09.770',1334.802
'0:09.773',1369.234
'0:09.777',1328.197
'0:09.781',1333.353
'0:09.785',1346.521
'0:09.789',1318.694
'0:09.793',1306.208
'0:09.797',1306.975
'0:09.801',1326.024
'0:09.805',1302.543
'0:09.809',1271.776
'0:09.813',1283.537
'0:09.816',1290.100
'0:09.820',1273.267
'0:09.824',1271.051
'0:09.828',1256.392
'0:09.832',1280.597
'0:09.836',1262.997
'0:09.840',1244.673
'0:09.844',1260.057
'0:09.848',1280.597
'0:09.852',1255.668
'0:09.855',1254.943
'0:09.859',1251.278
'0:09.863',1254.943
'0:09.867',1238.835
'0:09.871',1235.170
'0:09.875',1241.775
'0:09.879',1243.224
'0:09.883',1233.679
'0:09.887',1254.219
'0:09.891',1242.500
'0:09.895',1230.057
'0:09.898',1236.619
'0:09.902',1229.290
'0:09.906',1239.560
'0:09.910',1225.625
'0:09.914',1237.344
'0:09.918',1232.230
'0:09.922',1234.446
'0:09.926',1245.440
'0:09.930',1255.668
'0:09.934',1283.537
'0:09.938',1326.748
'0:09.941',1324.532
'0:09.945',1333.353
'0:09.949',1402.942
'0:09.953',1410.996
'0:09.957',1425.655
'0:09.961',1460.812
'0:09.965',1501.849
'0:09.969',1575.103
'0:09.973',1606.595
'0:09.977',1657.135
'0:09.980',1676.184
'0:09.984',1716.497
'0:09.988',1775.091
'0:09.992',1830.021
'0:09.996',1834.453
'0:10.000',1903.317
'0:10.004',1906.215
'0:10.008',1964.085
'0:10.012',1953.133
'0:10.016',1980.236
'0:10.020',1997.793
'0:10.023',2010.236
'0:10.027',2000.733
'0:10.031',2004.398
'0:10.035',1989.739
'0:10.039',1976.571
'0:10.043',1930.420
'0:10.047',1913.544
'0:10.051',1838.075
'0:10.055',1797.805
'0:10.059',1708.443
'0:10.063',1649.806
'0:10.066',1554.563
'0:10.070',1490.131
'0:10.074',1376.564
'0:10.078',1312.089
'0:10.082',1231.505
'0:10.086',1139.203
'0:10.090',1065.950
'0:10.094',1033.691
'0:10.098',963.377
'0:10.102',916.502
'0:10.105',885.734
'0:10.109',850.535
'0:10.113',795.606
'0:10.117',805.109
'0:10.121',821.984
'0:10.125',820.492
'0:10.129',849.811
'0:10.133',865.919
'0:10.137',861.530
'0:10.141',940.664
'0:10.145',982.426
'0:10.148',1030.026
'0:10.152',1068.123
'0:10.156',1092.328
'0:10.160',1178.025
'0:10.164',1241.008
'0:10.168',1302.543
'0:10.172',1350.910
'0:10.176',1371.408
'0:10.180',1431.494
'0:10.184',1488.639
'0:10.188',1524.563
'0:10.191',1591.936
'0:10.195',1610.984
'0:10.199',1668.854
'0:10.203',1672.519
'0:10.207',1728.216
'0:10.211',1719.395
'0:10.215',1767.037
'0:10.219',1733.329
'0:10.223',1755.318
'0:10.227',1739.935
'0:10.230',1755.318
'0:10.234',1706.951
'0:10.238',1722.335
'0:10.242',1689.394
'0:10.246',1627.859
'0:10.250',1668.854
'0:10.254',1756.767
'0:10.258',1978.744
'0:10.262',2298.904
'0:10.266',2711.366
'0:10.270',2791.949
'0:10.273',2791.225
'0:10.277',2791.225
'0:10.281',2790.458
'0:10.285',2791.949
'0:10.289',2791.225
'0:10.293',2791.225
'0:10.297',2791.225
'0:10.301',2791.949
'0:10.305',2791.225
'0:10.309',2791.225
'0:10.313',2791.949
'0:10.316',2791.225
'0:10.320',2791.225
'0:10.324',2791.225
'0:10.328',2791.949
'0:10.332',2790.458
'0:10.336',2791.949
'0:10.340',2791.949
'0:10.344',2791.225
'0:10.348',2791.225
'0:10.352',2791.225
'0:10.355',2791.949
'0:10.359',2790.458
'0:10.363',2791.949
'0:10.367',2791.949
'0:10.371',2791.225
'0:10.375',2790.458
'0:10.379',2791.225
'0:10.383',2705.485
'0:10.387',2499.616
'0:10.391',2215.380
'0:10.395',1889.382
'0:10.398',1562.617
'0:10.402',1273.992
'0:10.406',972.880
'0:10.410',707.693
'0:10.414',469.608
'0:10.418',271.793
'0:10.422',79.134
'0:10.426',0.000
'0:10.430',1.449
'0:10.434',0.724
'0:10.438',1.449
'0:10.441',0.724
'0:10.445',1.449
'0:10.449',1.449
'0:10.453',0.000
'0:10.457',1.449
'0:10.461',1.449
'0:10.465',0.000
'0:10.469',2.216
'0:10.473',23.438
'0:10.477',50.540
'0:10.480',127.459
'0:10.484',196.323
'0:10.488',239.577
'0:10.492',301.111
'0:10.496',385.359
'0:10.500',439.565
'0:10.504',506.213
'0:10.508',524.537
'0:10.512',586.072
'0:10.516',669.596
'0:10.520',691.585
'0:10.523',726.017
'0:10.527',797.055
'0:10.531',841.032
'0:10.535',872.524
'0:10.539',872.524
'0:10.543',939.940
'0:10.547',961.886
'0:10.551',989.031
'0:10.555',1001.474
'0:10.559',1052.015
'0:10.563',1077.668
'0:10.566',1103.280
'0:10.570',1114.998
'0:10.574',1115.766
'0:10.578',1181.690
'0:10.582',1167.030
'0:10.586',1216.122
'0:10.590',1230.781
'0:10.594',1240.284
'0:10.598',1239.560
'0:10.602',1232.230
'0:10.605',1247.614
'0:10.609',1236.619
'0:10.613',1213.906
'0:10.617',1191.960
'0:10.621',1210.241
'0:10.625',1215.397
'0:10.629',1164.090
'0:10.633',1186.079
'0:10.637',1156.036
'0:10.641',1120.155
'0:10.645',1104.047
'0:10.648',1085.723
'0:10.652',1093.052
'0:10.656',1091.561
'0:10.660',1052.015
'0:10.664',1052.015
'0:10.668',994.869
'0:10.672',994.869
'0:10.676',1010.977
'0:10.680',995.594
'0:10.684',976.545
'0:10.688',1000.750
'0:10.691',997.810
'0:10.695',1027.086
'0:10.699',1024.912
'0:10.703',1063.009
'0:10.707',1098.890
'0:10.711',1114.998
'0:10.715',1145.808
'0:10.719',1188.295
'0:10.723',1279.872
'0:10.727',1313.538
'0:10.730',1397.061
'0:10.734',1415.385
'0:10.738',1476.196
'0:10.742',1537.006
'0:10.746',1636.638
'0:10.750',1666.681
'0:10.754',1745.048
'0:10.758',1776.540
'0:10.762',1824.183
'0:10.766',1884.269
'0:10.770',1896.712
'0:10.773',1947.252
'0:10.777',1956.755
'0:10.781',1974.355
'0:10.785',1957.522
'0:10.789',1980.236
'0:10.793',1953.857
'0:10.797',1928.204
'0:10.801',1891.556
'0:10.805',1845.404
'0:10.809',1821.242
'0:10.813',1764.821
'0:10.816',1715.005
'0:10.820',1641.027
'0:10.824',1622.703
'0:10.828',1555.330
'0:10.832',1475.471
'0:10.836',1397.786
'0:10.840',1369.959
'0:10.844',1298.154
'0:10.848',1264.489
'0:10.852',1194.133
'0:10.855',1197.798
'0:10.859',1167.030
'0:10.863',1126.760
'0:10.867',1124.544
'0:10.871',1120.155
'0:10.875',1116.490
'0:10.879',1113.550
'0:10.883',1131.874
'0:10.887',1147.257
'0:10.891',1141.377
'0:10.895',1149.431
'0:10.898',1221.235
'0:10.902',1235.895
'0:10.906',1238.111
'0:10.910',1272.543
'0:10.914',1340.640
'0:10.918',1362.629
'0:10.922',1394.121
'0:10.926',1399.277
'0:10.930',1443.937
'0:10.934',1490.855
'0:10.938',1517.233
'0:10.941',1527.461
'0:10.945',1523.071
'0:10.949',1578.001
'0:10.953',1562.617
'0:10.957',1580.217
'0:10.961',1586.822
'0:10.965',1597.049
'0:10.969',1615.373
'0:10.973',1605.871
'0:10.977',1598.541
'0:10.980',1621.254
'0:10.984',1588.271
'0:10.988',1610.260
'0:10.992',1573.612
'0:10.996',1559.719
'0:11.000',1578.768
'0:11.004',1553.839
'0:11.008',1528.185
'0:11.012',1515.742
'0:11.016',1509.136
'0:11.020',1491.579
'0:11.023',1468.866
'0:11.027',1441.039
'0:11.031',1449.093
'0:11.035',1419.775
'0:11.039',1381.678
'0:11.043',1377.288
'0:11.047',1381.678
'0:11.051',1364.845
'0:11.055',1355.299
'0:11.059',1341.407
'0:11.063',1337.742
'0:11.066',1327.472
'0:11.070',1300.370
'0:11.074',1331.862
'0:11.078',1314.305
'0:11.082',1312.089
'0:11.086',1314.305
'0:11.090',1326.748
'0:11.094',1314.305
'0:11.098',1328.197
'0:11.102',1372.899
'0:11.105',1373.624
'0:11.109',1356.024
'0:11.113',1358.964
'0:11.117',1368.510
'0:11.121',1419.050
'0:11.125',1410.996
'0:11.129',1403.667
'0:11.133',1400.726
'0:11.137',1448.369
'0:11.141',1430.045
'0:11.145',1421.266
'0:11.148',1448.369
'0:11.152',1447.602
'0:11.156',1448.369
'0:11.160',1433.709
'0:11.164',1475.471
'0:11.168',1435.158
'0:11.172',1479.136
'0:11.176',1449.093
'0:11.180',1471.806
'0:11.184',1456.423
'0:11.188',1479.861
'0:11.191',1472.531
'0:11.195',1446.153
'0:11.199',1468.142
'0:11.203',1471.806
'0:11.207',1438.823
'0:11.211',1461.536
'0:11.215',1424.888
'0:11.219',1460.088
'0:11.223',1422.715
'0:11.227',1406.607
'0:11.230',1387.558
'0:11.234',1415.385
'0:11.238',1394.888
'0:11.242',1371.408
'0:11.246',1358.964
'0:11.250',1341.407
'0:11.254',1339.916
'0:11.258',1310.640
'0:11.262',1305.484
'0:11.266',1289.375
'0:11.270',1271.776
'0:11.273',1265.938
'0:11.277',1283.537
'0:11.281',1246.889
'0:11.285',1242.500
'0:11.289',1238.111
'0:11.293',1272.543
'0:11.297',1279.105
'0:11.301',1246.165
'0:11.305',1239.560
'0:11.309',1275.441
'0:11.313',1276.208
'0:11.316',1230.057
'0:11.320',1218.295
'0:11.324',1232.230
'0:11.328',1243.949
'0:11.332',1201.463
'0:11.336',1178.749
'0:11.340',1189.744
'0:11.344',1184.630
'0:11.348',1127.484
'0:11.352',1149.431
'0:11.355',1120.879
'0:11.359',1075.453
'0:11.363',1087.896
'0:11.367',1076.177
'0:11.371',1067.398
'0:11.375',1021.247
'0:11.379',1024.188
'0:11.383',1024.188
'0:11.387',990.480
'0:11.391',1013.918
'0:11.395',1029.301
'0:11.398',1039.571
'0:11.402',1019.799
'0:11.406',1073.279
'0:11.410',1074.728
'0:11.414',1131.149
'0:11.418',1135.538
'0:11.422',1165.581
'0:11.426',1200.738
'0:11.430',1283.537
'0:11.434',1298.154
'0:11.438',1327.472
'0:11.441',1371.408
'0:11.445',1419.050
'0:11.449',1463.752
'0:11.453',1500.358
'0:11.457',1517.958
'0:11.461',1594.876
'0:11.465',1584.606
'0:11.469',1635.146
'0:11.473',1653.470
'0:11.477',1657.135
'0:11.480',1711.340
'0:11.484',1700.346
'0:11.488',1706.951
'0:11.492',1720.886
'0:11.496',1739.210
'0:11.500',1745.773
'0:11.504',1759.707
'0:11.508',1769.210
'0:11.512',1769.977
'0:11.516',1775.816
'0:11.520',1780.205
'0:11.523',1782.421
'0:11.527',1768.486
'0:11.531',1762.648
'0:11.535',1755.318
'0:11.539',1762.648
'0:11.543',1750.929
'0:11.547',1723.059
'0:11.551',1714.281
'0:11.555',1715.005
'0:11.559',1668.854
'0:11.563',1638.087
'0:11.566',1649.806
'0:11.570',1613.200
'0:11.574',1596.325
'0:11.578',1536.282
'0:11.582',1494.520
'0:11.586',1494.520
'0:11.590',1431.494
'0:11.594',1446.153
'0:11.598',1382.402
'0:11.602',1339.191
'0:11.605',1311.364
'0:11.609',1282.770
'0:11.613',1271.776
'0:11.617',1275.441
'0:11.621',1212.457
'0:11.625',1223.451
'0:11.629',1181.690
'0:11.633',1201.463
'0:11.637',1200.014
'0:11.641',1180.965
'0:11.645',1178.025
'0:11.648',1158.976
'0:11.652',1152.371
'0:11.656',1148.706
'0:11.660',1153.863
'0:11.664',1193.408
'0:11.668',1200.014
'0:11.672',1180.241
'0:11.676',1229.290
'0:11.680',1213.906
'0:11.684',1247.614
'0:11.688',1224.176
'0:11.691',1249.105
'0:11.695',1284.986
'0:11.699',1257.159
'0:11.703',1297.430
'0:11.707',1316.478
'0:11.711',1341.407
'0:11.715',1354.575
'0:11.719',1346.521
'0:11.723',1377.288
'0:11.727',1388.283
'0:11.730',1380.953
'0:11.734',1382.402
'0:11.738',1388.283
'0:11.742',1400.002
'0:11.746',1405.840
'0:11.750',1419.775
'0:11.754',1419.050
'0:11.758',1405.115
'0:11.762',1405.840
'0:11.766',1408.056
'0:11.770',1457.872
'0:11.773',1436.650
'0:11.777',1458.596
'0:11.781',1421.266
'0:11.785',1462.985
'0:11.789',1441.764
'0:11.793',1427.104
'0:11.797',1459.321
'0:11.801',1429.320
'0:11.805',1475.471
'0:11.809',1464.477
'0:11.813',1446.153
'0:11.816',1437.374
'0:11.820',1474.704
'0:11.824',1452.034
'0:11.828',1455.698
'0:11.832',1449.093
'0:11.836',1426.380
'0:11.840',1462.261
'0:11.844',1413.937
'0:11.848',1446.153
'0:11.852',1410.996
'0:11.855',1418.326
'0:11.859',1438.099
'0:11.863',1405.840
'0:11.867',1381.678
'0:11.871',1420.499
'0:11.875',1382.402
'0:11.879',1388.283
'0:11.883',1387.558
'0:11.887',1365.569
'0:11.891',1376.564
'0:11.895',1356.024
'0:11.898',1378.737
'0:11.902',1377.288
'0:11.906',1391.948
'0:11.910',1382.402
'0:11.914',1375.839
'0:11.918',1383.169
'0:11.922',1386.067
'0:11.926',1378.013
'0:11.930',1408.780
'0:11.934',1382.402
'0:11.938',1417.601
'0:11.941',1400.002
'0:11.945',1398.553
'0:11.949',1435.883
'0:11.953',1416.834
'0:11.957',1432.218
'0:11.961',1426.380
'0:11.965',1408.056
'0:11.969',1386.834
'0:11.973',1385.342
'0:11.977',1391.223
'0:11.980',1377.288
'0:11.984',1379.504
'0:11.988',1385.342
'0:11.992',1391.948
'0:11.996',1402.218
'0:12.000',1361.905
'0:12.004',1350.910
'0:12.008',1362.629
'0:12.012',1363.354
'0:12.016',1342.856
'0:12.020',1321.592
'0:12.023',1331.137
'0:12.027',1343.581
'0:12.031',1302.543
'0:12.035',1333.353
'0:12.039',1289.375
'0:12.043',1306.208
'0:12.047',1322.359
'0:12.051',1275.441
'0:12.055',1295.256
'0:12.059',1301.819
'0:12.063',1295.981
'0:12.066',1276.932
'0:12.070',1304.759
'0:12.074',1275.441
'0:12.078',1265.213
'0:12.082',1290.824
'0:12.086',1253.494
'0:12.090',1241.008
'0:12.094',1269.602
'0:12.098',1265.938
'0:12.102',1246.165
'0:12.105',1224.900
'0:12.109',1211.008
'0:12.113',1204.403
'0:12.117',1209.517
'0:12.121',1208.068
'0:12.125',1212.457
'0:12.129',1225.625
'0:12.133',1224.176
'0:12.137',1217.571
'0:12.141',1195.624
'0:12.145',1194.857
'0:12.148',1214.673
'0:12.152',1234.446
'0:12.156',1205.852
'0:12.160',1232.954
'0:12.164',1218.295
'0:12.168',1213.181
'0:12.172',1224.176
'0:12.176',1228.565
'0:12.180',1235.170
'0:12.184',1241.775
'0:12.188',1232.230
'0:12.191',1294.489
'0:12.195',1276.932
'0:12.199',1326.748
'0:12.203',1344.305
'0:12.207',1364.845
'0:12.211',1400.726
'0:12.215',1443.212
'0:12.219',1529.676
'0:12.223',1534.066
'0:12.227',1592.660
'0:12.230',1649.806
'0:12.234',1711.340
'0:12.238',1750.929
'0:12.242',1830.788
'0:12.246',1854.226
'0:12.250',1896.712
'0:12.254',1941.371
'0:12.258',1985.349
'0:12.262',2037.381
'0:12.266',2047.608
'0:12.270',2082.041
'0:12.273',2091.586
'0:12.277',2109.910
'0:12.281',2085.706
'0:12.285',2092.311
'0:12.289',2081.316
'0:12.293',2052.765
'0:12.297',2019.781
'0:12.301',1969.966
'0:12.305',1912.096
'0:12.309',1839.566
'0:12.313',1803.643
'0:12.316',1735.545
'0:12.320',1631.482
'0:12.324',1590.487
'0:12.328',1490.131
'0:12.332',1435.158
'0:12.336',1334.078
'0:12.340',1283.537
'0:12.344',1230.781
'0:12.348',1164.814
'0:12.352',1101.106
'0:12.355',1046.901
'0:12.359',993.420
'0:12.363',917.951
'0:12.367',879.854
'0:12.371',877.638
'0:12.375',825.649
'0:12.379',819.768
'0:12.383',821.259
'0:12.387',808.049
'0:12.391',812.438
'0:12.395',837.367
'0:12.398',833.703
'0:12.402',873.249
'0:12.406',926.005
'0:12.410',945.053
'0:12.414',962.653
'0:12.418',1048.350
'0:12.422',1071.063
'0:12.426',1114.274
'0:12.430',1208.068
'0:12.434',1226.392
'0:12.438',1282.770
'0:12.441',1326.024
'0:12.445',1375.839
'0:12.449',1463.752
'0:12.453',1471.806
'0:12.457',1542.844
'0:12.461',1564.833
'0:12.465',1579.492
'0:12.469',1608.044
'0:12.473',1630.033
'0:12.477',1680.573
'0:12.480',1672.519
'0:12.484',1717.221
'0:12.488',1725.275
'0:12.492',1696.724
'0:12.496',1683.513
'0:12.500',1684.962
'0:12.504',1682.065
'0:12.508',1658.627
'0:12.512',1654.962
'0:12.516',1663.740
'0:12.520',1606.595
'0:12.523',1626.368
'0:12.527',1560.444
'0:12.531',1575.828
'0:12.535',1515.742
'0:12.539',1500.358
'0:12.543',1488.639
'0:12.547',1491.579
'0:12.551',1465.201
'0:12.555',1433.709
'0:12.559',1414.661
'0:12.563',1422.715
'0:12.566',1421.991
'0:12.570',1402.942
'0:12.574',1367.785
'0:12.578',1365.569
'0:12.582',1380.229
'0:12.586',1385.342
'0:12.590',1361.905
'0:12.594',1350.910
'0:12.598',1358.240
'0:12.602',1382.402
'0:12.605',1356.791
'0:12.609',1372.899
'0:12.613',1335.527
'0:12.617',1322.359
'0:12.621',1323.083
'0:12.625',1337.742
'0:12.629',1342.856
'0:12.633',1330.413
'0:12.637',1334.078
'0:12.641',1333.353
'0:12.645',1335.527
'0:12.648',1334.078
'0:12.652',1301.819
'0:12.656',1326.024
'0:12.660',1310.640
'0:12.664',1336.251
'0:12.668',1346.521
'0:12.672',1323.083
'0:12.676',1328.197
'0:12.680',1347.245
'0:12.684',1366.294
'0:12.688',1375.839
'0:12.691',1383.169
'0:12.695',1352.402
'0:12.699',1367.785
'0:12.703',1374.348
'0:12.707',1384.618
'0:12.711',1378.737
'0:12.715',1387.558
'0:12.719',1416.110
'0:12.723',1402.218
'0:12.727',1389.007
'0:12.730',1424.888
'0:12.734',1403.667
'0:12.738',1397.061
'0:12.742',1436.650
'0:12.746',1447.602
'0:12.750',1425.655
'0:12.754',1414.661
'0:12.758',1447.602
'0:12.762',1411.721
'0:12.766',1446.877
'0:12.770',1410.272
'0:12.773',1446.153
'0:12.777',1402.942
'0:12.781',1429.320
'0:12.785',1406.607
'0:12.789',1384.618
'0:12.793',1386.834
'0:12.797',1400.002
'0:12.801',1394.121
'0:12.805',1388.283
'0:12.809',1364.121
'0:12.813',1364.121
'0:12.816',1358.240
'0:12.820',1331.862
'0:12.824',1353.851
'0:12.828',1366.294
'0:12.832',1364.121
'0:12.836',1338.467
'0:12.840',1331.862
'0:12.844',1339.191
'0:12.848',1359.689
'0:12.852',1359.689
'0:12.855',1356.791
'0:12.859',1351.635
'0:12.863',1306.975
'0:12.867',1282.046
'0:12.871',1309.148
'0:12.875',1276.932
'0:12.879',1252.727
'0:12.883',1248.338
'0:12.887',1204.403
'0:12.891',1200.738
'0:12.895',1193.408
'0:12.898',1166.306
'0:12.902',1147.982
'0:12.906',1125.993
'0:12.910',1101.831
'0:12.914',1033.691
'0:12.918',1035.182
'0:12.922',1012.469
'0:12.926',999.983
'0:12.930',972.880
'0:12.934',977.270
'0:12.938',950.167
'0:12.941',935.550
'0:12.945',963.377
'0:12.949',976.545
'0:12.953',994.145
'0:12.957',1016.134
'0:12.961',1043.236
'0:12.965',1063.009
'0:12.969',1120.155
'0:12.973',1161.917
'0:12.977',1169.971
'0:12.980',1259.332
'0:12.984',1314.305
'0:12.988',1366.294
'0:12.992',1392.672
'0:12.996',1465.926
'0:13.000',1482.801
'0:13.004',1545.785
'0:13.008',1601.481
'0:13.012',1638.087
'0:13.016',1699.622
'0:13.020',1717.946
'0:13.023',1750.162
'0:13.027',1793.415
'0:13.031',1815.404
'0:13.035',1827.847
'0:13.039',1845.404
'0:13.043',1868.885
'0:13.047',1893.772
'0:13.051',1874.723
'0:13.055',1867.393
'0:13.059',1868.118
'0:13.063',1881.328
'0:13.066',1846.896
'0:13.070',1847.620
'0:13.074',1846.172
'0:13.078',1787.535
'0:13.082',1796.356
'0:13.086',1734.054
'0:13.090',1717.221
'0:13.094',1676.908
'0:13.098',1674.011
'0:13.102',1643.243
'0:13.105',1595.601
'0:13.109',1549.449
'0:13.113',1490.855
'0:13.117',1488.639
'0:13.121',1435.883
'0:13.125',1388.283
'0:13.129',1364.121
'0:13.133',1347.245
'0:13.137',1304.035
'0:13.141',1260.824
'0:13.145',1256.392
'0:13.148',1203.678
'0:13.152',1215.397
'0:13.156',1191.960
'0:13.160',1145.041
'0:13.164',1146.533
'0:13.168',1143.593
'0:13.172',1123.095
'0:13.176',1079.117
'0:13.180',1073.279
'0:13.184',1098.166
'0:13.188',1103.280
'0:13.191',1101.106
'0:13.195',1068.123
'0:13.199',1098.890
'0:13.203',1116.490
'0:13.207',1125.993
'0:13.211',1120.879
'0:13.215',1143.593
'0:13.219',1147.257
'0:13.223',1182.414
'0:13.227',1189.744
'0:13.230',1220.511
'0:13.234',1227.116
'0:13.238',1234.446
'0:13.242',1246.165
'0:13.246',1267.387
'0:13.250',1325.257
'0:13.254',1333.353
'0:13.258',1338.467
'0:13.262',1369.234
'0:13.266',1367.785
'0:13.270',1375.072
'0:13.273',1375.839
'0:13.277',1388.283
'0:13.281',1397.786
'0:13.285',1403.667
'0:13.289',1403.667
'0:13.293',1382.402
'0:13.297',1392.672
'0:13.301',1410.272
'0:13.305',1424.888
'0:13.309',1423.439
'0:13.313',1418.326
'0:13.316',1403.667
'0:13.320',1386.067
'0:13.324',1380.953
'0:13.328',1380.229
'0:13.332',1389.007
'0:13.336',1393.397
'0:13.340',1372.899
'0:13.344',1367.785
'0:13.348',1364.121
'0:13.352',1359.689
'0:13.355',1363.354
'0:13.359',1373.624
'0:13.363',1364.845
'0:13.367',1356.791
'0:13.371',1350.186
'0:13.375',1345.797
'0:13.379',1352.402
'0:13.383',1364.845
'0:13.387',1339.191
'0:13.391',1320.867
'0:13.395',1346.521
'0:13.398',1338.467
'0:13.402',1314.305
'0:13.406',1324.532
'0:13.410',1328.921
'0:13.414',1340.640
'0:13.418',1345.797
'0:13.422',1350.186
'0:13.426',1356.024
'0:13.430',1349.461
'0:13.434',1319.418
'0:13.438',1329.688
'0:13.441',1339.191
'0:13.445',1336.251
'0:13.449',1366.294
'0:13.453',1375.839
'0:13.457',1380.229
'0:13.461',1387.558
'0:13.465',1354.575
'0:13.469',1356.791
'0:13.473',1367.018
'0:13.477',1405.840
'0:13.480',1406.607
'0:13.484',1429.320
'0:13.488',1427.829
'0:13.492',1440.272
'0:13.496',1431.494
'0:13.500',1406.607
'0:13.504',1416.110
'0:13.508',1449.818
'0:13.512',1437.374
'0:13.516',1431.494
'0:13.520',1462.985
'0:13.523',1432.218
'0:13.527',1476.920
'0:13.531',1455.698
'0:13.535',1454.207
'0:13.539',1450.542
'0:13.543',1441.764
'0:13.547',1487.190
'0:13.551',1461.536
'0:13.555',1449.818
'0:13.559',1474.704
'0:13.563',1499.634
'0:13.566',1490.131
'0:13.570',1500.358
'0:13.574',1482.801
'0:13.578',1471.806
'0:13.582',1455.698
'0:13.586',1463.752
'0:13.590',1469.591
'0:13.594',1474.704
'0:13.598',1431.494
'0:13.602',1419.050
'0:13.605',1419.775
'0:13.609',1408.056
'0:13.613',1407.331
'0:13.617',1433.709
'0:13.621',1383.169
'0:13.625',1385.342
'0:13.629',1400.002
'0:13.633',1407.331
'0:13.637',1371.408
'0:13.641',1382.402
'0:13.645',1358.964
'0:13.648',1362.629
'0:13.652',1381.678
'0:13.656',1330.413
'0:13.660',1351.635
'0:13.664',1320.143
'0:13.668',1337.742
'0:13.672',1343.581
'0:13.676',1324.532
'0:13.680',1301.094
'0:13.684',1291.591
'0:13.688',1269.602
'0:13.691',1271.051
'0:13.695',1252.003
'0:13.699',1189.744
'0:13.703',1180.965
'0:13.707',1197.798
'0:13.711',1158.252
'0:13.715',1147.257
'0:13.719',1129.658
'0:13.723',1136.263
'0:13.727',1126.760
'0:13.730',1101.831
'0:13.734',1092.328
'0:13.738',1120.155
'0:13.742',1091.561
'0:13.746',1133.323
'0:13.750',1115.766
'0:13.754',1161.192
'0:13.758',1194.133
'0:13.762',1236.619
'0:13.766',1271.776
'0:13.770',1305.484
'0:13.773',1333.353
'0:13.777',1388.283
'0:13.781',1465.926
'0:13.785',1515.017
'0:13.789',1612.433
'0:13.793',1678.400
'0:13.797',1736.270
'0:13.801',1827.847
'0:13.805',1922.323
'0:13.809',1986.074
'0:13.813',2046.884
'0:13.816',2107.694
'0:13.820',2150.181
'0:13.824',2196.332
'0:13.828',2247.639
'0:13.832',2287.910
'0:13.836',2304.742
'0:13.840',2312.839
'0:13.844',2296.688
'0:13.848',2306.958
'0:13.852',2290.125
'0:13.855',2256.418
'0:13.859',2197.823
'0:13.863',2140.678
'0:13.867',2095.976
'0:13.871',2036.614
'0:13.875',1966.301
'0:13.879',1879.112
'0:13.883',1804.410
'0:13.887',1713.556
'0:13.891',1612.433
'0:13.895',1517.233
'0:13.898',1421.266
'0:13.902',1353.851
'0:13.906',1243.224
'0:13.910',1163.365
'0:13.914',1119.430
'0:13.918',1008.804
'0:13.922',963.377
'0:13.926',927.454
'0:13.930',847.637
'0:13.934',835.919
'0:13.938',791.941
'0:13.941',791.941
'0:13.945',773.617
'0:13.949',781.671
'0:13.953',786.060
'0:13.957',783.162
'0:13.961',813.930
'0:13.965',846.146
'0:13.969',854.200
'0:13.973',914.286
'0:13.977',983.150
'0:13.980',1019.031
'0:13.984',1043.236
'0:13.988',1109.885
'0:13.992',1174.360
'0:13.996',1205.852
'0:14.000',1299.645
'0:14.004',1350.910
'0:14.008',1486.466
'0:14.012',1434.434
'0:14.016',1405.840
'0:14.020',1396.337
'0:14.023',1369.234
'0:14.027',1361.180
'0:14.031',1321.592
'0:14.035',1288.651
'0:14.039',1294.489
'0:14.043',1282.046
'0:14.047',1271.776
'0:14.051',1243.224
'0:14.055',1261.548
'0:14.059',1232.954
'0:14.063',1269.602
'0:14.066',1263.722
'0:14.070',1280.597
'0:14.074',1447.602
'0:14.078',1422.715
'0:14.082',1466.650
'0:14.086',1449.818
'0:14.090',1443.212
'0:14.094',1454.207
'0:14.098',1455.698
'0:14.102',1479.861
'0:14.105',1448.369
'0:14.109',1466.650
'0:14.113',1469.591
'0:14.117',1444.704
'0:14.121',1470.315
'0:14.125',1452.034
'0:14.129',1432.218
'0:14.133',1434.434
'0:14.137',1408.056
'0:14.141',1424.164
'0:14.145',1435.883
'0:14.148',1399.277
'0:14.152',1408.056
'0:14.156',1386.834
'0:14.160',1359.689
'0:14.164',1396.337
'0:14.168',1345.797
'0:14.172',1379.504
'0:14.176',1353.126
'0:14.180',1345.797
'0:14.184',1319.418
'0:14.188',1314.305
'0:14.191',1311.364
'0:14.195',1345.797
'0:14.199',1342.856
'0:14.203',1333.353
'0:14.207',1320.867
'0:14.211',1331.137
'0:14.215',1342.856
'0:14.219',1332.586
'0:14.223',1340.640
'0:14.227',1347.245
'0:14.230',1348.737
'0:14.234',1338.467
'0:14.238',1328.197
'0:14.242',1316.478
'0:14.246',1319.418
'0:14.250',1306.208
'0:14.254',1276.208
'0:14.258',1243.949
'0:14.262',1260.057
'0:14.266',1232.954
'0:14.270',1227.841
'0:14.273',1225.625
'0:14.277',1199.247
'0:14.281',1195.624
'0:14.285',1158.252
'0:14.289',1138.479
'0:14.293',1109.160
'0:14.297',1090.112
'0:14.301',1095.950
'0:14.305',1063.734
'0:14.309',1060.069
'0:14.313',1022.696
'0:14.316',1006.588
'0:14.320',975.821
'0:14.324',1008.080
'0:14.328',977.270
'0:14.332',972.880
'0:14.336',970.707
'0:14.340',975.821
'0:14.344',970.707
'0:14.348',995.594
'0:14.352',1008.804
'0:14.355',1035.907
'0:14.359',1073.279
'0:14.363',1088.663
'0:14.367',1128.209
'0:14.371',1193.408
'0:14.375',1240.284
'0:14.379',1294.489
'0:14.383',1361.905
'0:14.387',1421.991
'0:14.391',1501.082
'0:14.395',1538.455
'0:14.398',1597.816
'0:14.402',1675.459
'0:14.406',1736.270
'0:14.410',1788.259
'0:14.414',1827.847
'0:14.418',1882.777
'0:14.422',1921.599
'0:14.426',1989.014
'0:14.430',2034.441
'0:14.434',2037.381
'0:14.438',2075.478
'0:14.441',2101.814
'0:14.445',2108.419
'0:14.449',2120.138
'0:14.453',2136.246
'0:14.457',2153.121
'0:14.461',2136.246
'0:14.465',2115.024
'0:14.469',2098.149
'0:14.473',2087.197
'0:14.477',2042.495
'0:14.480',2007.338
'0:14.484',1958.247
'0:14.488',1938.474
'0:14.492',1871.058
'0:14.496',1813.188
'0:14.500',1738.443
'0:14.504',1679.124
'0:14.508',1616.098
'0:14.512',1564.109
'0:14.516',1526.736
'0:14.520',1429.320
'0:14.523',1364.845
'0:14.527',1308.424
'0:14.531',1232.954
'0:14.535',1194.857
'0:14.539',1120.155
'0:14.543',1084.231
'0:14.547',1047.626
'0:14.551',996.318
'0:14.555',935.550
'0:14.559',954.599
'0:14.563',926.729
'0:14.566',918.675
'0:14.570',923.789
'0:14.574',931.886
'0:14.578',926.005
'0:14.582',942.837
'0:14.586',943.604
'0:14.590',1010.253
'0:14.594',1024.912
'0:14.598',1035.182
'0:14.602',1089.387
'0:14.605',1131.149
'0:14.609',1173.635
'0:14.613',1186.803
'0:14.617',1241.008
'0:14.621',1301.819
'0:14.625',1340.640
'0:14.629',1358.964
'0:14.633',1365.569
'0:14.637',1434.434
'0:14.641',1441.764
'0:14.645',1476.196
'0:14.648',1495.244
'0:14.652',1526.012
'0:14.656',1528.185
'0:14.660',1544.336
'0:14.664',1550.898
'0:14.668',1538.455
'0:14.672',1538.455
'0:14.676',1523.071
'0:14.680',1523.071
'0:14.684',1498.185
'0:14.688',1506.963
'0:14.691',1473.255
'0:14.695',1494.520
'0:14.699',1441.764
'0:14.703',1468.866
'0:14.707',1430.769
'0:14.711',1407.331
'0:14.715',1395.612
'0:14.719',1410.272
'0:14.723',1375.072
'0:14.727',1355.299
'0:14.730',1365.569
'0:14.734',1353.851
'0:14.738',1347.970
'0:14.742',1342.856
'0:14.746',1327.472
'0:14.750',1298.154
'0:14.754',1325.257
'0:14.758',1285.711
'0:14.762',1299.645
'0:14.766',1310.640
'0:14.770',1276.208
'0:14.773',1299.645
'0:14.777',1284.262
'0:14.781',1303.310
'0:14.785',1323.083
'0:14.789',1327.472
'0:14.793',1319.418
'0:14.797',1290.824
'0:14.801',1295.981
'0:14.805',1290.824
'0:14.809',1321.592
'0:14.813',1318.694
'0:14.816',1312.089
'0:14.820',1342.132
'0:14.824',1342.856
'0:14.828',1306.208
'0:14.832',1312.813
'0:14.836',1339.916
'0:14.840',1345.797
'0:14.844',1303.310
'0:14.848',1306.975
'0:14.852',1316.478
'0:14.855',1311.364
'0:14.859',1338.467
'0:14.863',1355.299
'0:14.867',1364.121
'0:14.871',1372.899
'0:14.875',1384.618
'0:14.879',1390.456
'0:14.883',1407.331
'0:14.887',1430.769
'0:14.891',1448.369
'0:14.895',1460.088
'0:14.898',1490.855
'0:14.902',1514.293
'0:14.906',1567.049
'0:14.910',1608.044
'0:14.914',1642.476
'0:14.918',1675.459
'0:14.922',1673.243
'0:14.926',1738.443
'0:14.930',1736.270
'0:14.934',1778.756
'0:14.938',1824.907
'0:14.941',1852.734
'0:14.945',1873.274
'0:14.949',1883.502
'0:14.953',1882.053
'0:14.957',1888.658
'0:14.961',1906.215
'0:14.965',1915.760
'0:14.969',1922.323
'0:14.973',1902.550
'0:14.977',1909.155
'0:14.980',1878.388
'0:14.984',1839.566
'0:14.988',1843.231
'0:14.992',1834.453
'0:14.996',1774.367
'0:15.000',1769.977
'0:15.004',1747.989
'0:15.008',1704.011
'0:15.012',1682.789
'0:15.016',1618.314
'0:15.020',1598.541
'0:15.023',1542.120
'0:15.027',1546.509
'0:15.031',1469.591
'0:15.035',1473.980
'0:15.039',1421.991
'0:15.043',1393.397
'0:15.047',1354.575
'0:15.051',1305.484
'0:15.055',1241.775
'0:15.059',1238.835
'0:15.063',1180.965
'0:15.066',1166.306
'0:15.070',1124.544
'0:15.074',1054.231
'0:15.078',1045.410
'0:15.082',1024.188
'0:15.086',1000.750
'0:15.090',975.096
'0:15.094',953.832
'0:15.098',918.675
'0:15.102',900.351
'0:15.105',895.237
'0:15.109',889.357
'0:15.113',902.567
'0:15.117',876.189
'0:15.121',909.897
'0:15.125',934.059
'0:15.129',901.843
'0:15.133',936.275
'0:15.137',983.150
'0:15.141',994.145
'0:15.145',994.869
'0:15.148',1060.793
'0:15.152',1105.496
'0:15.156',1156.760
'0:15.160',1168.479
'0:15.164',1233.679
'0:15.168',1311.364
'0:15.172',1340.640
'0:15.176',1400.002
'0:15.180',1466.650
'0:15.184',1566.282
'0:15.188',1597.816
'0:15.191',1665.189
'0:15.195',1767.762
'0:15.199',1792.691
'0:15.203',1863.729
'0:15.207',1931.144
'0:15.211',1965.576
'0:15.215',2020.506
'0:15.219',2065.933
'0:15.223',2062.992
'0:15.227',2097.424
'0:15.230',2118.689
'0:15.234',2093.760
'0:15.238',2099.640
'0:15.242',2068.873
'0:15.246',2071.046
'0:15.250',2019.781
'0:15.254',1997.068
'0:15.258',1958.247
'0:15.262',1907.706
'0:15.266',1845.404
'0:15.270',1799.253
'0:15.273',1752.378
'0:15.277',1669.579
'0:15.281',1602.206
'0:15.285',1548.725
'0:15.289',1490.131
'0:15.293',1405.840
'0:15.297',1350.186
'0:15.301',1262.997
'0:15.305',1208.068
'0:15.309',1180.965
'0:15.313',1082.058
'0:15.316',1079.842
'0:15.320',1016.134
'0:15.324',997.085
'0:15.328',964.102
'0:15.332',958.988
'0:15.336',947.994
'0:15.340',935.550
'0:15.344',899.627
'0:15.348',940.664
'0:15.352',967.767
'0:15.355',964.826
'0:15.359',988.264
'0:15.363',1003.648
'0:15.367',1071.788
'0:15.371',1085.723
'0:15.375',1152.371
'0:15.379',1183.863
'0:15.383',1189.019
'0:15.387',1271.051
'0:15.391',1282.046
'0:15.395',1303.310
'0:15.398',1336.975
'0:15.402',1362.629
'0:15.406',1428.553
'0:15.410',1430.045
'0:15.414',1427.104
'0:15.418',1454.931
'0:15.422',1462.985
'0:15.426',1471.806
'0:15.430',1464.477
'0:15.434',1476.920
'0:15.438',1468.142
'0:15.441',1471.082
'0:15.445',1458.596
'0:15.449',1443.937
'0:15.453',1470.315
'0:15.457',1462.261
'0:15.461',1410.996
'0:15.465',1417.601
'0:15.469',1413.937
'0:15.473',1375.072
'0:15.477',1388.283
'0:15.480',1366.294
'0:15.484',1324.532
'0:15.488',1309.148
'0:15.492',1306.975
'0:15.496',1289.375
'0:15.500',1265.938
'0:15.504',1268.111
'0:15.508',1216.122
'0:15.512',1198.522
'0:15.516',1195.624
'0:15.520',1206.576
'0:15.523',1216.122
'0:15.527',1180.241
'0:15.531',1166.306
'0:15.535',1204.403
'0:15.539',1195.624
'0:15.543',1209.517
'0:15.547',1203.678
'0:15.551',1194.857
'0:15.555',1224.900
'0:15.559',1230.781
'0:15.563',1238.835
'0:15.566',1233.679
'0:15.570',1250.554
'0:15.574',1260.824
'0:15.578',1265.213
'0:15.582',1271.776
'0:15.586',1268.111
'0:15.590',1278.381
'0:15.594',1277.657
'0:15.598',1264.489
'0:15.602',1255.668
'0:15.605',1264.489
'0:15.609',1252.727
'0:15.613',1298.154
'0:15.617',1268.878
'0:15.621',1312.089
'0:15.625',1293.765
'0:15.629',1309.873
'0:15.633',1336.975
'0:15.637',1340.640
'0:15.641',1318.694
'0:15.645',1329.688
'0:15.648',1356.791
'0:15.652',1383.169
'0:15.656',1367.018
'0:15.660',1358.964
'0:15.664',1386.834
'0:15.668',1379.504
'0:15.672',1383.894
'0:15.676',1373.624
'0:15.680',1408.780
'0:15.684',1413.937
'0:15.688',1400.726
'0:15.691',1389.732
'0:15.695',1403.667
'0:15.699',1402.942
'0:15.703',1394.121
'0:15.707',1386.067
'0:15.711',1378.737
'0:15.715',1366.294
'0:15.719',1342.132
'0:15.723',1365.569
'0:15.727',1316.478
'0:15.730',1316.478
'0:15.734',1340.640
'0:15.738',1304.035
'0:15.742',1326.748
'0:15.746',1280.597
'0:15.750',1281.321
'0:15.754',1306.208
'0:15.758',1305.484
'0:15.762',1265.938
'0:15.766',1260.824
'0:15.770',1289.375
'0:15.773',1300.370
'0:15.777',1299.645
'0:15.781',1298.154
'0:15.785',1288.651
'0:15.789',1281.321
'0:15.793',1290.824
'0:15.797',1310.640
'0:15.801',1272.543
'0:15.805',1286.435
'0:15.809',1302.543
'0:15.813',1293.040
'0:15.816',1244.673
'0:15.820',1265.938
'0:15.824',1245.440
'0:15.828',1235.170
'0:15.832',1248.338
'0:15.836',1210.241
'0:15.840',1192.684
'0:15.844',1213.181
'0:15.848',1170.695
'0:15.852',1169.246
'0:15.855',1134.047
'0:15.859',1118.663
'0:15.863',1122.328
'0:15.867',1111.376
'0:15.871',1101.106
'0:15.875',1077.668
'0:15.879',1038.847
'0:15.883',1033.691
'0:15.887',1037.356
'0:15.891',995.594
'0:15.895',1019.799
'0:15.898',980.934
'0:15.902',1008.080
'0:15.906',988.264
'0:15.910',1028.577
'0:15.914',1062.285
'0:15.918',1087.171
'0:15.922',1102.555
'0:15.926',1158.976
'0:15.930',1208.792
'0:15.934',1220.511
'0:15.938',1291.591
'0:15.941',1350.186
'0:15.945',1413.169
'0:15.949',1465.926
'0:15.953',1544.336
'0:15.957',1612.433
'0:15.961',1660.076
'0:15.965',1754.594
'0:15.969',1780.972
'0:15.973',1835.902
'0:15.977',1891.556
'0:15.980',1941.371
'0:15.984',1975.079
'0:15.988',2011.003
'0:15.992',2016.841
'0:15.996',2033.716
'0:16.000',2068.149
'0:16.004',2043.219
'0:16.008',2067.381
'0:16.012',2032.949
'0:16.016',2032.949
'0:16.020',2003.673
'0:16.023',1961.911
'0:16.027',1955.306
'0:16.031',1906.215
'0:16.035',1857.890
'0:16.039',1806.583
'0:16.043',1786.810
'0:16.047',1730.389
'0:16.051',1675.459
'0:16.055',1594.152
'0:16.059',1542.120
'0:16.063',1460.088
'0:16.066',1399.277
'0:16.070',1357.515
'0:16.074',1325.257
'0:16.078',1244.673
'0:16.082',1206.576
'0:16.086',1156.760
'0:16.090',1120.879
'0:16.094',1085.723
'0:16.098',1030.750
'0:16.102',993.420
'0:16.105',1012.469
'0:16.109',959.713
'0:16.113',954.599
'0:16.117',972.880
'0:16.121',945.053
'0:16.125',936.275
'0:16.129',978.761
'0:16.133',953.832
'0:16.137',961.161
'0:16.141',995.594
'0:16.145',1013.918
'0:16.148',983.875
'0:16.152',1027.086
'0:16.156',1014.642
'0:16.160',1054.955
'0:16.164',1037.356
'0:16.168',1063.734
'0:16.172',1099.615
'0:16.176',1109.160
'0:16.180',1123.820
'0:16.184',1136.987
'0:16.188',1150.198
'0:16.191',1159.701
'0:16.195',1177.300
'0:16.199',1176.576
'0:16.203',1165.581
'0:16.207',1219.787
'0:16.211',1236.619
'0:16.215',1219.062
'0:16.219',1238.835
'0:16.223',1281.321
'0:16.227',1314.305
'0:16.230',1345.072
'0:16.234',1366.294
'0:16.238',1367.785
'0:16.242',1407.331
'0:16.246',1400.002
'0:16.250',1405.115
'0:16.254',1464.477
'0:16.258',1443.937
'0:16.262',1497.418
'0:16.266',1472.531
'0:16.270',1517.233
'0:16.273',1495.969
'0:16.277',1532.617
'0:16.281',1556.055
'0:16.285',1526.736
'0:16.289',1555.330
'0:16.293',1528.185
'0:16.297',1544.336
'0:16.301',1560.444
'0:16.305',1564.833
'0:16.309',1558.995
'0:16.313',1560.444
'0:16.316',1554.563
'0:16.320',1548.725
'0:16.324',1508.412
'0:16.328',1520.131
'0:16.332',1514.293
'0:16.336',1479.861
'0:16.340',1500.358
'0:16.344',1450.542
'0:16.348',1474.704
'0:16.352',1435.883
'0:16.355',1457.147
'0:16.359',1420.499
'0:16.363',1389.732
'0:16.367',1404.391
'0:16.371',1406.607
'0:16.375',1385.342
'0:16.379',1361.180
'0:16.383',1366.294
'0:16.387',1383.894
'0:16.391',1359.689
'0:16.395',1345.072
'0:16.398',1332.586
'0:16.402',1355.299
'0:16.406',1360.456
'0:16.410',1377.288
'0:16.414',1377.288
'0:16.418',1387.558
'0:16.422',1386.834
'0:16.426',1375.072
'0:16.430',1355.299
'0:16.434',1374.348
'0:16.438',1358.964
'0:16.441',1400.726
'0:16.445',1393.397
'0:16.449',1361.180
'0:16.453',1353.851
'0:16.457',1385.342
'0:16.461',1394.121
'0:16.465',1395.612
'0:16.469',1388.283
'0:16.473',1363.354
'0:16.477',1356.024
'0:16.480',1361.180
'0:16.484',1356.791
'0:16.488',1354.575
'0:16.492',1380.953
'0:16.496',1399.277
'0:16.500',1405.115
'0:16.504',1400.002
'0:16.508',1397.061
'0:16.512',1394.888
'0:16.516',1410.272
'0:16.520',1391.223
'0:16.523',1382.402
'0:16.527',1422.715
'0:16.531',1416.834
'0:16.535',1402.218
'0:16.539',1397.786
'0:16.543',1437.374
'0:16.547',1420.499
'0:16.551',1436.650
'0:16.555',1438.099
'0:16.559',1417.601
'0:16.563',1408.780
'0:16.566',1402.218
'0:16.570',1403.667
'0:16.574',1404.391
'0:16.578',1403.667
'0:16.582',1424.164
'0:16.586',1414.661
'0:16.590',1416.110
'0:16.594',1406.607
'0:16.598',1371.408
'0:16.602',1356.791
'0:16.605',1354.575
'0:16.609',1336.251
'0:16.613',1330.413
'0:16.617',1333.353
'0:16.621',1321.592
'0:16.625',1284.262
'0:16.629',1301.094
'0:16.633',1257.159
'0:16.637',1278.381
'0:16.641',1253.494
'0:16.645',1284.986
'0:16.648',1252.727
'0:16.652',1297.430
'0:16.656',1258.608
'0:16.660',1306.975
'0:16.664',1265.938
'0:16.668',1313.538
'0:16.672',1271.776
'0:16.676',1301.094
'0:16.680',1325.257
'0:16.684',1315.029
'0:16.688',1296.705
'0:16.691',1303.310
'0:16.695',1319.418
'0:16.699',1344.305
'0:16.703',1364.845
'0:16.707',1391.948
'0:16.711',1397.786
'0:16.715',1413.937
'0:16.719',1476.196
'0:16.723',1476.920
'0:16.727',1544.336
'0:16.730',1544.336
'0:16.734',1579.492
'0:16.738',1624.195
'0:16.742',1670.346
'0:16.746',1736.270
'0:16.750',1743.599
'0:16.754',1792.691
'0:16.758',1823.458
'0:16.762',1868.885
'0:16.766',1937.749
'0:16.770',1975.804
'0:16.773',2014.668
'0:16.777',2015.392
'0:16.781',2076.203
'0:16.785',2073.262
'0:16.789',2095.976
'0:16.793',2108.419
'0:16.797',2110.635
'0:16.801',2124.527
'0:16.805',2126.743
'0:16.809',2109.910
'0:16.813',2076.203
'0:16.816',2064.484
'0:16.820',2032.225
'0:16.824',1995.619
'0:16.828',1941.371
'0:16.832',1863.729
'0:16.836',1813.188
'0:16.840',1748.713
'0:16.844',1671.070
'0:16.848',1593.427
'0:16.852',1559.719
'0:16.855',1483.525
'0:16.859',1406.607
'0:16.863',1290.824
'0:16.867',1252.727
'0:16.871',1178.749
'0:16.875',1079.842
'0:16.879',1041.020
'0:16.883',982.426
'0:16.887',923.064
'0:16.891',854.200
'0:16.895',838.816
'0:16.898',824.924
'0:16.902',794.881
'0:16.906',769.952
'0:16.910',752.395
'0:16.914',801.486
'0:16.918',781.671
'0:16.922',827.097
'0:16.926',819.043
'0:16.930',849.086
'0:16.934',879.129
'0:16.938',962.653
'0:16.941',1002.199
'0:16.945',1052.015
'0:16.949',1104.047
'0:16.953',1153.095
'0:16.957',1182.414
'0:16.961',1226.392
'0:16.965',1259.332
'0:16.969',1311.364
'0:16.973',1392.672
'0:16.977',1394.121
'0:16.980',1463.752
'0:16.984',1452.034
'0:16.988',1487.190
'0:16.992',1515.017
'0:16.996',1518.682
'0:17.000',1529.676
'0:17.004',1534.790
'0:17.008',1538.455
'0:17.012',1559.719
'0:17.016',1579.492
'0:17.020',1567.773
'0:17.023',1564.833
'0:17.027',1517.233
'0:17.031',1503.298
'0:17.035',1515.742
'0:17.039',1506.239
'0:17.043',1465.201
'0:17.047',1476.196
'0:17.051',1441.039
'0:17.055',1467.417
'0:17.059',1417.601
'0:17.063',1443.937
'0:17.066',1398.553
'0:17.070',1400.002
'0:17.074',1426.380
'0:17.078',1411.721
'0:17.082',1387.558
'0:17.086',1379.504
'0:17.090',1383.894
'0:17.094',1356.791
'0:17.098',1377.288
'0:17.102',1384.618
'0:17.105',1381.678
'0:17.109',1364.845
'0:17.113',1373.624
'0:17.117',1364.121
'0:17.121',1361.905
'0:17.125',1364.121
'0:17.129',1355.299
'0:17.133',1319.418
'0:17.137',1312.089
'0:17.141',1341.407
'0:17.145',1351.635
'0:17.148',1346.521
'0:17.152',1347.245
'0:17.156',1350.910
'0:17.160',1354.575
'0:17.164',1359.689
'0:17.168',1348.737
'0:17.172',1338.467
'0:17.176',1353.851
'0:17.180',1404.391
'0:17.184',1402.218
'0:17.188',1390.456
'0:17.191',1418.326
'0:17.195',1423.439
'0:17.199',1416.834
'0:17.203',1451.266
'0:17.207',1462.261
'0:17.211',1468.142
'0:17.215',1481.309
'0:17.219',1467.417
'0:17.223',1504.023
'0:17.227',1489.364
'0:17.230',1512.077
'0:17.234',1537.006
'0:17.238',1534.790
'0:17.242',1506.239
'0:17.246',1515.742
'0:17.250',1534.066
'0:17.254',1543.569
'0:17.258',1546.509
'0:17.262',1538.455
'0:17.266',1541.395
'0:17.270',1528.952
'0:17.273',1533.341
'0:17.277',1535.515
'0:17.281',1539.946
'0:17.285',1534.790
'0:17.289',1542.120
'0:17.293',1498.185
'0:17.297',1482.034
'0:17.301',1507.688
'0:17.305',1453.482
'0:17.309',1466.650
'0:17.313',1432.218
'0:17.316',1455.698
'0:17.320',1435.158
'0:17.324',1395.612
'0:17.328',1384.618
'0:17.332',1378.737
'0:17.336',1372.175
'0:17.340',1366.294
'0:17.344',1362.629
'0:17.348',1356.791
'0:17.352',1358.240
'0:17.355',1350.910
'0:17.359',1351.635
'0:17.363',1391.948
'0:17.367',1380.229
'0:17.371',1358.240
'0:17.375',1354.575
'0:17.379',1361.180
'0:17.383',1397.786
'0:17.387',1395.612
'0:17.391',1391.948
'0:17.395',1426.380
'0:17.398',1403.667
'0:17.402',1437.374
'0:17.406',1412.445
'0:17.410',1445.428
'0:17.414',1415.385
'0:17.418',1452.034
'0:17.422',1438.823
'0:17.426',1455.698
'0:17.430',1421.991
'0:17.434',1443.212
'0:17.438',1443.937
'0:17.441',1421.266
'0:17.445',1437.374
'0:17.449',1451.266
'0:17.453',1455.698
'0:17.457',1450.542
'0:17.461',1435.158
'0:17.465',1425.655
'0:17.469',1394.888
'0:17.473',1426.380
'0:17.477',1418.326
'0:17.480',1383.894
'0:17.484',1365.569
'0:17.488',1371.408
'0:17.492',1353.851
'0:17.496',1326.748
'0:17.500',1320.867
'0:17.504',1257.159
'0:17.508',1271.051
'0:17.512',1242.500
'0:17.516',1200.738
'0:17.520',1219.062
'0:17.523',1165.581
'0:17.527',1180.965
'0:17.531',1156.760
'0:17.535',1138.479
'0:17.539',1120.155
'0:17.543',1116.490
'0:17.547',1107.711
'0:17.551',1109.160
'0:17.555',1098.166
'0:17.559',1075.453
'0:17.563',1119.430
'0:17.566',1122.328
'0:17.570',1120.879
'0:17.574',1129.658
'0:17.578',1180.965
'0:17.582',1205.852
'0:17.586',1212.457
'0:17.590',1273.992
'0:17.594',1289.375
'0:17.598',1309.873
'0:17.602',1375.072
'0:17.605',1389.007
'0:17.609',1450.542
'0:17.613',1490.855
'0:17.617',1553.114
'0:17.621',1587.546
'0:17.625',1635.146
'0:17.629',1704.778
'0:17.633',1711.340
'0:17.637',1779.480
'0:17.641',1816.853
'0:17.645',1837.350
'0:17.648',1865.944
'0:17.652',1894.496
'0:17.656',1918.701
'0:17.660',1915.036
'0:17.664',1934.084
'0:17.668',1936.982
'0:17.672',1927.479
'0:17.676',1913.544
'0:17.680',1905.490
'0:17.684',1878.388
'0:17.688',1819.026
'0:17.691',1775.091
'0:17.695',1731.156
'0:17.699',1693.783
'0:17.703',1662.292
'0:17.707',1611.709
'0:17.711',1571.438
'0:17.715',1525.287
'0:17.719',1468.866
'0:17.723',1400.002
'0:17.727',1333.353
'0:17.730',1313.538
'0:17.734',1266.662
'0:17.738',1180.241
'0:17.742',1178.025
'0:17.746',1117.939
'0:17.750',1057.896
'0:17.754',1049.074
'0:17.758',1016.134
'0:17.762',999.259
'0:17.766',957.497
'0:17.770',964.826
'0:17.773',912.070
'0:17.777',932.610
'0:17.781',934.783
'0:17.785',936.999
'0:17.789',962.653
'0:17.793',962.653
'0:17.797',980.934
'0:17.801',1009.529
'0:17.805',1028.577
'0:17.809',1053.464
'0:17.813',1068.847
'0:17.816',1077.668
'0:17.820',1132.598
'0:17.824',1178.749
'0:17.828',1181.690
'0:17.832',1225.625
'0:17.836',1260.824
'0:17.840',1285.711
'0:17.844',1343.581
'0:17.848',1356.024
'0:17.852',1410.272
'0:17.855',1405.115
'0:17.859',1419.775
'0:17.863',1446.153
'0:17.867',1460.088
'0:17.871',1479.861
'0:17.875',1510.628
'0:17.879',1534.790
'0:17.883',1542.844
'0:17.887',1528.952
'0:17.891',1526.012
'0:17.895',1515.017
'0:17.898',1537.006
'0:17.902',1532.617
'0:17.906',1504.747
'0:17.910',1492.304
'0:17.914',1523.071
'0:17.918',1509.904
'0:17.922',1492.304
'0:17.926',1464.477
'0:17.930',1473.980
'0:17.934',1466.650
'0:17.938',1410.272
'0:17.941',1433.709
'0:17.945',1429.320
'0:17.949',1394.121
'0:17.953',1387.558
'0:17.957',1371.408
'0:17.961',1371.408
'0:17.965',1407.331
'0:17.969',1370.683
'0:17.973',1394.121
'0:17.977',1391.948
'0:17.980',1370.683
'0:17.984',1393.397
'0:17.988',1375.072
'0:17.992',1398.553
'0:17.996',1374.348
'0:18.000',1359.689
'0:18.004',1393.397
'0:18.008',1367.785
'0:18.012',1398.553
'0:18.016',1382.402
'0:18.020',1358.964
'0:18.023',1400.002
'0:18.027',1367.018
'0:18.031',1405.115
'0:18.035',1384.618
'0:18.039',1367.785
'0:18.043',1392.672
'0:18.047',1408.056
'0:18.051',1386.067
'0:18.055',1421.991
'0:18.059',1383.894
'0:18.063',1423.439
'0:18.066',1413.937
'0:18.070',1400.002
'0:18.074',1435.158
'0:18.078',1413.937
'0:18.082',1450.542
'0:18.086',1444.704
'0:18.090',1420.499
'0:18.094',1427.829
'0:18.098',1469.591
'0:18.102',1474.704
'0:18.105',1457.872
'0:18.109',1460.812
'0:18.113',1438.099
'0:18.117',1441.764
'0:18.121',1441.764
'0:18.125',1445.428
'0:18.129',1442.488
'0:18.133',1446.877
'0:18.137',1455.698
'0:18.141',1468.866
'0:18.145',1475.471
'0:18.148',1443.937
'0:18.152',1438.823
'0:18.156',1449.818
'0:18.160',1446.877
'0:18.164',1442.488
'0:18.168',1457.872
'0:18.172',1419.775
'0:18.176',1421.266
'0:18.180',1402.942
'0:18.184',1427.829
'0:18.188',1384.618
'0:18.191',1410.996
'0:18.195',1386.834
'0:18.199',1350.186
'0:18.203',1378.013
'0:18.207',1366.294
'0:18.211',1358.964
'0:18.215',1323.083
'0:18.219',1295.981
'0:18.223',1293.040
'0:18.227',1311.364
'0:18.230',1306.208
'0:18.234',1293.765
'0:18.238',1287.160
'0:18.242',1240.284
'0:18.246',1262.997
'0:18.250',1232.230
'0:18.254',1237.344
'0:18.258',1226.392
'0:18.262',1211.733
'0:18.266',1240.284
'0:18.270',1191.193
'0:18.273',1219.062
'0:18.277',1219.062
'0:18.281',1195.624
'0:18.285',1175.809
'0:18.289',1157.527
'0:18.293',1145.808
'0:18.297',1116.490
'0:18.301',1109.885
'0:18.305',1098.166
'0:18.309',1088.663
'0:18.313',1090.836
'0:18.316',1065.950
'0:18.320',1032.242
'0:18.324',1043.236
'0:18.328',1055.680
'0:18.332',1041.020
'0:18.336',1010.977
'0:18.340',1034.415
'0:18.344',1051.290
'0:18.348',1049.074
'0:18.352',1065.183
'0:18.355',1073.279
'0:18.359',1107.711
'0:18.363',1133.323
'0:18.367',1167.030
'0:18.371',1193.408
'0:18.375',1235.895
'0:18.379',1279.872
'0:18.383',1330.413
'0:18.387',1435.883
'0:18.391',1469.591
'0:18.395',1550.898
'0:18.398',1671.795
'0:18.402',1727.491
'0:18.406',1814.637
'0:18.410',1920.874
'0:18.414',2005.847
'0:18.418',2106.246
'0:18.422',2189.727
'0:18.426',2274.742
'0:18.430',2345.779
'0:18.434',2419.800
'0:18.438',2489.389
'0:18.441',2522.330
'0:18.445',2569.248
'0:18.449',2583.865
'0:18.453',2601.464
'0:18.457',2580.967
'0:18.461',2583.865
'0:18.465',2546.535
'0:18.469',2523.097
'0:18.473',2456.406
'0:18.477',2427.087
'0:18.480',2357.498
'0:18.484',2283.520
'0:18.488',2188.278
'0:18.492',2103.305
'0:18.496',2016.841
'0:18.500',1919.425
'0:18.504',1804.410
'0:18.508',1742.875
'0:18.512',1625.643
'0:18.516',1546.509
'0:18.520',1421.266
'0:18.523',1375.072
'0:18.527',1290.824
'0:18.531',1167.030
'0:18.535',1110.609
'0:18.539',1058.620
'0:18.543',954.599
'0:18.547',941.389
'0:18.551',898.178
'0:18.555',866.686
'0:18.559',846.870
'0:18.563',807.325
'0:18.566',786.060
'0:18.570',825.649
'0:18.574',812.438
'0:18.578',827.097
'0:18.582',840.308
'0:18.586',911.346
'0:18.590',925.280
'0:18.594',983.875
'0:18.598',988.264
'0:18.602',1050.566
'0:18.605',1109.885
'0:18.609',1135.538
'0:18.613',1161.917
'0:18.617',1201.463
'0:18.621',1262.273
'0:18.625',1306.208
'0:18.629',1339.916
'0:18.633',1359.689
'0:18.637',1380.953
'0:18.641',1448.369
'0:18.645',1429.320
'0:18.648',1468.142
'0:18.652',1504.023
'0:18.656',1523.796
'0:18.660',1527.461
'0:18.664',1517.233
'0:18.668',1546.509
'0:18.672',1553.114
'0:18.676',1519.406
'0:18.680',1519.406
'0:18.684',1518.682
'0:18.688',1523.071
'0:18.691',1538.455
'0:18.695',1540.671
'0:18.699',1489.364
'0:18.703',1519.406
'0:18.707',1474.704
'0:18.711',1493.753
'0:18.715',1441.039
'0:18.719',1447.602
'0:18.723',1430.045
'0:18.727',1399.277
'0:18.730',1378.013
'0:18.734',1362.629
'0:18.738',1364.845
'0:18.742',1345.797
'0:18.746',1327.472
'0:18.750',1303.310
'0:18.754',1301.094
'0:18.758',1282.046
'0:18.762',1268.111
'0:18.766',1266.662
'0:18.770',1252.003
'0:18.773',1246.889
'0:18.777',1230.781
'0:18.781',1244.673
'0:18.785',1216.846
'0:18.789',1207.343
'0:18.793',1216.122
'0:18.797',1210.241
'0:18.801',1183.863
'0:18.805',1218.295
'0:18.809',1191.960
'0:18.813',1206.576
'0:18.816',1216.846
'0:18.820',1238.111
'0:18.824',1215.397
'0:18.828',1252.727
'0:18.832',1236.619
'0:18.836',1241.008
'0:18.840',1273.267
'0:18.844',1288.651
'0:18.848',1311.364
'0:18.852',1309.873
'0:18.855',1326.024
'0:18.859',1332.586
'0:18.863',1343.581
'0:18.867',1364.121
'0:18.871',1382.402
'0:18.875',1387.558
'0:18.879',1390.456
'0:18.883',1426.380
'0:18.887',1415.385
'0:18.891',1409.505
'0:18.895',1435.883
'0:18.898',1419.050
'0:18.902',1456.423
'0:18.906',1459.321
'0:18.910',1431.494
'0:18.914',1413.937
'0:18.918',1452.758
'0:18.922',1413.937
'0:18.926',1401.451
'0:18.930',1425.655
'0:18.934',1421.266
'0:18.938',1413.937
'0:18.941',1394.121
'0:18.945',1370.683
'0:18.949',1376.564
'0:18.953',1380.229
'0:18.957',1381.678
'0:18.961',1378.013
'0:18.965',1385.342
'0:18.969',1378.737
'0:18.973',1376.564
'0:18.977',1390.456
'0:18.980',1387.558
'0:18.984',1389.007
'0:18.988',1383.169
'0:18.992',1380.953
'0:18.996',1392.672
'0:19.000',1385.342
'0:19.004',1391.223
'0:19.008',1369.959
'0:19.012',1361.180
'0:19.016',1342.856
'0:19.020',1336.975
'0:19.023',1339.916
'0:19.027',1330.413
'0:19.031',1303.310
'0:19.035',1295.981
'0:19.039',1272.543
'0:19.043',1257.159
'0:19.047',1279.105
'0:19.051',1241.775
'0:19.055',1204.403
'0:19.059',1214.673
'0:19.063',1207.343
'0:19.066',1177.300
'0:19.070',1139.928
'0:19.074',1103.280
'0:19.078',1086.447
'0:19.082',1070.339
'0:19.086',1075.453
'0:19.090',1038.847
'0:19.094',1031.517
'0:19.098',975.821
'0:19.102',967.767
'0:19.105',980.210
'0:19.109',979.486
'0:19.113',988.264
'0:19.117',1020.523
'0:19.121',1043.961
'0:19.125',1068.123
'0:19.129',1136.987
'0:19.133',1168.479
'0:19.137',1257.159
'0:19.141',1293.040
'0:19.145',1371.408
'0:19.148',1471.806
'0:19.152',1548.725
'0:19.156',1624.919
'0:19.160',1739.935
'0:19.164',1807.307
'0:19.168',1876.939
'0:19.172',1968.517
'0:19.176',2048.333
'0:19.180',2102.581
'0:19.184',2145.067
'0:19.188',2212.440
'0:19.191',2255.693
'0:19.195',2260.083
'0:19.199',2277.640
'0:19.203',2305.509
'0:19.207',2279.855
'0:19.211',2271.801
'0:19.215',2269.585
'0:19.219',2221.985
'0:19.223',2199.997
'0:19.227',2153.121
'0:19.230',2079.100
'0:19.234',2024.171
'0:19.238',1961.187
'0:19.242',1928.928
'0:19.246',1852.734
'0:19.250',1784.594
'0:19.254',1678.400
'0:19.258',1616.098
'0:19.262',1530.401
'0:19.266',1483.525
'0:19.270',1397.786
'0:19.273',1335.527
'0:19.277',1299.645
'0:19.281',1238.835
'0:19.285',1172.144
'0:19.289',1104.047
'0:19.293',1063.734
'0:19.297',1071.063
'0:19.301',1036.631
'0:19.305',1014.642
'0:19.309',972.156
'0:19.313',995.594
'0:19.316',986.091
'0:19.320',957.497
'0:19.324',989.756
'0:19.328',1002.199
'0:19.332',1013.193
'0:19.336',1027.086
'0:19.340',1027.086
'0:19.344',1038.080
'0:19.348',1064.458
'0:19.352',1071.063
'0:19.355',1095.950
'0:19.359',1106.220
'0:19.363',1118.663
'0:19.367',1114.998
'0:19.371',1145.808
'0:19.375',1144.317
'0:19.379',1195.624
'0:19.383',1185.354
'0:19.387',1201.463
'0:19.391',1239.560
'0:19.395',1208.792
'0:19.398',1249.105
'0:19.402',1274.716
'0:19.406',1246.165
'0:19.410',1277.657
'0:19.414',1306.975
'0:19.418',1312.813
'0:19.422',1317.970
'0:19.426',1317.970
'0:19.430',1339.916
'0:19.434',1351.635
'0:19.438',1356.791
'0:19.441',1367.018
'0:19.445',1327.472
'0:19.449',1370.683
'0:19.453',1357.515
'0:19.457',1356.791
'0:19.461',1358.964
'0:19.465',1373.624
'0:19.469',1394.888
'0:19.473',1401.451
'0:19.477',1443.212
'0:19.480',1506.239
'0:19.484',1526.736
'0:19.488',1583.882
'0:19.492',1675.459
'0:19.496',1715.005
'0:19.500',1805.134
'0:19.504',1881.328
'0:19.508',1946.528
'0:19.512',2017.566
'0:19.516',2093.035
'0:19.520',2167.780
'0:19.523',2230.040
'0:19.527',2279.131
'0:19.531',2330.396
'0:19.535',2340.666
'0:19.539',2372.882
'0:19.543',2394.147
'0:19.547',2421.974
'0:19.551',2415.368
'0:19.555',2408.039
'0:19.559',2375.098
'0:19.563',2339.941
'0:19.566',2315.012
'0:19.570',2270.310
'0:19.574',2235.878
'0:19.578',2194.158
'0:19.582',2149.456
'0:19.586',2069.597
'0:19.590',2035.890
'0:19.594',1973.630
'0:19.598',1915.760
'0:19.602',1846.172
'0:19.605',1779.480
'0:19.609',1735.545
'0:19.613',1701.838
'0:19.617',1643.243
'0:19.621',1581.666
'0:19.625',1539.946
'0:19.629',1473.255
'0:19.633',1431.494
'0:19.637',1387.558
'0:19.641',1367.018
'0:19.645',1330.413
'0:19.648',1308.424
'0:19.652',1243.949
'0:19.656',1233.679
'0:19.660',1230.057
'0:19.664',1162.641
'0:19.668',1180.965
'0:19.672',1132.598
'0:19.676',1102.555
'0:19.680',1113.550
'0:19.684',1109.885
'0:19.688',1083.507
'0:19.691',1054.955
'0:19.695',1030.026
'0:19.699',1019.031
'0:19.703',1035.182
'0:19.707',1006.588
'0:19.711',1008.080
'0:19.715',1033.691
'0:19.719',1024.188
'0:19.723',1000.750
'0:19.727',983.875
'0:19.730',1002.923
'0:19.734',1019.799
'0:19.738',991.204
'0:19.742',994.869
'0:19.746',970.707
'0:19.750',991.929
'0:19.754',990.480
'0:19.758',951.659
'0:19.762',965.551
'0:19.766',956.772
'0:19.770',941.389
'0:19.773',936.275
'0:19.777',927.454
'0:19.781',964.102
'0:19.785',961.161
'0:19.789',948.718
'0:19.793',951.659
'0:19.797',938.448
'0:19.801',969.216
'0:19.805',937.724
'0:19.809',976.545
'0:19.813',951.659
'0:19.816',954.599
'0:19.820',968.491
'0:19.824',945.778
'0:19.828',965.551
'0:19.832',993.420
'0:19.836',1005.864
'0:19.840',973.647
'0:19.844',1008.080
'0:19.848',1055.680
'0:19.852',1041.745
'0:19.855',1095.950
'0:19.859',1140.652
'0:19.863',1158.252
'0:19.867',1222.727
'0:19.871',1258.608
'0:19.875',1290.824
'0:19.879',1345.797
'0:19.883',1373.624
'0:19.887',1421.991
'0:19.891',1479.136
'0:19.895',1562.617
'0:19.898',1616.098
'0:19.902',1637.362
'0:19.906',1713.556
'0:19.910',1738.443
'0:19.914',1785.361
'0:19.918',1809.523
'0:19.922',1812.464
'0:19.926',1857.890
'0:19.930',1854.226
'0:19.934',1868.118
'0:19.938',1861.555
'0:19.941',1823.458
'0:19.945',1805.134
'0:19.949',1791.199
'0:19.953',1774.367
'0:19.957',1709.892
'0:19.961',1695.957
'0:19.965',1616.098
'0:19.969',1575.828
'0:19.973',1512.077
'0:19.977',1483.525
'0:19.980',1400.726
'0:19.984',1338.467
'0:19.988',1299.645
'0:19.992',1267.387
'0:19.996',1212.457
'0:20.000',1186.079
'0:20.004',1134.047
'0:20.008',1109.160
'0:20.012',1095.950
'0:20.016',1089.387
'0:20.020',1070.339
'0:20.023',1063.009
'0:20.027',1070.339
'0:20.031',1044.685
'0:20.035',1057.896
'0:20.039',1066.674
'0:20.043',1115.766
'0:20.047',1142.868
'0:20.051',1133.323
'0:20.055',1182.414
'0:20.059',1225.625
'0:20.063',1209.517
'0:20.066',1258.608
'0:20.070',1295.256
'0:20.074',1307.700
'0:20.078',1336.975
'0:20.082',1356.791
'0:20.086',1375.072
'0:20.090',1380.229
'0:20.094',1391.948
'0:20.098',1378.737
'0:20.102',1362.629
'0:20.105',1364.121
'0:20.109',1404.391
'0:20.113',1402.218
'0:20.117',1394.888
'0:20.121',1382.402
'0:20.125',1377.288
'0:20.129',1372.175
'0:20.133',1358.240
'0:20.137',1360.456
'0:20.141',1353.126
'0:20.145',1323.083
'0:20.148',1302.543
'0:20.152',1291.591
'0:20.156',1308.424
'0:20.160',1310.640
'0:20.164',1298.921
'0:20.168',1255.668
'0:20.172',1254.219
'0:20.176',1276.932
'0:20.180',1271.051
'0:20.184',1241.775
'0:20.188',1269.602
'0:20.191',1265.938
'0:20.195',1255.668
'0:20.199',1278.381
'0:20.203',1257.884
'0:20.207',1284.986
'0:20.211',1319.418
'0:20.215',1334.078
'0:20.219',1357.515
'0:20.223',1377.288
'0:20.227',1396.337
'0:20.230',1380.229
'0:20.234',1441.039
'0:20.238',1424.888
'0:20.242',1472.531
'0:20.246',1493.028
'0:20.250',1493.028
'0:20.254',1506.239
'0:20.258',1515.742
'0:20.262',1535.515
'0:20.266',1546.509
'0:20.270',1550.174
'0:20.273',1556.779
'0:20.277',1561.893
'0:20.281',1591.936
'0:20.285',1597.816
'0:20.289',1567.049
'0:20.293',1564.833
'0:20.297',1584.606
'0:20.301',1575.103
'0:20.305',1570.714
'0:20.309',1575.103
'0:20.313',1528.185
'0:20.316',1539.946
'0:20.320',1528.185
'0:20.324',1512.077
'0:20.328',1491.579
'0:20.332',1496.693
'0:20.336',1499.634
'0:20.340',1452.034
'0:20.344',1438.823
'0:20.348',1450.542
'0:20.352',1427.829
'0:20.355',1386.834
'0:20.359',1417.601
'0:20.363',1383.894
'0:20.367',1345.797
'0:20.371',1349.461
'0:20.375',1354.575
'0:20.379',1323.083
'0:20.383',1295.981
'0:20.387',1293.765
'0:20.391',1290.824
'0:20.395',1262.273
'0:20.398',1276.932
'0:20.402',1262.273
'0:20.406',1229.290
'0:20.410',1225.625
'0:20.414',1220.511
'0:20.418',1211.008
'0:20.422',1214.673
'0:20.426',1217.571
'0:20.430',1221.235
'0:20.434',1246.889
'0:20.438',1269.602
'0:20.441',1275.441
'0:20.445',1245.440
'0:20.449',1248.338
'0:20.453',1280.597
'0:20.457',1276.932
'0:20.461',1262.273
'0:20.465',1250.554
'0:20.469',1244.673
'0:20.473',1247.614
'0:20.477',1211.008
'0:20.480',1227.116
'0:20.484',1199.247
'0:20.488',1196.349
'0:20.492',1158.252
'0:20.496',1138.479
'0:20.500',1154.587
'0:20.504',1124.544
'0:20.508',1095.226
'0:20.512',1081.333
'0:20.516',1078.393
'0:20.520',1057.128
'0:20.523',1021.247
'0:20.527',1030.750
'0:20.531',1039.571
'0:20.535',1100.382
'0:20.539',1125.268
'0:20.543',1151.647
'0:20.547',1170.695
'0:20.551',1238.111
'0:20.555',1302.543
'0:20.559',1342.856
'0:20.563',1423.439
'0:20.566',1494.520
'0:20.570',1561.168
'0:20.574',1628.584
'0:20.578',1734.778
'0:20.582',1774.367
'0:20.586',1853.459
'0:20.590',1916.485
'0:20.594',1972.906
'0:20.598',2008.063
'0:20.602',2039.554
'0:20.605',2071.813
'0:20.609',2073.262
'0:20.613',2096.700
'0:20.617',2060.052
'0:20.621',2065.208
'0:20.625',2032.949
'0:20.629',1982.409
'0:20.633',1947.977
'0:20.637',1904.766
'0:20.641',1831.512
'0:20.645',1784.594
'0:20.648',1705.502
'0:20.652',1657.860
'0:20.656',1560.444
'0:20.660',1514.293
'0:20.664',1431.494
'0:20.668',1359.689
'0:20.672',1241.008
'0:20.676',1209.517
'0:20.680',1142.868
'0:20.684',1060.069
'0:20.688',1016.134
'0:20.691',969.216
'0:20.695',928.221
'0:20.699',902.567
'0:20.703',864.470
'0:20.707',817.595
'0:20.711',839.541
'0:20.715',838.816
'0:20.719',807.325
'0:20.723',804.384
'0:20.727',849.086
'0:20.730',871.075
'0:20.734',908.405
'0:20.738',934.783
'0:20.742',953.832
'0:20.746',964.102
'0:20.750',1031.517
'0:20.754',1090.112
'0:20.758',1130.382
'0:20.762',1181.690
'0:20.766',1202.187
'0:20.770',1230.781
'0:20.773',1308.424
'0:20.777',1354.575
'0:20.781',1400.002
'0:20.785',1402.942
'0:20.789',1440.272
'0:20.793',1493.028
'0:20.797',1501.082
'0:20.801',1506.239
'0:20.805',1534.790
'0:20.809',1558.228
'0:20.813',1574.379
'0:20.816',1599.265
'0:20.820',1578.001
'0:20.824',1599.265
'0:20.828',1588.271
'0:20.832',1588.995
'0:20.836',1578.768
'0:20.840',1553.114
'0:20.844',1526.736
'0:20.848',1542.120
'0:20.852',1526.012
'0:20.855',1498.909
'0:20.859',1513.568
'0:20.863',1476.920
'0:20.867',1441.764
'0:20.871',1470.315
'0:20.875',1443.937
'0:20.879',1427.104
'0:20.883',1411.721
'0:20.887',1384.618
'0:20.891',1366.294
'0:20.895',1339.191
'0:20.898',1348.737
'0:20.902',1321.592
'0:20.906',1291.591
'0:20.910',1314.305
'0:20.914',1282.770
'0:20.918',1281.321
'0:20.922',1257.159
'0:20.926',1285.711
'0:20.930',1282.770
'0:20.934',1254.943
'0:20.938',1280.597
'0:20.941',1256.392
'0:20.945',1276.932
'0:20.949',1257.159
'0:20.953',1292.316
'0:20.957',1252.727
'0:20.961',1295.981
'0:20.965',1266.662
'0:20.969',1304.035
'0:20.973',1325.257
'0:20.977',1291.591
'0:20.980',1342.856
'0:20.984',1317.202
'0:20.988',1362.629
'0:20.992',1367.018
'0:20.996',1366.294
'0:21.000',1351.635
'0:21.004',1369.234
'0:21.008',1378.737
'0:21.012',1388.283
'0:21.016',1390.456
'0:21.020',1394.888
'0:21.023',1399.277
'0:21.027',1418.326
'0:21.031',1452.034
'0:21.035',1461.536
'0:21.039',1433.709
'0:21.043',1464.477
'0:21.047',1457.872
'0:21.051',1437.374
'0:21.055',1438.099
'0:21.059',1434.434
'0:21.063',1422.715
'0:21.066',1406.607
'0:21.070',1405.840
'0:21.074',1430.769
'0:21.078',1422.715
'0:21.082',1392.672
'0:21.086',1363.354
'0:21.090',1349.461
'0:21.094',1351.635
'0:21.098',1353.126
'0:21.102',1323.808
'0:21.105',1338.467
'0:21.109',1295.981
'0:21.113',1319.418
'0:21.117',1297.430
'0:21.121',1287.160
'0:21.125',1257.159
'0:21.129',1284.262
'0:21.133',1252.727
'0:21.137',1227.841
'0:21.141',1221.960
'0:21.145',1246.889
'0:21.148',1213.181
'0:21.152',1205.852
'0:21.156',1186.803
'0:21.160',1180.965
'0:21.164',1156.036
'0:21.168',1120.879
'0:21.172',1104.771
'0:21.176',1119.430
'0:21.180',1082.058
'0:21.184',1077.668
'0:21.188',1084.231
'0:21.191',1038.080
'0:21.195',1031.517
'0:21.199',1052.739
'0:21.203',1041.020
'0:21.207',1010.977
'0:21.211',1018.307
'0:21.215',1065.183
'0:21.219',1104.771
'0:21.223',1131.149
'0:21.227',1175.084
'0:21.230',1208.792
'0:21.234',1260.057
'0:21.238',1347.245
'0:21.242',1439.548
'0:21.246',1490.855
'0:21.250',1600.714
'0:21.254',1697.448
'0:21.258',1825.632
'0:21.262',1913.544
'0:21.266',2029.284
'0:21.270',2118.689
'0:21.273',2238.818
'0:21.277',2303.293
'0:21.281',2390.482
'0:21.285',2472.514
'0:21.289',2542.145
'0:21.293',2562.643
'0:21.297',2619.788
'0:21.301',2638.837
'0:21.305',2616.848
'0:21.309',2630.016
'0:21.313',2580.967
'0:21.316',2559.702
'0:21.320',2486.449
'0:21.324',2437.357
'0:21.328',2359.714
'0:21.332',2275.466
'0:21.336',2171.445
'0:21.340',2049.824
'0:21.344',1946.528
'0:21.348',1820.518
'0:21.352',1695.232
'0:21.355',1610.260
'0:21.359',1501.849
'0:21.363',1356.791
'0:21.367',1252.003
'0:21.371',1169.971
'0:21.375',1054.231
'0:21.379',973.647
'0:21.383',877.638
'0:21.387',843.206
'0:21.391',793.390
'0:21.395',723.076
'0:21.398',695.249
'0:21.402',679.141
'0:21.406',718.687
'0:21.410',698.914
'0:21.414',727.466
'0:21.418',777.282
'0:21.422',790.492
'0:21.426',849.086
'0:21.430',879.854
'0:21.434',945.053
'0:21.438',991.204
'0:21.441',1027.086
'0:21.445',1081.333
'0:21.449',1151.647
'0:21.453',1235.895
'0:21.457',1271.051
'0:21.461',1308.424
'0:21.465',1358.240
'0:21.469',1414.661
'0:21.473',1450.542
'0:21.477',1517.233
'0:21.480',1548.725
'0:21.484',1601.481
'0:21.488',1587.546
'0:21.492',1620.530
'0:21.496',1658.627
'0:21.500',1690.119
'0:21.504',1687.178
'0:21.508',1703.286
'0:21.512',1701.113
'0:21.516',1680.573
'0:21.520',1657.860
'0:21.523',1648.357
'0:21.527',1648.357
'0:21.531',1635.146
'0:21.535',1622.703
'0:21.539',1605.146
'0:21.543',1602.930
'0:21.547',1565.558
'0:21.551',1532.617
'0:21.555',1553.839
'0:21.559',1498.909
'0:21.563',1493.028
'0:21.566',1475.471
'0:21.570',1466.650
'0:21.574',1440.272
'0:21.578',1411.721
'0:21.582',1440.272
'0:21.586',1423.439
'0:21.590',1389.007
'0:21.594',1365.569
'0:21.598',1356.024
'0:21.602',1349.461
'0:21.605',1345.797
'0:21.609',1343.581
'0:21.613',1342.132
'0:21.617',1347.245
'0:21.621',1350.910
'0:21.625',1315.754
'0:21.629',1343.581
'0:21.633',1345.797
'0:21.637',1323.083
'0:21.641',1307.700
'0:21.645',1326.024
'0:21.648',1353.851
'0:21.652',1311.364
'0:21.656',1327.472
'0:21.660',1331.137
'0:21.664',1332.586
'0:21.668',1353.851
'0:21.672',1378.737
'0:21.676',1358.964
'0:21.680',1347.970
'0:21.684',1383.169
'0:21.688',1402.218
'0:21.691',1383.169
'0:21.695',1367.785
'0:21.699',1357.515
'0:21.703',1351.635
'0:21.707',1366.294
'0:21.711',1356.024
'0:21.715',1322.359
'0:21.719',1331.862
'0:21.723',1341.407
'0:21.727',1300.370
'0:21.730',1290.100
'0:21.734',1273.267
'0:21.738',1285.711
'0:21.742',1238.111
'0:21.746',1252.003
'0:21.750',1225.625
'0:21.754',1247.614
'0:21.758',1200.738
'0:21.762',1207.343
'0:21.766',1235.170
'0:21.770',1216.122
'0:21.773',1189.019
'0:21.777',1230.057
'0:21.781',1227.841
'0:21.785',1219.062
'0:21.789',1198.522
'0:21.793',1241.775
'0:21.797',1231.505
'0:21.801',1248.338
'0:21.805',1222.727
'0:21.809',1254.943
'0:21.813',1254.219
'0:21.816',1251.278
'0:21.820',1281.321
'0:21.824',1246.889
'0:21.828',1293.040
'0:21.832',1261.548
'0:21.836',1260.057
'0:21.840',1246.165
'0:21.844',1282.046
'0:21.848',1254.219
'0:21.852',1238.835
'0:21.855',1251.278
'0:21.859',1256.392
'0:21.863',1239.560
'0:21.867',1229.290
'0:21.871',1208.792
'0:21.875',1200.738
'0:21.879',1208.792
'0:21.883',1207.343
'0:21.887',1195.624
'0:21.891',1142.868
'0:21.895',1159.701
'0:21.898',1155.311
'0:21.902',1114.274
'0:21.906',1142.868
'0:21.910',1120.879
'0:21.914',1094.501
'0:21.918',1076.944
'0:21.922',1094.501
'0:21.926',1117.214
'0:21.930',1082.058
'0:21.934',1112.825
'0:21.938',1156.760
'0:21.941',1178.025
'0:21.945',1189.019
'0:21.949',1241.775
'0:21.953',1268.878
'0:21.957',1282.046
'0:21.961',1333.353
'0:21.965',1394.121
'0:21.969',1438.823
'0:21.973',1481.309
'0:21.977',1550.174
'0:21.980',1579.492
'0:21.984',1630.033
'0:21.988',1673.243
'0:21.992',1709.167
'0:21.996',1751.653
'0:22.000',1797.805
'0:22.004',1823.458
'0:22.008',1810.248
'0:22.012',1832.237
'0:22.016',1858.615
'0:22.020',1835.902
'0:22.023',1854.226
'0:22.027',1856.399
'0:22.031',1813.188
'0:22.035',1824.907
'0:22.039',1805.134
'0:22.043',1764.821
'0:22.047',1716.497
'0:22.051',1708.443
'0:22.055',1674.735
'0:22.059',1603.655
'0:22.063',1563.384
'0:22.066',1506.963
'0:22.070',1462.985
'0:22.074',1399.277
'0:22.078',1372.175
'0:22.082',1324.532
'0:22.086',1282.770
'0:22.090',1250.554
'0:22.094',1220.511
'0:22.098',1173.635
'0:22.102',1131.149
'0:22.105',1128.209
'0:22.109',1112.825
'0:22.113',1089.387
'0:22.117',1117.214
'0:22.121',1078.393
'0:22.125',1113.550
'0:22.129',1139.203
'0:22.133',1162.641
'0:22.137',1178.749
'0:22.141',1202.187
'0:22.145',1220.511
'0:22.148',1235.170
'0:22.152',1254.219
'0:22.156',1328.921
'0:22.160',1347.970
'0:22.164',1374.348
'0:22.168',1386.067
'0:22.172',1427.104
'0:22.176',1460.088
'0:22.180',1472.531
'0:22.184',1531.125
'0:22.188',1547.233
'0:22.191',1526.736
'0:22.195',1575.103
'0:22.199',1546.509
'0:22.203',1580.217
'0:22.207',1553.839
'0:22.211',1594.876
'0:22.215',1564.833
'0:22.219',1545.060
'0:22.223',1537.731
'0:22.227',1546.509
'0:22.230',1535.515
'0:22.234',1516.466
'0:22.238',1526.736
'0:22.242',1487.915
'0:22.246',1457.872
'0:22.250',1454.207
'0:22.254',1452.034
'0:22.258',1438.823
'0:22.262',1375.072
'0:22.266',1354.575
'0:22.270',1354.575
'0:22.273',1293.040
'0:22.277',1244.673
'0:22.281',1233.679
'0:22.285',1189.744
'0:22.289',1167.755
'0:22.293',1110.609
'0:22.297',1123.095
'0:22.301',1090.836
'0:22.305',1056.404
'0:22.309',1024.912
'0:22.313',994.145
'0:22.316',1001.474
'0:22.320',1013.193
'0:22.324',1015.367
'0:22.328',1019.799
'0:22.332',1016.134
'0:22.336',1007.313
'0:22.340',1002.199
'0:22.344',1031.517
'0:22.348',1074.728
'0:22.352',1076.177
'0:22.355',1071.063
'0:22.359',1132.598
'0:22.363',1110.609
'0:22.367',1155.311
'0:22.371',1197.798
'0:22.375',1222.727
'0:22.379',1243.949
'0:22.383',1265.938
'0:22.387',1286.435
'0:22.391',1290.100
'0:22.395',1282.046
'0:22.398',1336.975
'0:22.402',1323.808
'0:22.406',1372.899
'0:22.410',1391.223
'0:22.414',1406.607
'0:22.418',1406.607
'0:22.422',1394.888
'0:22.426',1414.661
'0:22.430',1421.266
'0:22.434',1441.039
'0:22.438',1446.877
'0:22.441',1490.855
'0:22.445',1497.418
'0:22.449',1500.358
'0:22.453',1500.358
'0:22.457',1502.574
'0:22.461',1484.250
'0:22.465',1465.201
'0:22.469',1479.861
'0:22.473',1481.309
'0:22.477',1493.028
'0:22.480',1456.423
'0:22.484',1479.861
'0:22.488',1484.250
'0:22.492',1475.471
'0:22.496',1468.866
'0:22.500',1459.321
'0:22.504',1452.758
'0:22.508',1435.883
'0:22.512',1405.115
'0:22.516',1389.732
'0:22.520',1410.272
'0:22.523',1408.056
'0:22.527',1367.785
'0:22.531',1391.223
'0:22.535',1369.234
'0:22.539',1357.515
'0:22.543',1345.072
'0:22.547',1346.521
'0:22.551',1318.694
'0:22.555',1339.916
'0:22.559',1322.359
'0:22.563',1290.824
'0:22.566',1297.430
'0:22.570',1267.387
'0:22.574',1247.614
'0:22.578',1221.235
'0:22.582',1235.895
'0:22.586',1227.841
'0:22.590',1200.014
'0:22.594',1169.971
'0:22.598',1185.354
'0:22.602',1157.527
'0:22.605',1134.814
'0:22.609',1094.501
'0:22.613',1104.047
'0:22.617',1074.728
'0:22.621',1069.614
'0:22.625',1069.614
'0:22.629',1068.123
'0:22.633',1114.998
'0:22.637',1128.209
'0:22.641',1181.690
'0:22.645',1228.565
'0:22.648',1270.327
'0:22.652',1353.851
'0:22.656',1416.834
'0:22.660',1486.466
'0:22.664',1581.666
'0:22.668',1676.184
'0:22.672',1781.696
'0:22.676',1889.382
'0:22.680',1973.630
'0:22.684',2099.640
'0:22.688',2167.013
'0:22.691',2263.023
'0:22.695',2356.050
'0:22.699',2397.087
'0:22.703',2452.741
'0:22.707',2504.773
'0:22.711',2539.929
'0:22.715',2551.648
'0:22.719',2544.319
'0:22.723',2520.156
'0:22.727',2476.179
'0:22.730',2452.741
'0:22.734',2394.871
'0:22.738',2317.952
'0:22.742',2235.878
'0:22.746',2181.673
'0:22.750',2061.543
'0:22.754',1969.241
'0:22.758',1903.317
'0:22.762',1788.259
'0:22.766',1658.627
'0:22.770',1569.222
'0:22.773',1459.321
'0:22.777',1383.169
'0:22.781',1282.770
'0:22.785',1227.841
'0:22.789',1152.371
'0:22.793',1073.279
'0:22.797',1018.307
'0:22.801',987.540
'0:22.805',957.497
'0:22.809',932.610
'0:22.813',890.124
'0:22.816',907.681
'0:22.820',933.334
'0:22.824',951.659
'0:22.828',973.647
'0:22.832',980.934
'0:22.836',1038.080
'0:22.840',1106.944
'0:22.844',1141.377
'0:22.848',1209.517
'0:22.852',1236.619
'0:22.855',1310.640
'0:22.859',1355.299
'0:22.863',1369.959
'0:22.867',1440.272
'0:22.871',1473.255
'0:22.875',1504.023
'0:22.879',1534.790
'0:22.883',1553.114
'0:22.887',1580.217
'0:22.891',1608.811
'0:22.895',1617.589
'0:22.898',1607.319
'0:22.902',1654.195
'0:22.906',1619.763
'0:22.910',1657.135
'0:22.914',1614.649
'0:22.918',1647.632
'0:22.922',1621.254
'0:22.926',1597.049
'0:22.930',1589.762
'0:22.934',1561.168
'0:22.938',1542.844
'0:22.941',1556.779
'0:22.945',1543.569
'0:22.949',1527.461
'0:22.953',1506.239
'0:22.957',1483.525
'0:22.961',1465.201
'0:22.965',1424.888
'0:22.969',1399.277
'0:22.973',1380.229
'0:22.977',1388.283
'0:22.980',1363.354
'0:22.984',1334.802
'0:22.988',1311.364
'0:22.992',1287.927
'0:22.996',1279.105
'0:23.000',1273.267
'0:23.004',1296.705
'0:23.008',1290.824
'0:23.012',1279.872
'0:23.016',1262.997
'0:23.020',1304.759
'0:23.023',1264.489
'0:23.027',1296.705
'0:23.031',1282.770
'0:23.035',1312.813
'0:23.039',1298.921
'0:23.043',1295.981
'0:23.047',1329.688
'0:23.051',1301.094
'0:23.055',1317.202
'0:23.059',1346.521
'0:23.063',1311.364
'0:23.066',1344.305
'0:23.070',1360.456
'0:23.074',1331.137
'0:23.078',1359.689
'0:23.082',1353.126
'0:23.086',1353.126
'0:23.090',1346.521
'0:23.094',1350.186
'0:23.098',1378.737
'0:23.102',1354.575
'0:23.105',1391.223
'0:23.109',1393.397
'0:23.113',1394.888
'0:23.117',1397.786
'0:23.121',1384.618
'0:23.125',1381.678
'0:23.129',1385.342
'0:23.133',1385.342
'0:23.137',1357.515
'0:23.141',1337.742
'0:23.145',1354.575
'0:23.148',1363.354
'0:23.152',1331.137
'0:23.156',1339.916
'0:23.160',1337.742
'0:23.164',1292.316
'0:23.168',1305.484
'0:23.172',1275.441
'0:23.176',1284.986
'0:23.180',1256.392
'0:23.184',1266.662
'0:23.188',1254.943
'0:23.191',1260.824
'0:23.195',1238.835
'0:23.199',1217.571
'0:23.203',1248.338
'0:23.207',1232.954
'0:23.211',1227.116
'0:23.215',1213.906
'0:23.219',1224.900
'0:23.223',1213.906
'0:23.227',1249.830
'0:23.230',1228.565
'0:23.234',1221.960
'0:23.238',1257.159
'0:23.242',1219.787
'0:23.246',1207.343
'0:23.250',1238.111
'0:23.254',1224.900
'0:23.258',1206.576
'0:23.262',1190.468
'0:23.266',1179.474
'0:23.270',1160.425
'0:23.273',1146.533
'0:23.277',1097.441
'0:23.281',1074.004
'0:23.285',1098.166
'0:23.289',1059.344
'0:23.293',1080.566
'0:23.297',1029.301
'0:23.301',1063.009
'0:23.305',1021.972
'0:23.309',1010.253
'0:23.313',1047.626
'0:23.316',1032.242
'0:23.320',997.085
'0:23.324',1036.631
'0:23.328',1004.415
'0:23.332',1060.793
'0:23.336',1055.680
'0:23.340',1088.663
'0:23.344',1083.507
'0:23.348',1134.047
'0:23.352',1183.138
'0:23.355',1224.176
'0:23.359',1262.997
'0:23.363',1347.245
'0:23.367',1372.899
'0:23.371',1429.320
'0:23.375',1523.071
'0:23.379',1554.563
'0:23.383',1641.752
'0:23.387',1709.892
'0:23.391',1780.205
'0:23.395',1840.291
'0:23.398',1875.447
'0:23.402',1916.485
'0:23.406',1953.133
'0:23.410',1987.565
'0:23.414',2035.165
'0:23.418',2046.884
'0:23.422',2051.998
'0:23.426',2046.884
'0:23.430',2042.495
'0:23.434',2034.441
'0:23.438',2010.236
'0:23.441',1945.036
'0:23.445',1911.371
'0:23.449',1871.058
'0:23.453',1832.237
'0:23.457',1761.156
'0:23.461',1702.562
'0:23.465',1670.346
'0:23.469',1573.612
'0:23.473',1513.568
'0:23.477',1455.698
'0:23.480',1427.104
'0:23.484',1373.624
'0:23.488',1307.700
'0:23.492',1293.040
'0:23.496',1252.727
'0:23.500',1223.451
'0:23.504',1187.528
