'sample interval','wrist_ppg'
'0.00390625 sec','mV'
0,1631.497
1,1652.750
2,1663.731
3,1633.686
4,1643.218
5,1659.352
6,1662.990
7,1664.472
8,1682.795
9,1697.447
10,1690.845
11,1653.491
12,1657.870
13,1657.870
14,1659.352
15,1652.009
16,1657.870
17,1647.631
18,1635.909
19,1601.452
20,1573.631
21,1561.169
22,1553.859
23,1569.960
24,1550.929
25,1542.138
26,1536.277
27,1519.403
28,1534.054
29,1510.612
30,1549.447
31,1540.656
32,1552.377
33,1591.213
34,1610.243
35,1653.491
36,1726.009
37,1736.989
38,1813.919
39,1823.452
40,1891.591
41,1939.183
42,1980.949
43,2023.456
44,2057.138
45,2084.994
46,2140.670
47,2145.049
48,2139.188
49,2142.860
50,2150.910
51,2139.929
52,2117.935
53,2071.790
54,2043.969
55,1972.158
56,1938.476
57,1879.869
58,1819.039
59,1749.452
60,1699.636
61,1588.283
62,1559.720
63,1456.417
64,1391.208
65,1339.944
66,1261.532
67,1194.875
68,1145.059
69,1086.452
70,1009.522
71,978.770
72,931.144
73,893.790
74,856.403
75,819.790
76,789.005
77,739.930
78,745.791
79,701.094
80,737.000
81,717.228
82,714.298
83,695.975
84,747.980
85,719.417
86,773.612
87,758.960
88,778.024
89,834.442
90,857.144
91,879.105
92,909.149
93,915.010
94,916.492
95,961.895
96,993.422
97,1012.452
98,1046.168
99,1104.034
100,1115.015
101,1125.288
102,1185.343
103,1189.014
104,1212.457
105,1274.735
106,1278.373
107,1286.457
108,1309.900
109,1350.924
110,1337.721
111,1353.114
112,1386.830
113,1421.994
114,1412.462
115,1413.203
116,1404.412
117,1434.423
118,1418.322
119,1455.676
120,1425.631
121,1431.492
122,1435.164
123,1452.005
124,1434.423
125,1416.133
126,1462.278
127,1424.183
128,1461.537
129,1438.835
130,1464.467
131,1473.258
132,1468.879
133,1504.044
134,1482.790
135,1482.790
136,1490.099
137,1500.372
138,1516.472
139,1520.144
140,1479.119
141,1494.511
142,1471.069
143,1468.879
144,1500.372
145,1475.447
146,1463.019
147,1465.208
148,1485.720
149,1472.517
150,1454.228
151,1455.676
152,1466.656
153,1445.437
154,1487.910
155,1493.770
156,1468.138
157,1491.581
158,1525.263
159,1519.403
160,1547.258
161,1567.029
162,1596.333
163,1646.149
164,1689.363
165,1709.875
166,1723.820
167,1740.661
168,1777.307
169,1810.248
170,1824.900
171,1852.755
172,1862.287
173,1871.785
174,1905.501
175,1878.387
176,1877.646
177,1868.148
178,1868.855
179,1876.939
180,1851.273
181,1837.362
182,1805.869
183,1783.168
184,1746.521
185,1750.900
186,1697.447
187,1702.566
188,1663.731
189,1621.965
190,1576.561
191,1550.929
192,1539.208
193,1490.099
194,1477.670
195,1472.517
196,1419.063
197,1418.322
198,1375.108
199,1333.342
200,1303.298
201,1312.830
202,1284.234
203,1208.786
204,1186.084
205,1129.666
206,1120.134
207,1080.591
208,1016.865
209,967.756
210,895.238
211,887.188
212,836.631
213,767.751
214,752.392
215,687.184
216,669.602
217,628.577
218,572.159
219,554.577
220,483.508
221,498.900
222,468.856
223,410.249
224,379.497
225,392.667
226,388.288
227,372.154
228,367.035
229,361.174
230,361.174
231,358.244
232,370.706
233,386.065
234,373.636
235,424.160
236,435.174
237,471.079
238,529.686
239,538.477
240,597.084
241,685.702
242,734.810
243,802.916
244,883.517
245,927.472
246,1018.313
247,1085.711
248,1140.647
249,1182.413
250,1272.512
251,1340.651
252,1394.139
253,1435.905
254,1455.676
255,1530.417
256,1519.403
257,1577.302
258,1550.188
259,1578.010
260,1569.219
261,1563.358
262,1574.372
263,1531.865
264,1490.840
265,1498.890
266,1449.074
267,1425.631
268,1382.417
269,1333.342
270,1274.735
271,1213.905
272,1165.571
273,1141.388
274,1090.831
275,1055.667
276,983.890
277,987.561
278,945.795
279,926.731
280,902.581
281,889.378
282,887.188
283,861.523
284,890.860
285,888.637
286,907.701
287,897.428
288,964.118
289,979.477
290,1024.915
291,1057.149
292,1084.970
293,1095.243
294,1179.482
295,1207.337
296,1265.203
297,1307.677
298,1348.735
299,1374.367
300,1400.740
301,1422.701
302,1493.029
303,1514.283
304,1522.333
305,1575.079
306,1602.193
307,1609.536
308,1632.979
309,1661.541
310,1671.073
311,1684.243
312,1708.427
313,1741.402
314,1705.497
315,1715.029
316,1725.268
317,1713.547
318,1678.382
319,1646.890
320,1630.049
321,1605.865
322,1596.333
323,1563.358
324,1555.308
325,1500.372
326,1507.681
327,1455.676
328,1420.512
329,1410.272
330,1391.949
331,1368.506
332,1355.303
333,1298.885
334,1282.044
335,1287.164
336,1295.248
337,1242.502
338,1264.462
339,1235.159
340,1268.134
341,1259.343
342,1252.741
343,1279.855
344,1249.070
345,1259.343
346,1306.228
347,1273.253
348,1294.507
349,1311.348
350,1320.880
351,1336.273
352,1361.905
353,1369.248
354,1350.183
355,1357.526
356,1394.880
357,1425.631
358,1408.049
359,1410.272
360,1450.556
361,1432.233
362,1444.696
363,1481.308
364,1453.487
365,1503.303
366,1482.790
367,1512.094
368,1522.333
369,1512.094
370,1533.347
371,1542.845
372,1521.626
373,1553.859
374,1565.581
375,1547.999
376,1547.999
377,1551.636
378,1557.497
379,1571.442
380,1567.029
381,1568.511
382,1556.049
383,1549.447
384,1556.790
385,1551.636
386,1553.118
387,1547.258
388,1496.701
389,1513.542
390,1460.796
391,1444.696
392,1444.696
393,1416.840
394,1349.442
395,1341.392
396,1333.342
397,1278.373
398,1238.089
399,1233.710
400,1218.318
401,1172.880
402,1147.248
403,1167.761
404,1158.970
405,1147.989
406,1135.527
407,1143.577
408,1149.438
409,1155.298
410,1168.502
411,1161.900
412,1233.710
413,1231.487
414,1257.153
415,1315.760
416,1385.348
417,1425.631
418,1435.164
419,1479.119
420,1558.238
421,1564.840
422,1608.054
423,1646.890
424,1695.965
425,1717.959
426,1734.800
427,1790.477
428,1777.307
429,1790.477
430,1801.457
431,1780.945
432,1758.243
433,1778.755
434,1758.243
435,1730.388
436,1705.497
437,1638.099
438,1616.845
439,1578.751
440,1577.302
441,1508.422
442,1460.088
443,1430.785
444,1386.830
445,1358.974
446,1341.392
447,1293.025
448,1253.482
449,1263.721
450,1226.368
451,1189.755
452,1167.020
453,1147.248
454,1139.198
455,1157.521
456,1147.248
457,1134.786
458,1142.870
459,1144.318
460,1145.800
461,1149.438
462,1137.009
463,1137.009
464,1133.338
465,1189.755
466,1187.532
467,1180.223
468,1223.437
469,1230.780
470,1273.994
471,1260.791
472,1299.626
473,1309.159
474,1320.880
475,1343.582
476,1391.949
477,1419.063
478,1432.974
479,1429.303
480,1446.885
481,1490.840
482,1482.049
483,1531.124
484,1549.447
485,1556.049
486,1535.536
487,1550.929
488,1558.238
489,1580.940
490,1583.163
491,1580.233
492,1580.233
493,1584.611
494,1578.010
495,1591.213
496,1607.313
497,1610.984
498,1565.581
499,1565.581
500,1583.870
501,1577.302
502,1533.347
503,1554.567
504,1515.765
505,1542.138
506,1495.960
507,1531.124
508,1494.511
509,1477.670
510,1488.651
511,1458.606
512,1480.601
513,1481.308
514,1456.417
515,1447.626
516,1424.183
517,1457.865
518,1425.631
519,1429.303
520,1410.272
521,1452.746
522,1423.442
523,1418.322
524,1406.601
525,1409.531
526,1408.049
527,1451.297
528,1445.437
529,1442.506
530,1429.303
531,1445.437
532,1461.537
533,1505.492
534,1487.910
535,1531.124
536,1503.303
537,1546.517
538,1539.915
539,1597.074
540,1577.302
541,1608.054
542,1641.029
543,1645.408
544,1637.358
545,1653.491
546,1662.990
547,1712.098
548,1711.357
549,1733.318
550,1741.402
551,1733.318
552,1729.680
553,1760.432
554,1761.173
555,1753.831
556,1729.680
557,1726.750
558,1725.268
559,1722.338
560,1758.243
561,1720.889
562,1720.889
563,1749.452
564,1739.179
565,1715.029
566,1739.179
567,1733.318
568,1701.084
569,1694.516
570,1692.293
571,1676.934
572,1704.756
573,1701.825
574,1676.193
575,1652.009
576,1676.934
577,1668.850
578,1642.477
579,1613.915
580,1601.452
581,1589.024
582,1580.940
583,1575.820
584,1581.681
585,1553.859
586,1544.327
587,1526.004
588,1528.935
589,1519.403
590,1498.183
591,1476.188
592,1440.283
593,1424.183
594,1406.601
595,1415.392
596,1398.551
597,1386.830
598,1390.467
599,1357.526
600,1361.164
601,1345.805
602,1308.418
603,1298.885
604,1319.398
605,1334.083
606,1331.860
607,1315.760
608,1304.746
609,1326.741
610,1342.133
611,1358.974
612,1367.765
613,1372.178
614,1379.487
615,1378.746
616,1406.601
617,1391.949
618,1397.069
619,1419.771
620,1461.537
621,1460.088
622,1452.746
623,1503.303
624,1497.442
625,1522.333
626,1542.845
627,1539.915
628,1580.940
629,1583.163
630,1578.751
631,1602.193
632,1590.472
633,1613.915
634,1575.079
635,1567.770
636,1560.427
637,1509.163
638,1521.626
639,1469.587
640,1416.133
641,1380.969
642,1361.164
643,1290.094
644,1254.930
645,1183.895
646,1134.786
647,1105.482
648,1024.915
649,986.820
650,917.940
651,900.358
652,830.771
653,821.980
654,772.905
655,748.721
656,727.467
657,692.303
658,710.626
659,689.373
660,694.493
661,692.303
662,711.367
663,731.139
664,717.935
665,757.512
666,797.055
667,821.980
668,843.233
669,860.074
670,866.676
671,923.801
672,970.686
673,973.617
674,989.010
675,1020.502
676,1087.193
677,1093.054
678,1131.148
679,1155.298
680,1213.905
681,1227.850
682,1264.462
683,1286.457
684,1340.651
685,1361.164
686,1383.158
687,1400.740
688,1422.701
689,1491.581
690,1487.169
691,1528.935
692,1526.004
693,1582.422
694,1564.840
695,1597.074
696,1616.104
697,1613.174
698,1636.617
699,1634.427
700,1638.099
701,1672.522
702,1670.332
703,1662.990
704,1639.547
705,1629.308
706,1614.656
707,1610.984
708,1608.054
709,1624.895
710,1584.611
711,1567.029
712,1584.611
713,1569.219
714,1523.815
715,1535.536
716,1492.322
717,1509.904
718,1465.949
719,1489.392
720,1435.905
721,1465.949
722,1416.840
723,1412.462
724,1442.506
725,1431.492
726,1403.671
727,1391.208
728,1408.049
729,1434.423
730,1399.258
731,1409.531
732,1402.930
733,1408.049
734,1414.651
735,1429.303
736,1432.974
737,1437.353
738,1433.715
739,1452.746
740,1476.188
741,1441.765
742,1463.019
743,1464.467
744,1485.720
745,1452.005
746,1469.587
747,1487.910
748,1463.726
749,1453.487
750,1489.392
751,1463.726
752,1446.144
753,1484.979
754,1460.088
755,1459.347
756,1459.347
757,1443.955
758,1481.308
759,1459.347
760,1461.537
761,1452.005
762,1480.601
763,1461.537
764,1465.208
765,1486.461
766,1464.467
767,1499.631
768,1484.238
769,1475.447
770,1505.492
771,1480.601
772,1517.213
773,1499.631
774,1509.163
775,1508.422
776,1523.815
777,1509.904
778,1520.144
779,1556.049
780,1518.695
781,1552.377
782,1533.347
783,1555.308
784,1520.144
785,1526.004
786,1553.118
787,1528.194
788,1518.695
789,1546.517
790,1532.606
791,1526.004
792,1537.726
793,1572.890
794,1562.651
795,1576.561
796,1612.466
797,1643.959
798,1670.332
799,1698.895
800,1750.193
801,1804.387
802,1821.970
803,1890.109
804,1918.671
805,1937.735
806,2001.462
807,2020.526
808,2046.899
809,2063.740
810,2099.645
811,2109.885
812,2125.277
813,2105.506
814,2131.138
815,2107.695
816,2093.044
817,2076.910
818,2029.317
819,1988.999
820,1950.905
821,1901.089
822,1861.546
823,1835.914
824,1745.039
825,1698.154
826,1645.408
827,1580.940
828,1536.985
829,1479.119
830,1444.696
831,1386.089
832,1327.482
833,1306.228
834,1290.835
835,1216.836
836,1231.487
837,1197.064
838,1171.432
839,1151.661
840,1112.825
841,1120.875
842,1139.198
843,1134.079
844,1130.407
845,1126.736
846,1126.736
847,1133.338
848,1137.009
849,1143.577
850,1150.179
851,1135.527
852,1163.382
853,1159.711
854,1180.964
855,1190.463
856,1178.741
857,1186.084
858,1199.995
859,1241.019
860,1238.089
861,1268.875
862,1286.457
863,1289.387
864,1279.855
865,1301.108
866,1319.398
867,1337.014
868,1315.760
869,1319.398
870,1338.462
871,1361.164
872,1372.885
873,1371.437
874,1323.069
875,1318.691
876,1318.691
877,1302.557
878,1312.089
879,1310.607
880,1306.969
881,1249.811
882,1252.000
883,1241.760
884,1210.268
885,1221.248
886,1157.521
887,1185.343
888,1170.691
889,1143.577
890,1123.806
891,1123.065
892,1122.357
893,1115.756
894,1111.343
895,1076.920
896,1080.591
897,1114.273
898,1120.134
899,1127.477
900,1137.009
901,1140.647
902,1123.065
903,1175.811
904,1180.964
905,1171.432
906,1229.298
907,1211.716
908,1254.930
909,1233.710
910,1283.526
911,1304.039
912,1274.735
913,1319.398
914,1312.830
915,1324.551
916,1350.924
917,1372.885
918,1381.676
919,1395.621
920,1400.740
921,1408.790
922,1421.253
923,1425.631
924,1406.601
925,1403.671
926,1417.581
927,1434.423
928,1432.974
929,1420.512
930,1438.094
931,1452.005
932,1474.740
933,1479.119
934,1461.537
935,1449.815
936,1495.252
937,1468.879
938,1482.049
939,1485.720
940,1490.840
941,1460.796
942,1484.238
943,1490.840
944,1467.397
945,1490.099
946,1455.676
947,1486.461
948,1484.979
949,1457.158
950,1490.099
951,1450.556
952,1462.278
953,1464.467
954,1429.303
955,1418.322
956,1425.631
957,1449.074
958,1430.785
959,1411.721
960,1403.671
961,1434.423
962,1408.049
963,1416.133
964,1431.492
965,1409.531
966,1420.512
967,1418.322
968,1446.144
969,1416.133
970,1416.840
971,1419.063
972,1397.810
973,1427.113
974,1394.880
975,1416.133
976,1380.228
977,1360.456
978,1397.810
979,1389.760
980,1374.367
981,1367.024
982,1366.317
983,1352.373
984,1343.582
985,1308.418
986,1309.159
987,1317.209
988,1321.621
989,1322.328
990,1332.601
991,1356.785
992,1376.557
993,1428.562
994,1454.228
995,1470.328
996,1482.049
997,1529.676
998,1563.358
999,1608.054
1000,1665.920
1001,1739.179
1002,1756.761
1003,1820.521
1004,1865.217
1005,1919.412
1006,1964.849
1007,1999.272
1008,2025.646
1009,2064.481
1010,2068.860
1011,2112.815
1012,2087.924
1013,2099.645
1014,2100.353
1015,2093.785
1016,2071.049
1017,2040.297
1018,1967.780
1019,1924.532
1020,1904.760
1021,1854.203
1022,1783.168
1023,1711.357
1024,1675.452
1025,1574.372
1026,1544.327
1027,1476.929
1028,1372.885
1029,1344.323
1030,1275.443
1031,1206.596
1032,1150.179
1033,1050.547
1034,1041.756
1035,977.288
1036,933.333
1037,906.219
1038,835.890
1039,841.010
1040,783.885
1041,802.916
1042,787.556
1043,769.974
1044,747.239
1045,778.024
1046,769.233
1047,769.974
1048,805.846
1049,853.472
1050,857.885
1051,857.885
1052,887.929
1053,926.024
1054,956.776
1055,987.561
1056,1032.965
1057,1052.736
1058,1101.104
1059,1125.995
1060,1140.647
1061,1178.034
1062,1202.925
1063,1236.641
1064,1233.710
1065,1298.178
1066,1276.925
1067,1342.133
1068,1317.209
1069,1371.437
1070,1353.114
1071,1368.506
1072,1389.019
1073,1413.203
1074,1417.581
1075,1378.746
1076,1394.880
1077,1413.910
1078,1398.551
1079,1374.367
1080,1397.810
1081,1408.790
1082,1391.208
1083,1356.044
1084,1371.437
1085,1388.278
1086,1369.955
1087,1328.930
1088,1345.064
1089,1313.537
1090,1340.651
1091,1317.209
1092,1282.044
1093,1317.209
1094,1273.253
1095,1306.228
1096,1274.735
1097,1264.462
1098,1279.855
1099,1264.462
1100,1284.975
1101,1298.178
1102,1263.014
1103,1298.178
1104,1278.373
1105,1300.367
1106,1298.178
1107,1294.507
1108,1318.691
1109,1335.532
1110,1306.228
1111,1334.083
1112,1362.646
1113,1371.437
1114,1379.487
1115,1383.899
1116,1367.024
1117,1364.835
1118,1396.328
1119,1359.715
1120,1359.715
1121,1392.690
1122,1377.298
1123,1383.158
1124,1383.158
1125,1412.462
1126,1374.367
1127,1422.701
1128,1383.899
1129,1427.854
1130,1412.462
1131,1413.910
1132,1428.562
1133,1416.133
1134,1468.879
1135,1438.094
1136,1487.910
1137,1471.810
1138,1507.681
1139,1477.670
1140,1498.183
1141,1530.417
1142,1503.303
1143,1542.138
1144,1559.720
1145,1529.676
1146,1534.054
1147,1536.985
1148,1563.358
1149,1578.010
1150,1576.561
1151,1583.870
1152,1540.656
1153,1536.985
1154,1548.706
1155,1564.099
1156,1544.327
1157,1551.636
1158,1504.044
1159,1520.885
1160,1476.929
1161,1487.169
1162,1439.576
1163,1448.367
1164,1446.885
1165,1395.621
1166,1399.999
1167,1368.506
1168,1349.442
1169,1334.083
1170,1339.203
1171,1338.462
1172,1342.874
1173,1355.303
1174,1378.039
1175,1381.676
1176,1388.278
1177,1410.272
1178,1471.069
1179,1499.631
1180,1500.372
1181,1572.149
1182,1588.283
1183,1646.890
1184,1662.282
1185,1679.864
1186,1712.098
1187,1775.084
1188,1779.496
1189,1830.761
1190,1829.312
1191,1828.571
1192,1865.217
1193,1862.994
1194,1861.546
1195,1871.785
1196,1841.034
1197,1840.293
1198,1841.775
1199,1791.959
1200,1764.104
1201,1755.313
1202,1725.268
1203,1687.915
1204,1663.731
1205,1611.725
1206,1573.631
1207,1575.820
1208,1516.472
1209,1513.542
1210,1480.601
1211,1468.879
1212,1415.392
1213,1395.621
1214,1395.621
1215,1405.860
1216,1350.183
1217,1346.512
1218,1366.317
1219,1342.874
1220,1329.671
1221,1331.860
1222,1310.607
1223,1336.273
1224,1308.418
1225,1329.671
1226,1312.089
1227,1319.398
1228,1293.025
1229,1327.482
1230,1309.900
1231,1295.955
1232,1319.398
1233,1296.696
1234,1266.652
1235,1306.969
1236,1276.925
1237,1275.443
1238,1295.955
1239,1262.273
1240,1257.153
1241,1293.025
1242,1293.025
1243,1300.367
1244,1266.652
1245,1308.418
1246,1303.298
1247,1314.278
1248,1309.900
1249,1321.621
1250,1367.024
1251,1366.317
1252,1347.994
1253,1368.506
1254,1402.930
1255,1427.113
1256,1425.631
1257,1437.353
1258,1446.144
1259,1439.576
1260,1417.581
1261,1424.183
1262,1435.905
1263,1434.423
1264,1457.158
1265,1430.044
1266,1413.910
1267,1425.631
1268,1430.785
1269,1405.119
1270,1379.487
1271,1372.885
1272,1391.208
1273,1400.740
1274,1358.233
1275,1349.442
1276,1346.512
1277,1372.885
1278,1379.487
1279,1337.721
1280,1346.512
1281,1361.164
1282,1371.437
1283,1376.557
1284,1356.044
1285,1354.596
1286,1363.387
1287,1384.607
1288,1406.601
1289,1416.840
1290,1422.701
1291,1428.562
1292,1434.423
1293,1432.974
1294,1445.437
1295,1445.437
1296,1427.854
1297,1416.133
1298,1443.214
1299,1448.367
1300,1444.696
1301,1453.487
1302,1448.367
1303,1453.487
1304,1435.164
1305,1416.840
1306,1424.924
1307,1440.283
1308,1458.606
1309,1465.208
1310,1460.088
1311,1448.367
1312,1467.397
1313,1424.924
1314,1426.372
1315,1452.746
1316,1449.815
1317,1457.158
1318,1463.019
1319,1430.044
1320,1421.253
1321,1438.094
1322,1427.113
1323,1450.556
1324,1424.924
1325,1414.651
1326,1445.437
1327,1453.487
1328,1419.063
1329,1447.626
1330,1453.487
1331,1413.910
1332,1414.651
1333,1445.437
1334,1442.506
1335,1452.746
1336,1433.715
1337,1427.113
1338,1452.746
1339,1439.576
1340,1431.492
1341,1421.253
1342,1437.353
1343,1419.063
1344,1417.581
1345,1446.885
1346,1427.113
1347,1424.924
1348,1437.353
1349,1436.646
1350,1398.551
1351,1406.601
1352,1423.442
1353,1371.437
1354,1390.467
1355,1364.835
1356,1374.367
1357,1346.512
1358,1317.950
1359,1298.178
1360,1315.760
1361,1286.457
1362,1252.000
1363,1276.925
1364,1263.721
1365,1243.209
1366,1223.437
1367,1243.950
1368,1257.861
1369,1243.209
1370,1227.850
1371,1264.462
1372,1276.184
1373,1272.512
1374,1277.666
1375,1280.596
1376,1292.317
1377,1322.328
1378,1355.303
1379,1367.024
1380,1391.949
1381,1408.790
1382,1449.815
1383,1476.188
1384,1515.024
1385,1507.681
1386,1532.606
1387,1559.720
1388,1611.725
1389,1598.522
1390,1607.313
1391,1646.890
1392,1622.706
1393,1643.959
1394,1643.959
1395,1610.984
1396,1624.188
1397,1591.954
1398,1569.960
1399,1570.701
1400,1537.726
1401,1501.821
1402,1445.437
1403,1450.556
1404,1369.955
1405,1371.437
1406,1306.969
1407,1271.064
1408,1256.412
1409,1200.736
1410,1166.312
1411,1145.800
1412,1079.109
1413,1030.775
1414,1041.756
1415,1001.472
1416,984.631
1417,955.327
1418,951.656
1419,942.124
1420,915.010
1421,926.731
1422,928.954
1423,923.801
1424,912.820
1425,927.472
1426,975.099
1427,975.840
1428,991.199
1429,997.060
1430,1049.098
1431,1071.800
1432,1071.059
1433,1095.984
1434,1131.148
1435,1174.362
1436,1204.407
1437,1213.198
1438,1282.785
1439,1281.303
1440,1328.930
1441,1328.930
1442,1357.526
1443,1405.119
1444,1419.771
1445,1427.113
1446,1463.726
1447,1441.024
1448,1451.297
1449,1473.258
1450,1476.929
1451,1476.188
1452,1481.308
1453,1501.113
1454,1503.303
1455,1517.213
1456,1488.651
1457,1466.656
1458,1463.019
1459,1451.297
1460,1441.765
1461,1447.626
1462,1442.506
1463,1419.063
1464,1431.492
1465,1437.353
1466,1411.721
1467,1389.019
1468,1378.039
1469,1387.537
1470,1399.999
1471,1387.537
1472,1394.139
1473,1411.721
1474,1375.816
1475,1406.601
1476,1409.531
1477,1386.089
1478,1386.089
1479,1397.810
1480,1400.740
1481,1407.342
1482,1422.701
1483,1430.785
1484,1438.094
1485,1481.308
1486,1454.228
1487,1454.935
1488,1471.069
1489,1495.960
1490,1502.562
1491,1484.979
1492,1460.796
1493,1468.138
1494,1484.979
1495,1495.960
1496,1490.099
1497,1454.935
1498,1464.467
1499,1487.169
1500,1492.322
1501,1449.815
1502,1454.228
1503,1476.929
1504,1488.651
1505,1491.581
1506,1487.169
1507,1451.297
1508,1464.467
1509,1474.740
1510,1484.238
1511,1498.890
1512,1474.740
1513,1468.879
1514,1477.670
1515,1490.099
1516,1482.049
1517,1493.770
1518,1515.024
1519,1520.885
1520,1515.765
1521,1526.745
1522,1520.885
1523,1497.442
1524,1505.492
1525,1530.417
1526,1542.845
1527,1554.567
1528,1528.194
1529,1545.068
1530,1563.358
1531,1545.776
1532,1521.626
1533,1528.194
1534,1544.327
1535,1547.999
1536,1520.885
1537,1529.676
1538,1504.044
1539,1498.890
1540,1501.821
1541,1512.835
1542,1495.960
1543,1487.169
1544,1519.403
1545,1526.004
1546,1516.472
1547,1499.631
1548,1536.985
1549,1551.636
1550,1579.492
1551,1587.542
1552,1620.516
1553,1652.009
1554,1728.939
1555,1757.502
1556,1821.970
1557,1868.855
1558,1901.830
1559,1947.267
1560,2003.651
1561,2047.606
1562,2077.651
1563,2126.726
1564,2158.252
1565,2177.283
1566,2170.681
1567,2182.402
1568,2190.486
1569,2167.751
1570,2144.308
1571,2104.024
1572,2060.069
1573,1976.571
1574,1947.975
1575,1853.496
1576,1783.875
1577,1708.427
1578,1646.890
1579,1566.288
1580,1523.074
1581,1452.005
1582,1346.512
1583,1317.950
1584,1230.039
1585,1170.691
1586,1128.218
1587,1082.040
1588,1041.015
1589,1041.015
1590,989.751
1591,980.218
1592,965.567
1593,940.676
1594,933.333
1595,904.029
1596,893.049
1597,887.929
1598,881.328
1599,897.428
1600,898.910
1601,908.442
1602,928.213
1603,933.333
1604,936.263
1605,937.004
1606,942.124
1607,958.965
1608,969.238
1609,970.686
1610,980.218
1611,993.422
1612,991.940
1613,1019.795
1614,1042.497
1615,1040.307
1616,1084.970
1617,1089.382
1618,1095.984
1619,1111.343
1620,1171.432
1621,1190.463
1622,1199.995
1623,1232.969
1624,1230.780
1625,1248.362
1626,1298.885
1627,1297.437
1628,1306.228
1629,1315.760
1630,1356.785
1631,1330.412
1632,1340.651
1633,1375.108
1634,1375.108
1635,1370.696
1636,1390.467
1637,1408.790
1638,1410.980
1639,1405.860
1640,1367.765
1641,1396.328
1642,1412.462
1643,1372.885
1644,1386.830
1645,1378.746
1646,1365.576
1647,1372.178
1648,1405.860
1649,1397.810
1650,1365.576
1651,1386.089
1652,1408.790
1653,1408.790
1654,1365.576
1655,1379.487
1656,1409.531
1657,1406.601
1658,1405.119
1659,1358.233
1660,1368.506
1661,1393.398
1662,1392.690
1663,1356.044
1664,1377.298
1665,1352.373
1666,1348.735
1667,1369.955
1668,1374.367
1669,1362.646
1670,1386.830
1671,1370.696
1672,1367.024
1673,1407.342
1674,1417.581
1675,1419.063
1676,1387.537
1677,1429.303
1678,1437.353
1679,1408.790
1680,1424.183
1681,1457.865
1682,1470.328
1683,1473.258
1684,1438.094
1685,1441.765
1686,1473.999
1687,1487.169
1688,1452.746
1689,1474.740
1690,1491.581
1691,1504.044
1692,1508.422
1693,1509.163
1694,1476.929
1695,1497.442
1696,1523.074
1697,1481.308
1698,1482.049
1699,1490.099
1700,1495.252
1701,1489.392
1702,1496.701
1703,1508.422
1704,1522.333
1705,1530.417
1706,1523.074
1707,1507.681
1708,1493.029
1709,1497.442
1710,1497.442
1711,1517.954
1712,1541.397
1713,1542.845
1714,1544.327
1715,1547.258
1716,1547.258
1717,1551.636
1718,1560.427
1719,1560.427
1720,1569.219
1721,1539.915
1722,1547.999
1723,1576.561
1724,1590.472
1725,1593.402
1726,1582.422
1727,1572.149
1728,1561.169
1729,1594.143
1730,1581.681
1731,1581.681
1732,1583.870
1733,1593.402
1734,1580.940
1735,1556.790
1736,1575.820
1737,1577.302
1738,1545.068
1739,1522.333
1740,1534.054
1741,1510.612
1742,1488.651
1743,1470.328
1744,1459.347
1745,1463.726
1746,1452.005
1747,1394.880
1748,1417.581
1749,1372.885
1750,1389.760
1751,1359.715
1752,1315.760
1753,1331.153
1754,1309.900
1755,1286.457
1756,1312.830
1757,1307.677
1758,1271.805
1759,1273.994
1760,1272.512
1761,1275.443
1762,1283.526
1763,1292.317
1764,1345.064
1765,1349.442
1766,1331.153
1767,1390.467
1768,1375.108
1769,1425.631
1770,1425.631
1771,1448.367
1772,1484.238
1773,1493.029
1774,1496.701
1775,1516.472
1776,1553.118
1777,1585.352
1778,1593.402
1779,1573.631
1780,1575.079
1781,1570.701
1782,1592.661
1783,1601.452
1784,1580.233
1785,1564.099
1786,1550.188
1787,1536.985
1788,1523.815
1789,1491.581
1790,1471.810
1791,1405.860
1792,1390.467
1793,1379.487
1794,1301.108
1795,1306.969
1796,1270.323
1797,1232.969
1798,1194.134
1799,1111.343
1800,1094.502
1801,1054.218
1802,1034.447
1803,967.756
1804,972.168
1805,953.845
1806,931.885
1807,898.910
1808,864.453
1809,875.467
1810,862.264
1811,866.676
1812,850.542
1813,898.910
1814,917.940
1815,913.561
1816,956.035
1817,988.269
1818,1004.402
1819,1053.477
1820,1085.711
1821,1110.636
1822,1142.129
1823,1183.895
1824,1241.019
1825,1258.602
1826,1283.526
1827,1346.512
1828,1338.462
1829,1366.317
1830,1404.412
1831,1441.765
1832,1437.353
1833,1453.487
1834,1486.461
1835,1506.233
1836,1522.333
1837,1526.004
1838,1529.676
1839,1528.194
1840,1532.606
1841,1536.277
1842,1523.815
1843,1493.029
1844,1481.308
1845,1479.119
1846,1477.670
1847,1440.283
1848,1421.994
1849,1429.303
1850,1412.462
1851,1378.039
1852,1387.537
1853,1342.874
1854,1369.248
1855,1334.083
1856,1347.253
1857,1321.621
1858,1303.298
1859,1295.955
1860,1291.576
1861,1299.626
1862,1327.482
1863,1320.139
1864,1301.108
1865,1286.457
1866,1312.830
1867,1295.248
1868,1284.975
1869,1273.994
1870,1314.278
1871,1294.507
1872,1295.248
1873,1298.885
1874,1279.114
1875,1322.328
1876,1290.835
1877,1299.626
1878,1341.392
1879,1326.000
1880,1343.582
1881,1369.248
1882,1350.924
1883,1361.905
1884,1351.665
1885,1399.999
1886,1378.039
1887,1382.417
1888,1380.969
1889,1423.442
1890,1394.139
1891,1404.412
1892,1421.253
1893,1449.815
1894,1423.442
1895,1465.949
1896,1473.999
1897,1441.765
1898,1451.297
1899,1458.606
1900,1494.511
1901,1498.183
1902,1479.860
1903,1494.511
1904,1493.770
1905,1525.263
1906,1512.094
1907,1495.252
1908,1512.835
1909,1530.417
1910,1543.586
1911,1547.258
1912,1555.308
1913,1551.636
1914,1558.979
1915,1524.556
1916,1522.333
1917,1536.277
1918,1535.536
1919,1553.118
1920,1517.954
1921,1495.960
1922,1504.044
1923,1506.233
1924,1448.367
1925,1464.467
1926,1416.840
1927,1424.183
1928,1399.999
1929,1393.398
1930,1401.481
1931,1353.855
1932,1358.233
1933,1335.532
1934,1378.039
1935,1338.462
1936,1371.437
1937,1386.830
1938,1378.039
1939,1394.139
1940,1452.746
1941,1449.074
1942,1501.821
1943,1493.029
1944,1543.586
1945,1591.954
1946,1623.447
1947,1625.636
1948,1660.059
1949,1695.965
1950,1739.920
1951,1776.566
1952,1767.034
1953,1811.730
1954,1800.009
1955,1850.566
1956,1824.900
1957,1856.426
1958,1835.914
1959,1822.711
1960,1819.039
1961,1802.939
1962,1822.711
1963,1802.198
1964,1755.313
1965,1734.059
1966,1709.168
1967,1678.382
1968,1653.491
1969,1616.104
1970,1602.193
1971,1576.561
1972,1527.486
1973,1506.974
1974,1498.890
1975,1461.537
1976,1443.214
1977,1393.398
1978,1388.278
1979,1367.024
1980,1345.805
1981,1313.537
1982,1325.292
1983,1323.069
1984,1304.039
1985,1279.855
1986,1243.950
1987,1236.641
1988,1221.248
1989,1207.337
1990,1211.716
1991,1228.557
1992,1189.755
1993,1158.970
1994,1156.039
1995,1164.830
1996,1167.761
1997,1143.577
1998,1114.273
1999,1114.273
2000,1137.009
2001,1098.914
2002,1128.925
2003,1106.964
2004,1094.502
2005,1116.497
2006,1104.034
2007,1118.686
2008,1097.432
2009,1137.716
2010,1118.686
2011,1164.830
2012,1166.312
2013,1153.850
2014,1178.741
2015,1160.452
2016,1169.243
2017,1204.407
2018,1235.159
2019,1208.786
2020,1217.577
2021,1230.780
2022,1243.209
2023,1293.766
2024,1292.317
2025,1302.557
2026,1296.696
2027,1325.292
2028,1356.785
2029,1359.715
2030,1366.317
2031,1354.596
2032,1351.665
2033,1386.830
2034,1372.885
2035,1369.955
2036,1364.094
2037,1362.646
2038,1368.506
2039,1391.208
2040,1372.178
2041,1358.233
2042,1403.671
2043,1361.905
2044,1378.746
2045,1392.690
2046,1398.551
2047,1404.412
2048,1405.860
2049,1399.999
2050,1373.626
2051,1391.208
2052,1405.860
2053,1403.671
2054,1383.158
2055,1405.119
2056,1424.924
2057,1435.164
2058,1409.531
2059,1454.228
2060,1450.556
2061,1460.088
2062,1471.810
2063,1438.835
2064,1440.283
2065,1445.437
2066,1456.417
2067,1448.367
2068,1487.169
2069,1472.517
2070,1488.651
2071,1491.581
2072,1455.676
2073,1448.367
2074,1453.487
2075,1456.417
2076,1464.467
2077,1472.517
2078,1465.208
2079,1481.308
2080,1477.670
2081,1465.208
2082,1434.423
2083,1436.646
2084,1435.905
2085,1457.865
2086,1452.746
2087,1471.069
2088,1484.238
2089,1477.670
2090,1449.074
2091,1451.297
2092,1473.258
2093,1470.328
2094,1481.308
2095,1464.467
2096,1456.417
2097,1469.587
2098,1436.646
2099,1434.423
2100,1451.297
2101,1464.467
2102,1473.999
2103,1457.865
2104,1465.949
2105,1468.138
2106,1448.367
2107,1427.113
2108,1432.974
2109,1440.283
2110,1436.646
2111,1439.576
2112,1450.556
2113,1471.069
2114,1468.879
2115,1435.905
2116,1435.164
2117,1447.626
2118,1468.879
2119,1472.517
2120,1432.233
2121,1424.924
2122,1427.113
2123,1438.835
2124,1455.676
2125,1421.994
2126,1429.303
2127,1391.949
2128,1401.481
2129,1394.880
2130,1361.905
2131,1353.855
2132,1391.949
2133,1361.905
2134,1357.526
2135,1382.417
2136,1362.646
2137,1405.119
2138,1415.392
2139,1397.069
2140,1438.835
2141,1475.447
2142,1490.099
2143,1517.213
2144,1538.467
2145,1583.163
2146,1636.617
2147,1670.332
2148,1706.945
2149,1753.123
2150,1802.939
2151,1848.343
2152,1883.507
2153,1938.476
2154,1973.640
2155,2002.203
2156,2033.696
2157,2029.317
2158,2054.208
2159,2073.980
2160,2048.347
2161,2060.069
2162,2049.829
2163,1993.412
2164,1981.690
2165,1936.994
2166,1890.850
2167,1845.412
2168,1798.527
2169,1754.572
2170,1684.984
2171,1624.895
2172,1566.288
2173,1498.183
2174,1440.283
2175,1388.278
2176,1324.551
2177,1293.025
2178,1237.348
2179,1168.502
2180,1087.900
2181,1077.661
2182,1032.965
2183,969.979
2184,942.865
2185,957.517
2186,935.522
2187,895.979
2188,889.378
2189,887.929
2190,909.890
2191,934.815
2192,919.422
2193,950.174
2194,947.244
2195,969.979
2196,1006.592
2197,997.801
2198,1013.193
2199,1064.458
2200,1040.307
2201,1059.338
2202,1082.040
2203,1139.939
2204,1156.780
2205,1173.621
2206,1179.482
2207,1183.154
2208,1197.064
2209,1198.546
2210,1243.950
2211,1242.502
2212,1233.710
2213,1229.298
2214,1246.139
2215,1264.462
2216,1270.323
2217,1287.905
2218,1252.741
2219,1283.526
2220,1263.014
2221,1302.557
2222,1285.716
2223,1278.373
2224,1269.582
2225,1270.323
2226,1279.114
2227,1292.317
2228,1294.507
2229,1264.462
2230,1278.373
2231,1293.766
2232,1262.273
2233,1295.248
2234,1258.602
2235,1275.443
2236,1265.203
2237,1293.025
2238,1276.925
2239,1302.557
2240,1303.298
2241,1266.652
2242,1290.835
2243,1309.159
2244,1303.298
2245,1294.507
2246,1303.298
2247,1325.292
2248,1326.000
2249,1328.223
2250,1338.462
2251,1356.044
2252,1335.532
2253,1331.153
2254,1346.512
2255,1361.164
2256,1359.715
2257,1367.024
2258,1389.760
2259,1366.317
2260,1367.024
2261,1415.392
2262,1416.840
2263,1392.690
2264,1410.980
2265,1419.771
2266,1394.880
2267,1419.771
2268,1422.701
2269,1416.840
2270,1454.935
2271,1430.785
2272,1421.253
2273,1432.974
2274,1470.328
2275,1443.955
2276,1433.715
2277,1470.328
2278,1443.214
2279,1437.353
2280,1480.601
2281,1475.447
2282,1478.378
2283,1467.397
2284,1449.074
2285,1493.029
2286,1465.208
2287,1468.138
2288,1515.024
2289,1479.860
2290,1528.935
2291,1495.252
2292,1544.327
2293,1533.347
2294,1520.885
2295,1548.706
2296,1573.631
2297,1577.302
2298,1553.118
2299,1575.079
2300,1560.427
2301,1594.143
2302,1558.979
2303,1600.745
2304,1571.442
2305,1590.472
2306,1615.397
2307,1590.472
2308,1598.522
2309,1580.940
2310,1599.263
2311,1584.611
2312,1557.497
2313,1575.820
2314,1553.118
2315,1538.467
2316,1557.497
2317,1515.765
2318,1484.238
2319,1509.904
2320,1465.208
2321,1443.214
2322,1423.442
2323,1421.994
2324,1408.049
2325,1383.158
2326,1375.816
2327,1364.094
2328,1353.855
2329,1358.233
2330,1356.044
2331,1356.044
2332,1411.721
2333,1426.372
2334,1424.183
2335,1492.322
2336,1506.974
2337,1541.397
2338,1594.884
2339,1646.890
2340,1677.641
2341,1738.471
2342,1761.914
2343,1839.552
2344,1835.914
2345,1869.596
2346,1910.621
2347,1916.482
2348,1893.780
2349,1901.089
2350,1890.850
2351,1876.198
2352,1830.761
2353,1802.939
2354,1772.895
2355,1726.750
2356,1666.661
2357,1616.845
2358,1606.606
2359,1532.606
2360,1465.208
2361,1430.785
2362,1364.094
2363,1326.000
2364,1291.576
2365,1260.791
2366,1209.527
2367,1175.811
2368,1191.204
2369,1161.159
2370,1147.248
2371,1118.686
2372,1113.566
2373,1093.054
2374,1098.914
2375,1066.681
2376,1056.408
2377,1079.850
2378,1054.959
2379,1090.831
2380,1050.547
2381,1090.123
2382,1079.109
2383,1065.199
2384,1073.249
2385,1071.800
2386,1051.288
2387,1059.338
2388,1028.586
2389,1068.129
2390,1058.597
2391,1052.736
2392,1049.098
2393,1035.895
2394,1022.725
2395,1024.915
2396,1003.661
2397,1021.243
2398,1020.502
2399,1022.725
2400,1008.074
2401,1049.806
2402,1046.168
2403,1062.268
2404,1065.199
2405,1068.129
2406,1111.343
2407,1149.438
2408,1168.502
2409,1161.900
2410,1180.964
2411,1208.786
2412,1256.412
2413,1280.596
2414,1271.805
2415,1279.114
2416,1339.203
2417,1320.880
2418,1369.248
2419,1356.785
2420,1394.139
2421,1360.456
2422,1365.576
2423,1378.039
2424,1410.272
2425,1413.910
2426,1421.994
2427,1424.183
2428,1427.854
2429,1429.303
2430,1418.322
2431,1408.049
2432,1402.189
2433,1446.144
2434,1402.189
2435,1408.790
2436,1448.367
2437,1405.119
2438,1421.994
2439,1448.367
2440,1410.272
2441,1416.840
2442,1446.885
2443,1406.601
2444,1413.203
2445,1432.233
2446,1444.696
2447,1441.024
2448,1409.531
2449,1408.049
2450,1414.651
2451,1428.562
2452,1436.646
2453,1457.158
2454,1426.372
2455,1419.063
2456,1443.214
2457,1465.208
2458,1422.701
2459,1438.094
2460,1465.208
2461,1441.765
2462,1443.214
2463,1432.974
2464,1438.835
2465,1466.656
2466,1476.188
2467,1459.347
2468,1464.467
2469,1468.138
2470,1478.378
2471,1509.904
2472,1528.935
2473,1534.795
2474,1536.985
2475,1534.054
2476,1509.904
2477,1506.233
2478,1515.765
2479,1545.776
2480,1528.194
2481,1501.821
2482,1517.213
2483,1536.277
2484,1509.163
2485,1488.651
2486,1484.238
2487,1480.601
2488,1503.303
2489,1494.511
2490,1467.397
2491,1463.726
2492,1479.119
2493,1502.562
2494,1501.113
2495,1480.601
2496,1478.378
2497,1482.790
2498,1463.726
2499,1468.138
2500,1471.069
2501,1490.840
2502,1528.935
2503,1524.556
2504,1511.353
2505,1561.169
2506,1536.985
2507,1569.219
2508,1607.313
2509,1599.263
2510,1613.915
2511,1629.308
2512,1657.870
2513,1652.009
2514,1651.268
2515,1670.332
2516,1684.984
2517,1660.800
2518,1677.641
2519,1654.199
2520,1683.502
2521,1657.129
2522,1635.168
2523,1641.029
2524,1595.592
2525,1610.984
2526,1578.010
2527,1551.636
2528,1521.626
2529,1508.422
2530,1504.044
2531,1481.308
2532,1429.303
2533,1439.576
2534,1432.233
2535,1388.278
2536,1400.740
2537,1353.114
2538,1373.626
2539,1334.791
2540,1361.164
2541,1321.621
2542,1360.456
2543,1326.741
2544,1376.557
2545,1388.278
2546,1361.164
2547,1381.676
2548,1410.272
2549,1468.138
2550,1493.770
2551,1518.695
2552,1509.904
2553,1563.358
2554,1542.845
2555,1600.004
2556,1576.561
2557,1602.934
2558,1622.706
2559,1583.870
2560,1594.143
2561,1563.358
2562,1580.940
2563,1537.726
2564,1515.024
2565,1482.790
2566,1447.626
2567,1369.955
2568,1351.665
2569,1281.303
2570,1238.089
2571,1183.895
2572,1136.268
2573,1101.845
2574,1056.408
2575,1030.034
2576,980.218
2577,944.313
2578,906.219
2579,854.954
2580,800.726
2581,816.860
2582,771.423
2583,782.403
2584,773.612
2585,728.208
2586,762.632
2587,763.373
2588,775.835
2589,778.765
2590,807.328
2591,842.492
2592,831.512
2593,846.163
2594,875.467
2595,900.358
2596,957.517
2597,997.060
2598,986.079
2599,1028.586
2600,1062.268
2601,1068.870
2602,1112.825
2603,1151.661
2604,1169.950
2605,1173.621
2606,1189.014
2607,1252.000
2608,1261.532
2609,1281.303
2610,1277.666
2611,1295.248
2612,1306.228
2613,1328.930
2614,1346.512
2615,1374.367
2616,1383.899
2617,1389.760
2618,1394.139
2619,1399.999
2620,1403.671
2621,1372.885
2622,1402.189
2623,1389.760
2624,1372.178
2625,1406.601
2626,1383.899
2627,1373.626
2628,1377.298
2629,1385.348
2630,1420.512
2631,1421.253
2632,1406.601
2633,1414.651
2634,1410.272
2635,1389.019
2636,1421.994
2637,1422.701
2638,1419.771
2639,1414.651
2640,1419.063
2641,1419.063
2642,1412.462
2643,1413.910
2644,1410.272
2645,1392.690
2646,1399.258
2647,1419.771
2648,1415.392
2649,1405.119
2650,1397.810
2651,1420.512
2652,1418.322
2653,1401.481
2654,1393.398
2655,1430.044
2656,1402.189
2657,1442.506
2658,1422.701
2659,1405.119
2660,1405.119
2661,1444.696
2662,1438.835
2663,1428.562
2664,1394.139
2665,1402.189
2666,1409.531
2667,1426.372
2668,1395.621
2669,1389.019
2670,1385.348
2671,1379.487
2672,1358.974
2673,1394.880
2674,1386.089
2675,1383.158
2676,1370.696
2677,1350.924
2678,1352.373
2679,1363.387
2680,1389.019
2681,1393.398
2682,1376.557
2683,1372.178
2684,1373.626
2685,1385.348
2686,1403.671
2687,1422.701
2688,1428.562
2689,1438.835
2690,1449.815
2691,1454.228
2692,1460.796
2693,1454.228
2694,1501.113
2695,1515.024
2696,1488.651
2697,1532.606
2698,1507.681
2699,1532.606
2700,1517.954
2701,1513.542
2702,1555.308
2703,1546.517
2704,1516.472
2705,1544.327
2706,1515.765
2707,1560.427
2708,1524.556
2709,1562.651
2710,1523.074
2711,1546.517
2712,1550.929
2713,1549.447
2714,1545.776
2715,1520.144
2716,1526.004
2717,1559.720
2718,1533.347
2719,1567.029
2720,1578.751
2721,1569.219
2722,1602.193
2723,1643.218
2724,1649.820
2725,1695.224
2726,1727.457
2727,1775.825
2728,1829.312
2729,1874.008
2730,1950.198
2731,1968.487
2732,2024.164
2733,2063.740
2734,2110.626
2735,2157.511
2736,2170.681
2737,2198.536
2738,2220.531
2739,2211.740
2740,2215.377
2741,2224.168
2742,2172.163
2743,2169.233
2744,2102.576
2745,2076.910
2746,2034.437
2747,1968.487
2748,1911.362
2749,1835.173
2750,1780.237
2751,1707.686
2752,1643.218
2753,1608.054
2754,1545.776
2755,1497.442
2756,1435.164
2757,1383.158
2758,1359.715
2759,1330.412
2760,1265.203
2761,1263.014
2762,1239.571
2763,1216.128
2764,1192.686
2765,1186.825
2766,1169.950
2767,1172.880
2768,1166.312
2769,1163.382
2770,1164.089
2771,1156.039
2772,1146.507
2773,1164.830
2774,1153.850
2775,1123.065
2776,1160.452
2777,1121.616
2778,1124.547
2779,1137.009
2780,1106.964
2781,1099.622
2782,1117.204
2783,1101.104
2784,1052.029
2785,1045.427
2786,1060.079
2787,1059.338
2788,1049.098
2789,1016.865
2790,1024.174
2791,1054.959
2792,1013.934
2793,1034.447
2794,1063.009
2795,1063.009
2796,1094.502
2797,1074.731
2798,1122.357
2799,1147.989
2800,1170.691
2801,1193.393
2802,1216.128
2803,1238.830
2804,1243.950
2805,1241.019
2806,1298.885
2807,1274.735
2808,1326.000
2809,1323.810
2810,1328.223
2811,1361.905
2812,1337.721
2813,1354.596
2814,1364.835
2815,1345.064
2816,1321.621
2817,1316.468
2818,1326.000
2819,1342.133
2820,1304.746
2821,1313.537
2822,1292.317
2823,1268.134
2824,1302.557
2825,1258.602
2826,1287.905
2827,1250.552
2828,1283.526
2829,1288.646
2830,1260.791
2831,1276.184
2832,1279.114
2833,1247.621
2834,1273.253
2835,1296.696
2836,1292.317
2837,1268.875
2838,1304.039
2839,1285.716
2840,1284.234
2841,1312.089
2842,1273.994
2843,1281.303
2844,1329.671
2845,1293.025
2846,1315.760
2847,1356.785
2848,1366.317
2849,1372.178
2850,1386.830
2851,1394.139
2852,1397.810
2853,1410.272
2854,1414.651
2855,1424.924
2856,1427.854
2857,1432.233
2858,1430.044
2859,1421.994
2860,1413.203
2861,1421.253
2862,1430.044
2863,1422.701
2864,1408.049
2865,1419.771
2866,1434.423
2867,1406.601
2868,1403.671
2869,1405.860
2870,1402.189
2871,1417.581
2872,1411.721
2873,1413.203
2874,1424.924
2875,1416.133
2876,1411.721
2877,1418.322
2878,1426.372
2879,1436.646
2880,1443.955
2881,1474.740
2882,1440.283
2883,1479.119
2884,1483.531
2885,1473.258
2886,1470.328
2887,1450.556
2888,1476.929
2889,1454.935
2890,1453.487
2891,1485.720
2892,1482.790
2893,1479.119
2894,1453.487
2895,1453.487
2896,1482.049
2897,1491.581
2898,1460.088
2899,1484.238
2900,1502.562
2901,1490.840
2902,1487.169
2903,1520.885
2904,1485.720
2905,1529.676
2906,1501.821
2907,1506.233
2908,1535.536
2909,1504.751
2910,1526.745
2911,1500.372
2912,1517.954
2913,1473.999
2914,1452.005
2915,1471.069
2916,1430.785
2917,1422.701
2918,1402.189
2919,1392.690
2920,1377.298
2921,1372.178
2922,1352.373
2923,1345.805
2924,1357.526
2925,1362.646
2926,1317.950
2927,1323.069
2928,1334.083
2929,1350.183
2930,1378.746
2931,1388.278
2932,1405.860
2933,1405.119
2934,1416.840
2935,1455.676
2936,1482.790
2937,1508.422
2938,1524.556
2939,1522.333
2940,1566.288
2941,1605.124
2942,1627.826
2943,1654.940
2944,1648.338
2945,1690.845
2946,1709.875
2947,1704.015
2948,1688.656
2949,1690.104
2950,1712.806
2951,1706.945
2952,1706.945
2953,1662.990
2954,1672.522
2955,1614.656
2956,1578.010
2957,1569.960
2958,1523.815
2959,1505.492
2960,1444.696
2961,1394.139
2962,1355.303
2963,1320.880
2964,1272.512
2965,1205.114
2966,1135.527
2967,1113.566
2968,1070.318
2969,1015.383
2970,963.377
2971,911.372
2972,887.188
2973,873.244
2974,846.871
2975,824.169
2976,808.069
2977,768.492
2978,760.442
2979,783.885
2980,751.651
2981,757.512
2982,778.765
2983,810.999
2984,834.442
2985,827.099
2986,876.915
2987,898.910
2988,898.169
2989,947.244
2990,984.631
2991,989.751
2992,1014.642
2993,1071.800
2994,1109.895
2995,1119.427
2996,1178.034
2997,1200.736
2998,1219.766
2999,1284.975
3000,1298.885
3001,1345.064
3002,1353.114
3003,1369.955
3004,1387.537
3005,1433.715
3006,1477.670
3007,1468.879
3008,1507.681
3009,1489.392
3010,1504.044
3011,1528.194
3012,1528.935
3013,1523.074
3014,1526.004
3015,1536.277
3016,1550.929
3017,1521.626
3018,1543.586
3019,1512.835
3020,1514.283
3021,1490.840
3022,1504.044
3023,1464.467
3024,1450.556
3025,1435.164
3026,1411.721
3027,1420.512
3028,1421.994
3029,1403.671
3030,1384.607
3031,1367.024
3032,1369.248
3033,1348.735
3034,1355.303
3035,1353.855
3036,1352.373
3037,1356.785
3038,1358.974
3039,1337.014
3040,1342.133
3041,1354.596
3042,1361.164
3043,1375.816
3044,1410.980
3045,1419.063
3046,1422.701
3047,1393.398
3048,1435.905
3049,1413.910
3050,1453.487
3051,1419.771
3052,1435.905
3053,1440.283
3054,1440.283
3055,1481.308
3056,1458.606
3057,1449.815
3058,1459.347
3059,1471.810
3060,1492.322
3061,1472.517
3062,1461.537
3063,1498.890
3064,1482.049
3065,1507.681
3066,1516.472
3067,1490.099
3068,1541.397
3069,1531.124
3070,1535.536
3071,1531.865
3072,1563.358
3073,1575.820
3074,1548.706
3075,1558.238
3076,1561.910
3077,1572.149
3078,1576.561
3079,1590.472
3080,1613.174
3081,1621.965
3082,1632.979
3083,1632.979
3084,1594.884
3085,1598.522
3086,1600.004
3087,1600.745
3088,1614.656
3089,1632.979
3090,1633.686
3091,1633.686
3092,1606.606
3093,1599.263
3094,1586.093
3095,1577.302
3096,1583.870
3097,1607.313
3098,1556.790
3099,1548.706
3100,1558.238
3101,1565.581
3102,1558.979
3103,1501.113
3104,1491.581
3105,1496.701
3106,1466.656
3107,1431.492
3108,1450.556
3109,1432.233
3110,1378.746
3111,1402.189
3112,1353.114
3113,1353.114
3114,1353.114
3115,1341.392
3116,1315.019
3117,1297.437
3118,1344.323
3119,1340.651
3120,1325.292
3121,1374.367
3122,1392.690
3123,1386.830
3124,1447.626
3125,1488.651
3126,1506.233
3127,1550.929
3128,1602.193
3129,1690.845
3130,1709.875
3131,1761.914
3132,1811.730
3133,1860.805
3134,1906.950
3135,1954.576
3136,2007.323
3137,2010.994
3138,2055.690
3139,2084.253
3140,2064.481
3141,2078.392
3142,2070.342
3143,2046.899
3144,2050.537
3145,2008.805
3146,1963.367
3147,1939.183
3148,1909.880
3149,1863.735
3150,1808.800
3151,1805.128
3152,1750.193
3153,1700.377
3154,1643.959
3155,1619.034
3156,1602.193
3157,1542.845
3158,1482.790
3159,1486.461
3160,1423.442
3161,1382.417
3162,1352.373
3163,1334.791
3164,1300.367
3165,1299.626
3166,1287.164
3167,1241.760
3168,1254.223
3169,1190.463
3170,1208.786
3171,1150.179
3172,1136.268
3173,1139.198
3174,1108.413
3175,1073.990
3176,1078.402
3177,1062.268
3178,1046.168
3179,1017.572
3180,1003.661
3181,961.895
3182,969.979
3183,939.194
3184,934.074
3185,893.049
3186,917.233
3187,908.442
3188,906.960
3189,909.149
3190,904.770
3191,880.587
3192,934.074
3193,925.283
3194,956.776
3195,970.686
3196,993.422
3197,1008.074
3198,1051.288
3199,1073.990
3200,1085.711
3201,1102.552
3202,1115.756
3203,1122.357
3204,1168.502
3205,1161.159
3206,1158.970
3207,1216.836
3208,1187.532
3209,1237.348
3210,1199.254
3211,1245.432
3212,1247.621
3213,1245.432
3214,1218.318
3215,1237.348
3216,1265.944
3217,1246.880
3218,1221.989
3219,1227.109
3220,1262.273
3221,1237.348
3222,1260.084
3223,1219.766
3224,1219.059
3225,1248.362
3226,1259.343
3227,1217.577
3228,1244.691
3229,1242.502
3230,1222.696
3231,1263.014
3232,1227.850
3233,1262.273
3234,1273.994
3235,1242.502
3236,1258.602
3237,1301.108
3238,1280.596
3239,1276.925
3240,1294.507
3241,1317.209
3242,1326.000
3243,1331.860
3244,1328.223
3245,1348.735
3246,1364.094
3247,1356.785
3248,1366.317
3249,1398.551
3250,1391.949
3251,1380.228
3252,1427.854
3253,1430.785
3254,1438.835
3255,1419.063
3256,1416.133
3257,1437.353
3258,1450.556
3259,1442.506
3260,1471.069
3261,1457.865
3262,1472.517
3263,1488.651
3264,1458.606
3265,1504.751
3266,1480.601
3267,1507.681
3268,1483.531
3269,1517.213
3270,1503.303
3271,1501.821
3272,1528.194
3273,1501.113
3274,1493.029
3275,1528.935
3276,1517.213
3277,1506.974
3278,1500.372
3279,1512.835
3280,1497.442
3281,1530.417
3282,1489.392
3283,1524.556
3284,1488.651
3285,1506.233
3286,1525.263
3287,1482.790
3288,1519.403
3289,1480.601
3290,1476.188
3291,1512.835
3292,1499.631
3293,1469.587
3294,1469.587
3295,1498.890
3296,1504.751
3297,1485.720
3298,1484.979
3299,1523.815
3300,1506.974
3301,1528.935
3302,1544.327
3303,1539.208
3304,1526.004
3305,1513.542
3306,1546.517
3307,1510.612
3308,1540.656
3309,1525.263
3310,1509.904
3311,1509.163
3312,1484.979
3313,1457.158
3314,1452.005
3315,1471.069
3316,1431.492
3317,1417.581
3318,1446.144
3319,1409.531
3320,1451.297
3321,1427.113
3322,1462.278
3323,1430.785
3324,1478.378
3325,1490.099
3326,1487.910
3327,1515.024
3328,1548.706
3329,1578.010
3330,1656.422
3331,1666.661
3332,1729.680
3333,1748.711
3334,1792.666
3335,1836.621
3336,1882.059
3337,1942.855
3338,1974.348
3339,1991.930
3340,2003.651
3341,2047.606
3342,2035.885
3343,2032.955
3344,2043.228
3345,2045.417
3346,2021.974
3347,1973.640
3348,1926.755
3349,1886.437
3350,1846.894
3351,1799.268
3352,1750.900
3353,1667.402
3354,1594.884
3355,1558.979
3356,1441.024
3357,1364.094
3358,1284.975
3359,1221.248
3360,1134.079
3361,1071.059
3362,1007.333
3363,916.492
3364,881.328
3365,825.651
3366,732.587
3367,717.228
3368,641.746
3369,621.234
3370,589.741
3371,575.830
3372,539.184
3373,568.488
3374,575.830
3375,564.850
3376,595.602
3377,612.443
3378,634.437
3379,660.069
3380,655.691
3381,712.075
3382,738.448
3383,775.094
3384,843.233
3385,860.815
3386,923.094
3387,942.124
3388,994.870
3389,1046.168
3390,1076.920
3391,1111.343
3392,1134.079
3393,1164.830
3394,1176.552
3395,1211.716
3396,1252.741
3397,1283.526
3398,1293.025
3399,1292.317
3400,1320.139
3401,1349.442
3402,1353.855
3403,1364.094
3404,1376.557
3405,1399.999
3406,1391.949
3407,1396.328
3408,1394.880
3409,1436.646
3410,1437.353
3411,1412.462
3412,1433.715
3413,1425.631
3414,1411.721
3415,1448.367
3416,1408.790
3417,1434.423
3418,1424.924
3419,1432.974
3420,1411.721
3421,1414.651
3422,1414.651
3423,1397.069
3424,1427.113
3425,1408.790
3426,1377.298
3427,1416.840
3428,1413.203
3429,1371.437
3430,1413.910
3431,1372.885
3432,1388.278
3433,1391.208
3434,1397.069
3435,1424.183
3436,1397.810
3437,1444.696
3438,1411.721
3439,1427.854
3440,1451.297
3441,1447.626
3442,1447.626
3443,1442.506
3444,1449.074
3445,1493.770
3446,1473.999
3447,1458.606
3448,1456.417
3449,1458.606
3450,1479.119
3451,1487.169
3452,1457.158
3453,1452.746
3454,1452.746
3455,1449.815
3456,1452.005
3457,1490.840
3458,1488.651
3459,1482.790
3460,1482.790
3461,1471.069
3462,1461.537
3463,1442.506
3464,1451.297
3465,1448.367
3466,1463.726
3467,1446.885
3468,1446.144
3469,1467.397
3470,1477.670
3471,1475.447
3472,1450.556
3473,1465.208
3474,1479.860
3475,1487.910
3476,1489.392
3477,1465.949
3478,1475.447
3479,1471.810
3480,1465.208
3481,1487.910
3482,1486.461
3483,1528.194
3484,1522.333
3485,1509.163
3486,1524.556
3487,1554.567
3488,1558.979
3489,1563.358
3490,1613.915
3491,1607.313
3492,1604.383
3493,1645.408
3494,1652.750
3495,1639.547
3496,1675.452
3497,1654.940
3498,1678.382
3499,1686.432
3500,1682.795
3501,1662.990
3502,1645.408
3503,1679.864
3504,1637.358
3505,1652.009
3506,1649.820
3507,1631.497
3508,1638.099
3509,1619.034
3510,1655.681
3511,1635.909
3512,1645.408
3513,1621.965
3514,1658.611
3515,1630.756
3516,1674.004
3517,1659.352
3518,1686.432
3519,1723.820
3520,1756.054
3521,1769.964
3522,1788.287
3523,1814.661
3524,1856.426
3525,1897.451
3526,1898.900
3527,1954.576
3528,1941.406
3529,1977.278
3530,1976.571
3531,1971.417
3532,1970.710
3533,1955.317
3534,1916.482
3535,1921.601
3536,1868.855
3537,1835.914
3538,1808.800
3539,1750.900
3540,1714.288
3541,1630.049
3542,1578.751
3543,1519.403
3544,1482.049
3545,1443.214
3546,1390.467
3547,1293.025
3548,1285.716
3549,1212.457
3550,1197.805
3551,1147.248
3552,1117.204
3553,1064.458
3554,1043.238
3555,1016.124
3556,977.288
3557,999.990
3558,947.244
3559,977.288
3560,957.517
3561,945.795
3562,958.965
3563,942.865
3564,969.238
3565,953.845
3566,978.770
3567,974.358
3568,988.269
3569,993.422
3570,981.700
3571,979.477
3572,1028.586
3573,1002.920
3574,1007.333
3575,1024.174
3576,1054.218
3577,1018.313
3578,1042.497
3579,1062.268
3580,1068.129
3581,1032.965
3582,1079.850
3583,1086.452
3584,1094.502
3585,1099.622
3586,1087.900
3587,1103.293
3588,1106.223
3589,1099.622
3590,1158.229
3591,1160.452
3592,1161.900
3593,1156.039
3594,1202.925
3595,1191.204
3596,1237.348
3597,1249.070
3598,1244.691
3599,1268.875
3600,1299.626
3601,1315.019
3602,1336.273
3603,1348.735
3604,1354.596
3605,1355.303
3606,1408.049
3607,1410.272
3608,1392.690
3609,1445.437
3610,1424.183
3611,1421.253
3612,1469.587
3613,1433.715
3614,1469.587
3615,1427.854
3616,1467.397
3617,1438.835
3618,1416.133
3619,1433.715
3620,1413.203
3621,1399.999
3622,1407.342
3623,1394.139
3624,1391.949
3625,1375.108
3626,1339.203
3627,1367.024
3628,1317.209
3629,1328.930
3630,1350.924
3631,1334.083
3632,1307.677
3633,1339.203
3634,1350.924
3635,1331.153
3636,1309.159
3637,1323.069
3638,1337.721
3639,1356.785
3640,1364.835
3641,1339.203
3642,1342.133
3643,1338.462
3644,1359.715
3645,1382.417
3646,1364.094
3647,1377.298
3648,1364.835
3649,1383.158
3650,1410.272
3651,1380.228
3652,1428.562
3653,1403.671
3654,1416.133
3655,1446.885
3656,1441.765
3657,1435.905
3658,1427.113
3659,1441.765
3660,1474.740
3661,1475.447
3662,1460.088
3663,1443.955
3664,1460.796
3665,1494.511
3666,1491.581
3667,1492.322
3668,1474.740
3669,1466.656
3670,1504.044
3671,1479.860
3672,1515.024
3673,1489.392
3674,1520.885
3675,1487.169
3676,1479.860
3677,1481.308
3678,1498.183
3679,1515.024
3680,1478.378
3681,1473.999
3682,1498.183
3683,1497.442
3684,1463.726
3685,1480.601
3686,1482.790
3687,1453.487
3688,1470.328
3689,1489.392
3690,1457.158
3691,1442.506
3692,1439.576
3693,1475.447
3694,1444.696
3695,1476.188
3696,1441.765
3697,1482.049
3698,1457.865
3699,1453.487
3700,1478.378
3701,1460.088
3702,1484.238
3703,1479.860
3704,1481.308
3705,1507.681
3706,1526.004
3707,1512.094
3708,1498.890
3709,1513.542
3710,1528.935
3711,1523.815
3712,1489.392
3713,1526.004
3714,1482.790
3715,1506.974
3716,1470.328
3717,1484.238
3718,1457.158
3719,1465.949
3720,1430.785
3721,1438.835
3722,1421.994
3723,1369.248
3724,1359.715
3725,1360.456
3726,1349.442
3727,1372.178
3728,1377.298
3729,1356.785
3730,1348.735
3731,1334.083
3732,1347.253
3733,1365.576
3734,1386.089
3735,1385.348
3736,1378.039
3737,1381.676
3738,1437.353
3739,1421.253
3740,1440.283
3741,1466.656
3742,1492.322
3743,1486.461
3744,1542.845
3745,1525.263
3746,1535.536
3747,1545.776
3748,1556.049
3749,1586.801
3750,1612.466
3751,1612.466
3752,1596.333
3753,1569.219
3754,1558.979
3755,1558.238
3756,1577.302
3757,1517.954
3758,1524.556
3759,1498.183
3760,1471.810
3761,1427.854
3762,1434.423
3763,1383.899
3764,1342.874
3765,1315.760
3766,1293.766
3767,1268.134
3768,1210.268
3769,1158.970
3770,1167.020
3771,1117.945
3772,1081.332
3773,1040.307
3774,1027.845
3775,956.776
3776,967.049
3777,929.662
3778,885.706
3779,912.820
3780,895.979
3781,882.776
3782,863.746
3783,871.796
3784,883.517
3785,895.979
3786,876.174
3787,935.522
3788,909.890
3789,975.099
3790,989.751
3791,990.492
3792,1008.781
3793,1068.129
3794,1092.313
3795,1123.065
3796,1123.065
3797,1186.084
3798,1192.686
3799,1257.153
3800,1256.412
3801,1306.969
3802,1316.468
3803,1312.089
3804,1354.596
3805,1389.019
3806,1401.481
3807,1393.398
3808,1412.462
3809,1433.715
3810,1453.487
3811,1457.158
3812,1446.885
3813,1460.796
3814,1460.088
3815,1452.746
3816,1448.367
3817,1424.924
3818,1405.119
3819,1399.999
3820,1394.880
3821,1410.272
3822,1427.113
3823,1398.551
3824,1391.949
3825,1379.487
3826,1362.646
3827,1356.044
3828,1347.994
3829,1382.417
3830,1364.835
3831,1349.442
3832,1334.791
3833,1334.791
3834,1362.646
3835,1351.665
3836,1317.950
3837,1315.760
3838,1332.601
3839,1321.621
3840,1302.557
3841,1307.677
3842,1309.159
3843,1353.855
3844,1358.974
3845,1338.462
3846,1346.512
3847,1375.108
3848,1380.228
3849,1391.208
3850,1388.278
3851,1373.626
3852,1372.885
3853,1421.253
3854,1402.930
3855,1392.690
3856,1400.740
3857,1422.701
3858,1411.721
3859,1461.537
3860,1431.492
3861,1473.999
3862,1442.506
3863,1483.531
3864,1454.228
3865,1465.208
3866,1478.378
3867,1493.029
3868,1465.949
3869,1492.322
3870,1485.720
3871,1479.860
3872,1506.233
3873,1476.188
3874,1492.322
3875,1490.099
3876,1482.790
3877,1518.695
3878,1487.169
3879,1489.392
3880,1489.392
3881,1491.581
3882,1507.681
3883,1533.347
3884,1547.258
3885,1516.472
3886,1520.144
3887,1524.556
3888,1540.656
3889,1539.915
3890,1552.377
3891,1592.661
3892,1580.233
3893,1581.681
3894,1573.631
3895,1585.352
3896,1582.422
3897,1558.979
3898,1560.427
3899,1583.163
3900,1591.213
3901,1562.651
3902,1542.845
3903,1534.054
3904,1556.790
3905,1554.567
3906,1550.188
3907,1499.631
3908,1516.472
3909,1523.815
3910,1486.461
3911,1506.974
3912,1527.486
3913,1497.442
3914,1522.333
3915,1505.492
3916,1557.497
3917,1558.238
3918,1550.188
3919,1574.372
3920,1602.934
3921,1643.218
3922,1696.706
3923,1719.407
3924,1784.616
3925,1807.318
3926,1836.621
3927,1886.437
3928,1941.406
3929,1958.989
3930,1983.880
3931,2005.133
3932,2015.373
3933,2024.164
3934,2013.183
3935,2005.874
3936,1988.999
3937,1969.228
3938,1937.735
3939,1892.298
3940,1847.635
3941,1827.123
3942,1736.248
3943,1680.572
3944,1618.327
3945,1544.327
3946,1487.169
3947,1410.980
3948,1347.253
3949,1293.025
3950,1252.741
3951,1202.184
3952,1126.736
3953,1084.970
3954,1062.268
3955,1003.661
3956,1002.213
3957,968.497
3958,943.606
3959,937.004
3960,901.099
3961,928.213
3962,952.397
3963,919.422
3964,931.144
3965,969.979
3966,978.029
3967,989.751
3968,1053.477
3969,1051.288
3970,1094.502
3971,1121.616
3972,1132.597
3973,1142.129
3974,1137.716
3975,1196.323
3976,1168.502
3977,1221.989
3978,1193.393
3979,1235.159
3980,1209.527
3981,1245.432
3982,1263.014
3983,1221.248
3984,1246.139
3985,1266.652
3986,1243.209
3987,1227.850
3988,1269.582
3989,1236.641
3990,1251.293
3991,1234.418
3992,1286.457
3993,1254.930
3994,1304.039
3995,1273.253
3996,1302.557
3997,1323.810
3998,1356.785
3999,1364.094
4000,1360.456
4001,1358.233
4002,1380.228
4003,1423.442
4004,1436.646
4005,1444.696
4006,1443.214
4007,1440.283
4008,1434.423
4009,1427.854
4010,1437.353
4011,1472.517
4012,1460.088
4013,1443.955
4014,1424.183
4015,1422.701
4016,1415.392
4017,1411.721
4018,1413.203
4019,1403.671
4020,1384.607
4021,1375.108
4022,1365.576
4023,1355.303
4024,1364.094
4025,1335.532
4026,1325.292
4027,1338.462
4028,1330.412
4029,1330.412
4030,1351.665
4031,1342.133
4032,1336.273
4033,1347.253
4034,1326.741
4035,1313.537
4036,1337.721
4037,1329.671
4038,1320.880
4039,1340.651
4040,1360.456
4041,1342.133
4042,1323.069
4043,1328.223
4044,1335.532
4045,1364.094
4046,1380.228
4047,1386.830
4048,1354.596
4049,1375.816
4050,1400.740
4051,1376.557
4052,1415.392
4053,1426.372
4054,1432.974
4055,1436.646
4056,1405.119
4057,1438.835
4058,1444.696
4059,1427.113
4060,1441.024
4061,1432.233
4062,1427.854
4063,1446.885
4064,1454.228
4065,1436.646
4066,1437.353
4067,1448.367
4068,1495.960
4069,1493.029
4070,1465.949
4071,1516.472
4072,1493.770
4073,1487.169
4074,1524.556
4075,1522.333
4076,1551.636
4077,1537.726
4078,1523.074
4079,1545.068
4080,1551.636
4081,1564.840
4082,1591.213
4083,1569.960
4084,1582.422
4085,1616.104
4086,1589.024
4087,1617.586
4088,1636.617
4089,1632.238
4090,1629.308
4091,1641.029
4092,1655.681
4093,1666.661
4094,1686.432
4095,1697.447
4096,1723.079
4097,1750.900
4098,1775.084
4099,1769.223
4100,1774.377
4101,1782.427
4102,1812.471
4103,1823.452
4104,1814.661
4105,1805.128
4106,1830.053
4107,1820.521
4108,1794.889
4109,1768.516
4110,1787.546
4111,1761.914
4112,1733.318
4113,1695.965
4114,1671.781
4115,1662.990
4116,1618.327
4117,1563.358
4118,1564.840
4119,1489.392
4120,1487.169
4121,1453.487
4122,1419.063
4123,1379.487
4124,1358.233
4125,1342.874
4126,1277.666
4127,1281.303
4128,1284.234
4129,1235.159
4130,1260.791
4131,1265.944
4132,1264.462
4133,1273.253
4134,1276.925
4135,1299.626
4136,1309.159
4137,1307.677
4138,1326.741
4139,1329.671
4140,1381.676
4141,1388.278
4142,1427.854
4143,1416.133
4144,1418.322
4145,1450.556
4146,1484.979
4147,1449.815
4148,1492.322
4149,1449.815
4150,1446.144
4151,1465.949
4152,1457.865
4153,1418.322
4154,1401.481
4155,1391.949
4156,1328.223
4157,1307.677
4158,1290.835
4159,1208.045
4160,1202.184
4161,1151.661
4162,1098.173
4163,1052.736
4164,1020.502
4165,934.074
4166,927.472
4167,878.397
4168,833.701
4169,795.606
4170,728.208
4171,687.184
4172,661.551
4173,665.930
4174,613.184
4175,602.203
4176,626.387
4177,584.621
4178,621.975
4179,589.741
4180,626.387
4181,652.760
4182,663.000
4183,659.328
4184,678.393
4185,728.949
4186,787.556
4187,818.308
4188,848.353
4189,879.105
4190,934.815
4191,955.327
4192,1006.592
4193,1052.736
4194,1076.920
4195,1079.850
4196,1140.647
4197,1191.204
4198,1219.059
4199,1248.362
4200,1277.666
4201,1288.646
4202,1311.348
4203,1337.721
4204,1369.248
4205,1411.721
4206,1415.392
4207,1453.487
4208,1470.328
4209,1443.214
4210,1467.397
4211,1501.821
4212,1489.392
4213,1483.531
4214,1502.562
4215,1493.029
4216,1501.821
4217,1499.631
4218,1491.581
4219,1500.372
4220,1503.303
4221,1465.949
4222,1474.740
4223,1486.461
4224,1485.720
4225,1441.765
4226,1444.696
4227,1455.676
4228,1436.646
4229,1430.785
4230,1447.626
4231,1435.164
4232,1410.272
4233,1394.139
4234,1427.854
4235,1390.467
4236,1429.303
4237,1396.328
4238,1408.049
4239,1404.412
4240,1426.372
4241,1404.412
4242,1432.974
4243,1453.487
4244,1425.631
4245,1448.367
4246,1448.367
4247,1475.447
4248,1442.506
4249,1473.258
4250,1498.183
4251,1502.562
4252,1504.044
4253,1494.511
4254,1498.890
4255,1531.124
4256,1544.327
4257,1528.194
4258,1538.467
4259,1534.054
4260,1572.890
4261,1554.567
4262,1556.049
4263,1555.308
4264,1594.884
4265,1600.745
4266,1596.333
4267,1594.143
4268,1564.099
4269,1565.581
4270,1575.820
4271,1555.308
4272,1549.447
4273,1564.840
4274,1563.358
4275,1533.347
4276,1523.074
4277,1544.327
4278,1554.567
4279,1558.238
4280,1542.845
4281,1511.353
4282,1545.776
4283,1508.422
4284,1552.377
4285,1511.353
4286,1547.258
4287,1517.954
4288,1509.163
4289,1523.074
4290,1501.821
4291,1526.745
4292,1506.974
4293,1481.308
4294,1464.467
4295,1460.088
4296,1453.487
4297,1463.726
4298,1443.214
4299,1436.646
4300,1433.715
4301,1404.412
4302,1376.557
4303,1372.885
4304,1378.746
4305,1378.746
4306,1426.372
4307,1415.392
4308,1462.278
4309,1449.815
4310,1504.751
4311,1547.258
4312,1571.442
4313,1632.979
4314,1704.015
4315,1778.014
4316,1836.621
4317,1920.894
4318,2001.462
4319,2081.322
4320,2158.960
4321,2260.815
4322,2321.611
4323,2390.491
4324,2449.805
4325,2477.660
4326,2520.134
4327,2548.730
4328,2548.730
4329,2534.078
4330,2528.925
4331,2482.039
4332,2463.009
4333,2408.780
4334,2345.795
4335,2276.915
4336,2177.283
4337,2096.715
4338,2028.576
4339,1923.083
4340,1812.471
4341,1725.268
4342,1641.029
4343,1569.960
4344,1481.308
4345,1378.039
4346,1304.746
4347,1243.209
4348,1180.223
4349,1075.472
4350,1056.408
4351,1005.851
4352,945.795
4353,915.010
4354,884.999
4355,876.174
4356,859.333
4357,849.801
4358,841.751
4359,824.910
4360,803.657
4361,801.467
4362,810.258
4363,827.099
4364,871.796
4365,876.174
4366,880.587
4367,881.328
4368,885.706
4369,921.611
4370,931.144
4371,937.745
4372,925.283
4373,980.959
4374,950.915
4375,995.611
4376,1025.656
4377,1046.875
4378,1063.009
4379,1086.452
4380,1103.293
4381,1123.065
4382,1112.825
4383,1182.413
4384,1175.811
4385,1192.686
4386,1254.223
4387,1254.930
4388,1287.905
4389,1309.900
4390,1335.532
4391,1353.114
4392,1369.248
4393,1399.258
4394,1379.487
4395,1373.626
4396,1369.955
4397,1384.607
4398,1389.019
4399,1380.228
4400,1367.765
4401,1364.835
4402,1360.456
4403,1359.715
4404,1359.715
4405,1335.532
4406,1330.412
4407,1326.000
4408,1275.443
4409,1263.721
4410,1268.875
4411,1289.387
4412,1247.621
4413,1257.153
4414,1244.691
4415,1252.000
4416,1249.811
4417,1252.741
4418,1274.735
4419,1232.969
4420,1260.084
4421,1247.621
4422,1260.791
4423,1282.785
4424,1252.000
4425,1300.367
4426,1271.064
4427,1298.885
4428,1317.209
4429,1284.975
4430,1334.083
4431,1307.677
4432,1317.950
4433,1327.482
4434,1344.323
4435,1367.765
4436,1373.626
4437,1350.924
4438,1381.676
4439,1373.626
4440,1383.899
4441,1374.367
4442,1359.715
4443,1362.646
4444,1411.721
4445,1404.412
4446,1380.969
4447,1418.322
4448,1396.328
4449,1422.701
4450,1410.272
4451,1419.771
4452,1442.506
4453,1419.063
4454,1415.392
4455,1438.094
4456,1421.994
4457,1451.297
4458,1411.721
4459,1449.074
4460,1425.631
4461,1431.492
4462,1445.437
4463,1404.412
4464,1443.214
4465,1400.740
4466,1427.854
4467,1399.258
4468,1424.924
4469,1392.690
4470,1431.492
4471,1402.930
4472,1386.830
4473,1416.133
4474,1394.139
4475,1381.676
4476,1419.771
4477,1389.019
4478,1421.253
4479,1378.039
4480,1421.253
4481,1391.949
4482,1386.089
4483,1402.189
4484,1380.969
4485,1416.133
4486,1383.158
4487,1413.203
4488,1417.581
4489,1410.980
4490,1408.790
4491,1414.651
4492,1423.442
4493,1422.701
4494,1430.044
4495,1484.238
4496,1468.879
4497,1482.790
4498,1507.681
4499,1534.054
4500,1534.795
4501,1553.859
4502,1560.427
4503,1581.681
4504,1586.093
4505,1597.815
4506,1616.845
4507,1632.979
4508,1624.188
4509,1619.775
4510,1607.313
4511,1605.865
4512,1598.522
4513,1593.402
4514,1597.074
4515,1570.701
4516,1557.497
4517,1562.651
4518,1547.258
4519,1533.347
4520,1526.745
4521,1521.626
4522,1523.074
4523,1518.695
4524,1545.068
4525,1550.929
4526,1572.149
4527,1564.099
4528,1576.561
4529,1578.751
4530,1628.567
4531,1654.940
4532,1656.422
4533,1717.959
4534,1718.666
4535,1769.964
4536,1810.989
4537,1841.775
4538,1859.357
4539,1880.577
4540,1897.451
4541,1904.019
4542,1883.507
4543,1868.148
4544,1857.875
4545,1840.293
4546,1825.641
4547,1806.610
4548,1767.034
4549,1699.636
4550,1660.059
4551,1600.745
4552,1528.935
4553,1493.029
4554,1402.189
4555,1368.506
4556,1298.885
4557,1191.945
4558,1115.756
4559,1077.661
4560,997.060
4561,902.581
4562,843.940
4563,810.258
4564,717.228
4565,695.975
4566,634.437
4567,621.234
4568,577.279
4569,525.273
4570,537.736
4571,529.686
4572,515.034
4573,556.766
4574,580.209
4575,600.721
4576,619.045
4577,619.786
4578,671.791
4579,735.518
4580,759.701
4581,819.790
4582,846.163
4583,864.453
4584,906.219
4585,967.049
4586,1035.154
4587,1072.541
4588,1104.775
4589,1131.856
4590,1186.084
4591,1211.716
4592,1228.557
4593,1214.646
4594,1235.159
4595,1250.552
4596,1268.875
4597,1317.950
4598,1304.746
4599,1306.969
4600,1339.203
4601,1329.671
4602,1319.398
4603,1331.153
4604,1323.069
4605,1363.387
4606,1330.412
4607,1363.387
4608,1341.392
4609,1353.114
4610,1380.228
4611,1350.924
4612,1387.537
4613,1353.114
4614,1389.760
4615,1358.974
4616,1376.557
4617,1406.601
4618,1372.178
4619,1396.328
4620,1428.562
4621,1419.771
4622,1395.621
4623,1427.113
4624,1445.437
4625,1446.144
4626,1414.651
4627,1442.506
4628,1454.228
4629,1462.278
4630,1464.467
4631,1463.019
4632,1470.328
4633,1473.999
4634,1473.258
4635,1471.069
4636,1479.119
4637,1476.188
4638,1460.796
4639,1450.556
4640,1443.214
4641,1445.437
4642,1460.088
4643,1476.188
4644,1495.960
4645,1490.840
4646,1489.392
4647,1500.372
4648,1493.029
4649,1514.283
4650,1505.492
4651,1520.885
4652,1495.960
4653,1520.144
4654,1498.890
4655,1479.119
4656,1495.960
4657,1472.517
4658,1471.810
4659,1513.542
4660,1498.890
4661,1475.447
4662,1504.044
4663,1507.681
4664,1509.163
4665,1501.821
4666,1474.740
4667,1481.308
4668,1486.461
4669,1502.562
4670,1484.238
4671,1504.044
4672,1509.904
4673,1491.581
4674,1492.322
4675,1503.303
4676,1510.612
4677,1468.138
4678,1482.049
4679,1506.233
4680,1492.322
4681,1480.601
4682,1495.252
4683,1511.353
4684,1469.587
4685,1469.587
4686,1501.113
4687,1513.542
4688,1491.581
4689,1468.879
4690,1483.531
4691,1487.169
4692,1501.821
4693,1455.676
4694,1490.840
4695,1449.074
4696,1449.074
4697,1482.049
4698,1440.283
4699,1454.935
4700,1451.297
4701,1417.581
4702,1409.531
4703,1418.322
4704,1399.999
4705,1402.930
4706,1431.492
4707,1438.835
4708,1417.581
4709,1405.119
4710,1460.088
4711,1438.835
4712,1477.670
4713,1515.024
4714,1523.815
4715,1568.511
4716,1647.631
4717,1681.313
4718,1726.750
4719,1769.964
4720,1830.053
4721,1889.368
4722,1947.267
4723,2008.064
4724,2035.885
4725,2092.303
4726,2107.695
4727,2134.069
4728,2160.442
4729,2167.043
4730,2163.372
4731,2161.183
4732,2147.238
4733,2106.954
4734,2090.113
4735,2056.397
4736,2004.392
4737,1933.323
4738,1859.357
4739,1810.248
4740,1720.148
4741,1641.770
4742,1575.079
4743,1515.765
4744,1417.581
4745,1347.994
4746,1296.696
4747,1265.203
4748,1188.273
4749,1147.248
4750,1115.015
4751,1038.825
4752,1002.920
4753,980.218
4754,980.959
4755,931.885
4756,942.124
4757,945.054
4758,912.820
4759,958.258
4760,930.403
4761,953.845
4762,962.636
4763,942.124
4764,978.770
4765,967.756
4766,950.915
4767,987.561
4768,1002.920
4769,999.283
4770,1016.865
4771,1027.845
4772,1019.054
4773,1011.004
4774,1011.711
4775,1062.268
4776,1066.681
4777,1091.572
4778,1108.413
4779,1119.427
4780,1113.566
4781,1117.204
4782,1177.293
4783,1156.780
4784,1205.114
4785,1213.905
4786,1201.477
4787,1241.019
4788,1276.184
4789,1279.114
4790,1265.203
4791,1303.298
4792,1327.482
4793,1340.651
4794,1350.183
4795,1346.512
4796,1372.885
4797,1374.367
4798,1375.108
4799,1383.899
4800,1377.298
4801,1378.039
4802,1355.303
4803,1388.278
4804,1399.258
4805,1373.626
4806,1369.955
4807,1363.387
4808,1374.367
4809,1372.885
4810,1388.278
4811,1392.690
4812,1386.830
4813,1382.417
4814,1376.557
4815,1372.178
4816,1366.317
4817,1317.950
4818,1337.014
4819,1355.303
4820,1343.582
4821,1308.418
4822,1305.487
4823,1304.746
4824,1309.159
4825,1307.677
4826,1305.487
4827,1325.292
4828,1350.183
4829,1347.994
4830,1329.671
4831,1359.715
4832,1350.183
4833,1347.994
4834,1343.582
4835,1347.994
4836,1350.924
4837,1393.398
4838,1398.551
4839,1395.621
4840,1404.412
4841,1413.203
4842,1419.063
4843,1398.551
4844,1391.949
4845,1432.233
4846,1429.303
4847,1413.910
4848,1419.771
4849,1428.562
4850,1440.283
4851,1447.626
4852,1461.537
4853,1478.378
4854,1504.751
4855,1493.770
4856,1473.258
4857,1512.094
4858,1484.238
4859,1531.124
4860,1499.631
4861,1532.606
4862,1533.347
4863,1508.422
4864,1495.252
4865,1520.885
4866,1504.751
4867,1489.392
4868,1515.765
4869,1482.049
4870,1505.492
4871,1472.517
4872,1482.790
4873,1469.587
4874,1454.228
4875,1432.233
4876,1445.437
4877,1413.203
4878,1434.423
4879,1398.551
4880,1423.442
4881,1403.671
4882,1380.969
4883,1385.348
4884,1388.278
4885,1413.203
4886,1410.272
4887,1400.740
4888,1393.398
4889,1389.760
4890,1387.537
4891,1393.398
4892,1438.835
4893,1446.885
4894,1430.044
4895,1422.701
4896,1466.656
4897,1450.556
4898,1468.879
4899,1447.626
4900,1488.651
4901,1465.949
4902,1500.372
4903,1461.537
4904,1509.163
4905,1497.442
4906,1484.979
4907,1500.372
4908,1482.790
4909,1523.074
4910,1491.581
4911,1524.556
4912,1483.531
4913,1481.308
4914,1497.442
4915,1486.461
4916,1504.044
4917,1497.442
4918,1455.676
4919,1445.437
4920,1473.999
4921,1451.297
4922,1421.253
4923,1421.994
4924,1438.835
4925,1398.551
4926,1425.631
4927,1424.183
4928,1430.044
4929,1423.442
4930,1423.442
4931,1424.924
4932,1426.372
4933,1430.785
4934,1443.214
4935,1443.955
4936,1465.949
4937,1465.208
4938,1467.397
4939,1474.740
4940,1504.044
4941,1497.442
4942,1494.511
4943,1523.815
4944,1531.124
4945,1523.074
4946,1543.586
4947,1527.486
4948,1499.631
4949,1528.194
4950,1493.770
4951,1479.860
4952,1493.029
4953,1487.169
4954,1448.367
4955,1442.506
4956,1432.233
4957,1412.462
4958,1382.417
4959,1379.487
4960,1350.924
4961,1323.069
4962,1306.228
4963,1246.139
4964,1255.671
4965,1186.825
4966,1191.945
4967,1136.268
4968,1114.273
4969,1121.616
4970,1061.527
4971,1072.541
4972,1038.825
4973,999.283
4974,978.770
4975,986.079
4976,936.263
4977,945.795
4978,907.701
4979,939.194
4980,912.079
4981,911.372
4982,893.049
4983,892.308
4984,928.954
4985,927.472
4986,899.651
4987,950.915
4988,960.447
4989,939.194
4990,990.492
4991,975.840
4992,1028.586
4993,1062.268
4994,1090.831
4995,1117.204
4996,1145.059
4997,1174.362
4998,1186.825
4999,1205.114
5000,1241.760
5001,1278.373
5002,1282.785
5003,1323.810
5004,1367.024
5005,1394.880
5006,1417.581
5007,1434.423
5008,1457.158
5009,1468.879
5010,1500.372
5011,1495.960
5012,1506.233
5013,1511.353
5014,1514.283
5015,1510.612
5016,1512.094
5017,1498.183
5018,1490.099
5019,1511.353
5020,1501.821
5021,1497.442
5022,1487.169
5023,1468.879
5024,1444.696
5025,1447.626
5026,1424.924
5027,1419.771
5028,1407.342
5029,1401.481
5030,1345.805
5031,1361.164
5032,1368.506
5033,1319.398
5034,1323.810
5035,1353.114
5036,1336.273
5037,1304.746
5038,1330.412
5039,1340.651
5040,1344.323
5041,1334.083
5042,1313.537
5043,1337.014
5044,1364.094
5045,1328.223
5046,1353.114
5047,1378.039
5048,1385.348
5049,1365.576
5050,1399.999
5051,1401.481
5052,1410.272
5053,1424.924
5054,1424.183
5055,1443.214
5056,1445.437
5057,1471.069
5058,1483.531
5059,1490.840
5060,1478.378
5061,1480.601
5062,1529.676
5063,1510.612
5064,1513.542
5065,1514.283
5066,1513.542
5067,1548.706
5068,1547.999
5069,1516.472
5070,1538.467
5071,1548.706
5072,1520.144
5073,1513.542
5074,1499.631
5075,1536.277
5076,1515.765
5077,1510.612
5078,1489.392
5079,1487.910
5080,1521.626
5081,1494.511
5082,1503.303
5083,1516.472
5084,1503.303
5085,1494.511
5086,1506.233
5087,1501.113
5088,1508.422
5089,1486.461
5090,1520.144
5091,1485.720
5092,1469.587
5093,1494.511
5094,1501.113
5095,1468.138
5096,1440.283
5097,1435.905
5098,1458.606
5099,1436.646
5100,1409.531
5101,1392.690
5102,1380.228
5103,1315.019
5104,1323.069
5105,1287.905
5106,1287.164
5107,1244.691
5108,1265.944
5109,1224.178
5110,1249.070
5111,1223.437
5112,1246.880
5113,1268.875
5114,1269.582
5115,1290.835
5116,1342.874
5117,1375.108
5118,1392.690
5119,1419.771
5120,1478.378
5121,1536.277
5122,1604.383
5123,1630.049
5124,1701.825
5125,1740.661
5126,1823.452
5127,1838.844
5128,1916.482
5129,1936.253
5130,1953.128
5131,1972.158
5132,1996.342
5133,2024.905
5134,2012.442
5135,1988.292
5136,1974.348
5137,1934.805
5138,1919.412
5139,1881.318
5140,1857.134
5141,1780.945
5142,1745.039
5143,1712.098
5144,1652.750
5145,1587.542
5146,1519.403
5147,1497.442
5148,1416.133
5149,1397.069
5150,1328.930
5151,1273.253
5152,1252.000
5153,1228.557
5154,1176.552
5155,1149.438
5156,1146.507
5157,1109.895
5158,1102.552
5159,1079.109
5160,1071.059
5161,1041.756
5162,1071.059
5163,1055.667
5164,1046.168
5165,1035.895
5166,1066.681
5167,1047.616
5168,1050.547
5169,1079.850
5170,1090.123
5171,1095.984
5172,1078.402
5173,1108.413
5174,1117.945
5175,1123.065
5176,1136.268
5177,1146.507
5178,1145.059
5179,1169.243
5180,1189.014
5181,1184.602
5182,1235.900
5183,1227.109
5184,1271.805
5185,1271.064
5186,1275.443
5187,1288.646
5188,1305.487
5189,1346.512
5190,1348.735
5191,1366.317
5192,1384.607
5193,1421.253
5194,1386.830
5195,1439.576
5196,1408.049
5197,1416.133
5198,1456.417
5199,1438.094
5200,1418.322
5201,1425.631
5202,1443.214
5203,1457.865
5204,1413.910
5205,1448.367
5206,1430.044
5207,1417.581
5208,1396.328
5209,1427.113
5210,1421.253
5211,1394.880
5212,1419.771
5213,1390.467
5214,1380.228
5215,1408.790
5216,1389.019
5217,1378.746
5218,1372.178
5219,1410.980
5220,1389.760
5221,1378.039
5222,1374.367
5223,1374.367
5224,1384.607
5225,1391.949
5226,1403.671
5227,1405.119
5228,1418.322
5229,1390.467
5230,1388.278
5231,1423.442
5232,1425.631
5233,1404.412
5234,1386.089
5235,1424.183
5236,1397.810
5237,1408.049
5238,1404.412
5239,1399.999
5240,1415.392
5241,1444.696
5242,1438.094
5243,1449.815
5244,1447.626
5245,1467.397
5246,1449.074
5247,1448.367
5248,1495.960
5249,1474.740
5250,1513.542
5251,1483.531
5252,1531.124
5253,1499.631
5254,1547.258
5255,1505.492
5256,1514.283
5257,1545.776
5258,1515.765
5259,1552.377
5260,1517.954
5261,1517.213
5262,1528.935
5263,1506.233
5264,1496.701
5265,1534.795
5266,1486.461
5267,1512.835
5268,1501.113
5269,1492.322
5270,1477.670
5271,1461.537
5272,1498.183
5273,1465.208
5274,1450.556
5275,1447.626
5276,1457.865
5277,1490.099
5278,1495.960
5279,1485.720
5280,1479.119
5281,1496.701
5282,1517.213
5283,1514.283
5284,1507.681
5285,1560.427
5286,1542.138
5287,1580.233
5288,1557.497
5289,1579.492
5290,1618.327
5291,1611.725
5292,1606.606
5293,1619.034
5294,1632.979
5295,1630.049
5296,1637.358
5297,1647.631
5298,1636.617
5299,1636.617
5300,1648.338
5301,1634.427
5302,1635.909
5303,1627.826
5304,1608.795
5305,1600.745
5306,1589.731
5307,1563.358
5308,1544.327
5309,1545.776
5310,1500.372
5311,1513.542
5312,1460.088
5313,1438.835
5314,1441.024
5315,1410.980
5316,1397.810
5317,1380.969
5318,1383.899
5319,1368.506
5320,1321.621
5321,1317.209
5322,1343.582
5323,1353.855
5324,1339.944
5325,1317.950
5326,1319.398
5327,1326.741
5328,1349.442
5329,1384.607
5330,1357.526
5331,1367.024
5332,1389.760
5333,1401.481
5334,1407.342
5335,1452.746
5336,1450.556
5337,1435.164
5338,1454.935
5339,1482.049
5340,1474.740
5341,1484.979
5342,1470.328
5343,1460.796
5344,1443.955
5345,1421.253
5346,1453.487
5347,1434.423
5348,1415.392
5349,1386.830
5350,1337.721
5351,1308.418
5352,1271.064
5353,1273.253
5354,1217.577
5355,1199.995
5356,1157.521
5357,1124.547
5358,1096.691
5359,1043.238
5360,989.751
5361,986.820
5362,949.467
5363,905.511
5364,874.726
5365,854.954
5366,825.651
5367,760.442
5368,778.024
5369,712.816
5370,740.671
5371,716.487
5372,696.716
5373,692.303
5374,674.721
5375,709.144
5376,713.557
5377,708.437
5378,734.069
5379,788.264
5380,820.498
5381,859.333
5382,890.860
5383,895.979
5384,960.447
5385,978.770
5386,996.352
5387,1060.079
5388,1090.123
5389,1140.647
5390,1175.811
5391,1195.616
5392,1247.621
5393,1278.373
5394,1304.039
5395,1306.969
5396,1338.462
5397,1405.119
5398,1416.840
5399,1440.283
5400,1435.905
5401,1468.879
5402,1499.631
5403,1536.277
5404,1547.999
5405,1545.776
5406,1542.138
5407,1533.347
5408,1542.138
5409,1580.233
5410,1586.093
5411,1572.890
5412,1579.492
5413,1536.985
5414,1539.208
5415,1532.606
5416,1534.054
5417,1532.606
5418,1520.885
5419,1534.795
5420,1519.403
5421,1504.044
5422,1504.751
5423,1498.183
5424,1510.612
5425,1465.949
5426,1495.960
5427,1461.537
5428,1482.790
5429,1462.278
5430,1441.024
5431,1429.303
5432,1465.949
5433,1441.765
5434,1416.133
5435,1451.297
5436,1403.671
5437,1441.765
5438,1443.214
5439,1408.049
5440,1432.974
5441,1427.113
5442,1408.049
5443,1399.999
5444,1444.696
5445,1438.835
5446,1417.581
5447,1444.696
5448,1463.726
5449,1467.397
5450,1453.487
5451,1456.417
5452,1484.238
5453,1470.328
5454,1462.278
5455,1491.581
5456,1468.138
5457,1461.537
5458,1503.303
5459,1462.278
5460,1503.303
5461,1474.740
5462,1468.138
5463,1493.029
5464,1461.537
5465,1495.252
5466,1472.517
5467,1485.720
5468,1479.860
5469,1476.188
5470,1507.681
5471,1504.751
5472,1482.049
5473,1490.099
5474,1509.904
5475,1544.327
5476,1547.999
5477,1525.263
5478,1542.845
5479,1562.651
5480,1562.651
5481,1575.079
5482,1574.372
5483,1582.422
5484,1553.118
5485,1567.770
5486,1583.870
5487,1589.024
5488,1588.283
5489,1592.661
5490,1599.263
5491,1602.934
5492,1621.257
5493,1632.979
5494,1636.617
5495,1643.218
5496,1660.800
5497,1660.800
5498,1641.770
5499,1643.959
5500,1639.547
5501,1625.636
5502,1646.149
5503,1661.541
5504,1667.402
5505,1675.452
5506,1725.268
5507,1742.850
5508,1759.691
5509,1817.591
5510,1813.919
5511,1877.646
5512,1887.178
5513,1900.382
5514,1917.964
5515,1944.337
5516,1958.248
5517,1939.924
5518,1936.253
5519,1925.273
5520,1918.671
5521,1893.780
5522,1861.546
5523,1807.318
5524,1748.711
5525,1697.447
5526,1660.059
5527,1581.681
5528,1532.606
5529,1444.696
5530,1402.189
5531,1289.387
5532,1248.362
5533,1184.602
5534,1106.223
5535,1006.592
5536,991.940
5537,934.815
5538,876.174
5539,808.776
5540,789.005
5541,764.114
5542,740.671
5543,695.234
5544,693.044
5545,707.696
5546,689.373
5547,720.866
5548,709.144
5549,753.841
5550,793.417
5551,809.517
5552,808.776
5553,875.467
5554,915.751
5555,909.890
5556,960.447
5557,1026.363
5558,1060.820
5559,1097.432
5560,1134.079
5561,1123.806
5562,1158.970
5563,1201.477
5564,1216.836
5565,1244.691
5566,1273.253
5567,1333.342
5568,1330.412
5569,1331.860
5570,1360.456
5571,1405.119
5572,1391.949
5573,1413.910
5574,1443.955
5575,1457.158
5576,1430.785
5577,1427.113
5578,1467.397
5579,1441.024
5580,1473.258
5581,1442.506
5582,1452.746
5583,1474.740
5584,1485.720
5585,1449.074
5586,1441.024
5587,1465.208
5588,1433.715
5589,1460.796
5590,1427.854
5591,1438.835
5592,1443.214
5593,1463.726
5594,1445.437
5595,1446.144
5596,1424.183
5597,1422.701
5598,1457.865
5599,1452.005
5600,1447.626
5601,1438.835
5602,1424.183
5603,1432.974
5604,1421.253
5605,1396.328
5606,1409.531
5607,1414.651
5608,1424.924
5609,1394.139
5610,1413.910
5611,1405.119
5612,1441.765
5613,1405.860
5614,1431.492
5615,1413.203
5616,1452.746
5617,1437.353
5618,1464.467
5619,1461.537
5620,1443.214
5621,1489.392
5622,1458.606
5623,1482.790
5624,1481.308
5625,1511.353
5626,1476.188
5627,1517.954
5628,1479.860
5629,1506.233
5630,1501.821
5631,1478.378
5632,1500.372
5633,1522.333
5634,1520.144
5635,1490.840
5636,1493.029
5637,1487.910
5638,1487.910
5639,1514.283
5640,1476.929
5641,1487.910
5642,1462.278
5643,1495.960
5644,1464.467
5645,1501.821
5646,1459.347
5647,1504.044
5648,1466.656
5649,1493.029
5650,1484.238
5651,1497.442
5652,1520.144
5653,1520.144
5654,1507.681
5655,1515.024
5656,1498.183
5657,1488.651
5658,1491.581
5659,1534.795
5660,1523.815
5661,1501.113
5662,1546.517
5663,1532.606
5664,1515.765
5665,1563.358
5666,1528.935
5667,1557.497
5668,1538.467
5669,1576.561
5670,1549.447
5671,1571.442
5672,1592.661
5673,1559.720
5674,1597.074
5675,1590.472
5676,1626.377
5677,1597.815
5678,1645.408
5679,1657.870
5680,1665.920
5681,1630.756
5682,1637.358
5683,1675.452
5684,1645.408
5685,1650.561
5686,1633.686
5687,1646.890
5688,1621.257
5689,1658.611
5690,1621.965
5691,1610.984
5692,1627.118
5693,1591.213
5694,1558.979
5695,1586.801
5696,1551.636
5697,1530.417
5698,1502.562
5699,1517.213
5700,1490.840
5701,1460.088
5702,1452.746
5703,1454.935
5704,1446.885
5705,1443.955
5706,1443.214
5707,1432.974
5708,1435.164
5709,1424.183
5710,1421.253
5711,1429.303
5712,1432.233
5713,1480.601
5714,1482.049
5715,1459.347
5716,1491.581
5717,1472.517
5718,1494.511
5719,1533.347
5720,1511.353
5721,1507.681
5722,1502.562
5723,1492.322
5724,1527.486
5725,1515.765
5726,1484.238
5727,1465.949
5728,1466.656
5729,1408.049
5730,1397.069
5731,1369.955
5732,1312.830
5733,1317.209
5734,1275.443
5735,1216.128
5736,1178.741
5737,1152.368
5738,1113.566
5739,1082.781
5740,1020.502
5741,961.188
5742,964.118
5743,927.472
5744,895.979
5745,843.233
5746,816.119
5747,810.258
5748,769.974
5749,742.860
5750,750.910
5751,742.119
5752,712.075
5753,733.328
5754,695.234
5755,723.796
5756,720.158
5757,745.791
5758,748.721
5759,741.378
5760,764.821
5761,789.005
5762,832.219
5763,854.213
5764,874.726
5765,897.428
5766,917.233
5767,910.631
5768,967.049
5769,997.801
5770,1021.243
5771,1036.636
5772,1094.502
5773,1125.995
5774,1149.438
5775,1169.243
5776,1197.805
5777,1232.969
5778,1252.000
5779,1285.716
5780,1324.551
5781,1334.083
5782,1356.044
5783,1383.899
5784,1399.999
5785,1419.771
5786,1431.492
5787,1417.581
5788,1418.322
5789,1418.322
5790,1426.372
5791,1459.347
5792,1468.879
5793,1448.367
5794,1442.506
5795,1475.447
5796,1454.935
5797,1447.626
5798,1478.378
5799,1458.606
5800,1478.378
5801,1468.879
5802,1429.303
5803,1414.651
5804,1401.481
5805,1426.372
5806,1417.581
5807,1408.790
5808,1399.258
5809,1388.278
5810,1377.298
5811,1358.974
5812,1353.855
5813,1365.576
5814,1363.387
5815,1336.273
5816,1347.994
5817,1322.328
5818,1345.805
5819,1343.582
5820,1337.721
5821,1325.292
5822,1363.387
5823,1343.582
5824,1325.292
5825,1354.596
5826,1362.646
5827,1375.816
5828,1383.158
5829,1370.696
5830,1345.064
5831,1359.715
5832,1361.905
5833,1372.885
5834,1402.930
5835,1406.601
5836,1408.790
5837,1410.272
5838,1392.690
5839,1405.119
5840,1413.910
5841,1424.924
5842,1426.372
5843,1429.303
5844,1414.651
5845,1420.512
5846,1414.651
5847,1421.253
5848,1412.462
5849,1416.133
5850,1438.094
5851,1468.879
5852,1461.537
5853,1444.696
5854,1443.214
5855,1456.417
5856,1496.701
5857,1498.890
5858,1487.169
5859,1476.188
5860,1473.258
5861,1476.188
5862,1490.840
5863,1520.144
5864,1492.322
5865,1487.910
5866,1490.840
5867,1513.542
5868,1507.681
5869,1490.099
5870,1528.935
5871,1493.029
5872,1506.233
5873,1535.536
5874,1516.472
5875,1545.776
5876,1503.303
5877,1518.695
5878,1541.397
5879,1535.536
5880,1514.283
5881,1520.885
5882,1538.467
5883,1506.233
5884,1481.308
5885,1503.303
5886,1504.044
5887,1479.860
5888,1469.587
5889,1466.656
5890,1450.556
5891,1438.094
5892,1410.272
5893,1419.771
5894,1395.621
5895,1375.816
5896,1355.303
5897,1355.303
5898,1331.860
5899,1339.203
5900,1341.392
5901,1314.278
5902,1324.551
5903,1357.526
5904,1391.208
5905,1408.049
5906,1441.024
5907,1465.949
5908,1545.776
5909,1568.511
5910,1634.427
5911,1711.357
5912,1799.268
5913,1832.984
5914,1900.382
5915,1965.557
5916,2036.626
5917,2094.492
5918,2115.004
5919,2155.322
5920,2191.193
5921,2187.556
5922,2178.765
5923,2188.263
5924,2173.611
5925,2148.720
5926,2092.303
5927,2034.437
5928,1988.999
5929,1917.223
5930,1863.735
5931,1781.686
5932,1704.756
5933,1665.920
5934,1560.427
5935,1477.670
5936,1441.024
5937,1334.083
5938,1271.064
5939,1216.128
5940,1203.666
5941,1142.870
5942,1095.984
5943,1092.313
5944,1051.288
5945,1010.263
5946,1035.154
5947,1012.452
5948,1019.795
5949,997.801
5950,981.700
5951,1025.656
5952,1019.054
5953,1013.934
5954,1030.034
5955,1032.965
5956,1082.781
5957,1060.079
5958,1098.173
5959,1132.597
5960,1152.368
5961,1166.312
5962,1156.780
5963,1175.811
5964,1212.457
5965,1255.671
5966,1263.721
5967,1263.721
5968,1265.944
5969,1282.785
5970,1325.292
5971,1315.760
5972,1358.233
5973,1346.512
5974,1378.746
5975,1357.526
5976,1386.089
5977,1377.298
5978,1374.367
5979,1380.969
5980,1405.119
5981,1386.089
5982,1385.348
5983,1396.328
5984,1406.601
5985,1374.367
5986,1387.537
5987,1388.278
5988,1368.506
5989,1399.999
5990,1353.855
5991,1380.969
5992,1349.442
5993,1344.323
5994,1367.024
5995,1332.601
5996,1359.715
5997,1340.651
5998,1309.159
5999,1323.810
6000,1288.646
6001,1318.691
6002,1284.975
6003,1279.855
6004,1278.373
6005,1258.602
6006,1277.666
6007,1290.835
6008,1268.875
6009,1290.094
6010,1252.741
6011,1282.044
6012,1254.930
6013,1288.646
6014,1268.875
6015,1290.094
6016,1301.108
6017,1290.094
6018,1284.234
6019,1318.691
6020,1339.203
6021,1307.677
6022,1320.880
6023,1354.596
6024,1359.715
6025,1358.233
6026,1376.557
6027,1358.974
6028,1373.626
6029,1372.885
6030,1377.298
6031,1386.830
6032,1394.880
6033,1401.481
6034,1405.119
6035,1414.651
6036,1452.746
6037,1432.974
6038,1426.372
6039,1449.074
6040,1424.924
6041,1465.949
6042,1432.974
6043,1435.164
6044,1444.696
6045,1432.233
6046,1459.347
6047,1471.069
6048,1466.656
6049,1445.437
6050,1451.297
6051,1495.960
6052,1473.999
6053,1470.328
6054,1516.472
6055,1506.233
6056,1497.442
6057,1490.099
6058,1526.745
6059,1521.626
6060,1501.821
6061,1549.447
6062,1526.004
6063,1534.795
6064,1523.815
6065,1536.277
6066,1545.776
6067,1509.904
6068,1533.347
6069,1523.815
6070,1509.904
6071,1527.486
6072,1491.581
6073,1514.283
6074,1487.169
6075,1480.601
6076,1486.461
6077,1470.328
6078,1484.979
6079,1479.860
6080,1466.656
6081,1479.119
6082,1483.531
6083,1468.138
6084,1469.587
6085,1468.138
6086,1459.347
6087,1462.278
6088,1457.158
6089,1436.646
6090,1446.885
6091,1448.367
6092,1432.233
6093,1399.999
6094,1433.715
6095,1423.442
6096,1393.398
6097,1375.816
6098,1405.119
6099,1405.860
6100,1397.069
6101,1385.348
6102,1375.816
6103,1364.094
6104,1386.830
6105,1363.387
6106,1349.442
6107,1354.596
6108,1361.164
6109,1370.696
6110,1371.437
6111,1383.158
6112,1395.621
6113,1413.910
6114,1466.656
6115,1463.019
6116,1460.796
6117,1490.099
6118,1508.422
6119,1554.567
6120,1560.427
6121,1592.661
6122,1621.965
6123,1637.358
6124,1659.352
6125,1700.377
6126,1709.875
6127,1749.452
6128,1769.223
6129,1773.636
6130,1789.028
6131,1806.610
6132,1826.382
6133,1847.635
6134,1827.830
6135,1817.591
6136,1819.780
6137,1821.970
6138,1797.819
6139,1802.198
6140,1742.850
6141,1701.825
6142,1671.073
6143,1632.979
6144,1596.333
6145,1547.258
6146,1476.929
6147,1432.974
6148,1385.348
6149,1358.233
6150,1287.164
6151,1238.089
6152,1194.134
6153,1146.507
6154,1084.263
6155,1022.725
6156,1002.213
6157,956.776
6158,904.029
6159,858.592
6160,797.055
6161,802.208
6162,730.398
6163,718.676
6164,723.796
6165,701.835
6166,692.303
6167,691.562
6168,684.994
6169,677.652
6170,696.716
6171,706.214
6172,706.955
6173,739.930
6174,780.214
6175,801.467
6176,815.378
6177,854.954
6178,917.233
6179,972.168
6180,975.840
6181,1028.586
6182,1098.914
6183,1132.597
6184,1153.109
6185,1234.418
6186,1243.950
6187,1272.512
6188,1317.209
6189,1346.512
6190,1385.348
6191,1443.214
6192,1460.796
6193,1468.138
6194,1498.183
6195,1538.467
6196,1534.795
6197,1554.567
6198,1542.845
6199,1558.238
6200,1579.492
6201,1586.801
6202,1547.999
6203,1557.497
6204,1553.859
6205,1520.144
6206,1502.562
6207,1498.890
6208,1514.283
6209,1501.113
6210,1489.392
6211,1443.955
6212,1450.556
6213,1455.676
6214,1425.631
6215,1400.740
6216,1389.019
6217,1378.746
6218,1389.019
6219,1392.690
6220,1373.626
6221,1358.233
6222,1372.178
6223,1372.885
6224,1369.955
6225,1352.373
6226,1341.392
6227,1325.292
6228,1334.791
6229,1353.114
6230,1356.044
6231,1372.885
6232,1375.108
6233,1379.487
6234,1368.506
6235,1388.278
6236,1391.949
6237,1390.467
6238,1396.328
6239,1402.930
6240,1404.412
6241,1386.830
6242,1378.039
6243,1379.487
6244,1426.372
6245,1427.113
6246,1404.412
6247,1402.189
6248,1432.974
6249,1457.865
6250,1436.646
6251,1427.854
6252,1475.447
6253,1479.119
6254,1457.865
6255,1471.810
6256,1497.442
6257,1472.517
6258,1494.511
6259,1463.726
6260,1498.183
6261,1468.879
6262,1480.601
6263,1512.094
6264,1472.517
6265,1489.392
6266,1520.885
6267,1484.979
6268,1505.492
6269,1518.695
6270,1487.169
6271,1512.094
6272,1485.720
6273,1499.631
6274,1497.442
6275,1484.979
6276,1513.542
6277,1467.397
6278,1463.019
6279,1460.796
6280,1487.910
6281,1473.999
6282,1461.537
6283,1434.423
6284,1410.980
6285,1390.467
6286,1362.646
6287,1355.303
6288,1355.303
6289,1307.677
6290,1322.328
6291,1287.164
6292,1301.816
6293,1275.443
6294,1298.178
6295,1334.791
6296,1350.924
6297,1356.785
6298,1407.342
6299,1453.487
6300,1546.517
6301,1576.561
6302,1662.282
6303,1733.318
6304,1814.661
6305,1915.033
6306,1973.640
6307,2046.899
6308,2117.227
6309,2164.820
6310,2224.909
6311,2281.327
6312,2312.820
6313,2334.814
6314,2339.193
6315,2331.884
6316,2320.162
6317,2286.447
6318,2245.422
6319,2186.074
6320,2142.119
6321,2054.949
6322,1978.019
6323,1901.089
6324,1824.900
6325,1740.661
6326,1636.617
6327,1553.859
6328,1479.860
6329,1353.855
6330,1317.209
6331,1236.641
6332,1148.730
6333,1082.040
6334,1027.104
6335,973.617
6336,918.681
6337,903.288
6338,870.314
6339,842.492
6340,795.606
6341,829.289
6342,805.139
6343,788.264
6344,828.581
6345,813.189
6346,805.139
6347,822.721
6348,881.328
6349,904.029
6350,926.024
6351,944.313
6352,958.965
6353,961.895
6354,1031.516
6355,1027.104
6356,1077.661
6357,1115.015
6358,1106.964
6359,1138.457
6360,1202.184
6361,1212.457
6362,1218.318
6363,1273.994
6364,1301.816
6365,1300.367
6366,1331.860
6367,1371.437
6368,1388.278
6369,1422.701
6370,1415.392
6371,1435.164
6372,1444.696
6373,1445.437
6374,1484.979
6375,1500.372
6376,1504.751
6377,1502.562
6378,1499.631
6379,1486.461
6380,1472.517
6381,1457.865
6382,1481.308
6383,1485.720
6384,1466.656
6385,1432.233
6386,1427.113
6387,1432.974
6388,1432.233
6389,1428.562
6390,1428.562
6391,1416.133
6392,1378.039
6393,1364.094
6394,1354.596
6395,1369.955
6396,1362.646
6397,1335.532
6398,1343.582
6399,1365.576
6400,1353.855
6401,1353.855
6402,1342.133
6403,1342.133
6404,1356.785
6405,1350.924
6406,1337.721
6407,1328.223
6408,1323.069
6409,1318.691
6410,1325.292
6411,1345.064
6412,1358.974
6413,1362.646
6414,1325.292
6415,1349.442
6416,1362.646
6417,1387.537
6418,1370.696
6419,1386.830
6420,1423.442
6421,1433.715
6422,1411.721
6423,1448.367
6424,1468.138
6425,1471.810
6426,1487.169
6427,1473.999
6428,1468.879
6429,1470.328
6430,1471.069
6431,1510.612
6432,1501.113
6433,1513.542
6434,1517.213
6435,1496.701
6436,1476.929
6437,1501.113
6438,1477.670
6439,1516.472
6440,1476.929
6441,1471.810
6442,1487.910
6443,1509.163
6444,1498.183
6445,1465.208
6446,1487.169
6447,1498.183
6448,1470.328
6449,1483.531
6450,1493.029
6451,1465.949
6452,1468.879
6453,1481.308
6454,1466.656
6455,1469.587
6456,1445.437
6457,1463.019
6458,1479.119
6459,1433.715
6460,1471.069
6461,1439.576
6462,1432.974
6463,1465.208
6464,1417.581
6465,1420.512
6466,1446.144
6467,1435.164
6468,1432.233
6469,1438.835
6470,1416.840
6471,1409.531
6472,1403.671
6473,1406.601
6474,1395.621
6475,1385.348
6476,1385.348
6477,1383.158
6478,1415.392
6479,1416.840
6480,1426.372
6481,1399.999
6482,1384.607
6483,1396.328
6484,1397.810
6485,1407.342
6486,1408.790
6487,1434.423
6488,1392.690
6489,1405.860
6490,1416.840
6491,1413.910
6492,1391.208
6493,1394.139
6494,1386.089
6495,1399.258
6496,1405.860
6497,1396.328
6498,1391.208
6499,1390.467
6500,1404.412
6501,1397.810
6502,1383.158
6503,1376.557
6504,1372.178
6505,1377.298
6506,1384.607
6507,1394.880
6508,1386.089
6509,1389.019
6510,1391.949
6511,1433.715
6512,1430.785
6513,1402.930
6514,1427.113
6515,1439.576
6516,1414.651
6517,1452.005
6518,1452.746
6519,1427.854
6520,1431.492
6521,1434.423
6522,1420.512
6523,1454.935
6524,1468.879
6525,1428.562
6526,1465.949
6527,1430.785
6528,1430.785
6529,1438.835
6530,1448.367
6531,1464.467
6532,1441.765
6533,1419.771
6534,1452.746
6535,1441.024
6536,1446.144
6537,1445.437
6538,1405.119
6539,1388.278
6540,1404.412
6541,1415.392
6542,1396.328
6543,1394.139
6544,1386.089
6545,1367.765
6546,1360.456
6547,1346.512
6548,1330.412
6549,1295.955
6550,1255.671
6551,1275.443
6552,1255.671
6553,1207.337
6554,1219.766
6555,1202.184
6556,1142.129
6557,1163.382
6558,1128.925
6559,1107.705
6560,1090.831
6561,1072.541
6562,1066.681
6563,1046.875
6564,1003.661
6565,1016.124
6566,1028.586
6567,1013.934
6568,1023.433
6569,1025.656
6570,1005.143
6571,1011.711
6572,1054.218
6573,1066.681
6574,1075.472
6575,1082.040
6576,1081.332
6577,1138.457
6578,1127.477
6579,1159.711
6580,1176.552
6581,1241.019
6582,1233.710
6583,1290.094
6584,1277.666
6585,1334.791
6586,1320.880
6587,1344.323
6588,1404.412
6589,1402.930
6590,1402.930
6591,1456.417
6592,1454.935
6593,1449.815
6594,1479.119
6595,1468.138
6596,1465.208
6597,1470.328
6598,1498.183
6599,1468.138
6600,1479.860
6601,1496.701
6602,1470.328
6603,1442.506
6604,1468.138
6605,1424.924
6606,1451.297
6607,1432.974
6608,1396.328
6609,1383.899
6610,1381.676
6611,1408.790
6612,1387.537
6613,1361.164
6614,1351.665
6615,1352.373
6616,1364.835
6617,1345.805
6618,1349.442
6619,1336.273
6620,1320.880
6621,1301.816
6622,1293.025
6623,1309.159
6624,1327.482
6625,1327.482
6626,1311.348
6627,1309.159
6628,1310.607
6629,1313.537
6630,1304.746
6631,1323.810
6632,1347.994
6633,1347.253
6634,1338.462
6635,1327.482
6636,1331.860
6637,1362.646
6638,1384.607
6639,1383.158
6640,1390.467
6641,1402.189
6642,1392.690
6643,1393.398
6644,1393.398
6645,1418.322
6646,1430.785
6647,1398.551
6648,1394.139
6649,1402.930
6650,1418.322
6651,1429.303
6652,1432.233
6653,1435.164
6654,1441.024
6655,1412.462
6656,1430.785
6657,1438.835
6658,1419.771
6659,1409.531
6660,1409.531
6661,1439.576
6662,1452.005
6663,1445.437
6664,1431.492
6665,1413.910
6666,1436.646
6667,1465.208
6668,1437.353
6669,1434.423
6670,1447.626
6671,1469.587
6672,1471.069
6673,1435.164
6674,1471.810
6675,1441.024
6676,1434.423
6677,1430.044
6678,1423.442
6679,1428.562
6680,1416.840
6681,1413.203
6682,1418.322
6683,1430.785
6684,1397.810
6685,1372.178
6686,1357.526
6687,1347.994
6688,1361.905
6689,1358.233
6690,1306.228
6691,1337.721
6692,1281.303
6693,1307.677
6694,1290.835
6695,1268.875
6696,1256.412
6697,1287.905
6698,1271.064
6699,1335.532
6700,1364.094
6701,1358.233
6702,1403.671
6703,1458.606
6704,1532.606
6705,1594.884
6706,1643.218
6707,1732.611
6708,1786.805
6709,1841.775
6710,1887.178
6711,1952.387
6712,1989.740
6713,2009.512
6714,2054.208
6715,2062.258
6716,2074.721
6717,2064.481
6718,2035.178
6719,1998.531
6720,1998.531
6721,1930.392
6722,1865.925
6723,1809.541
6724,1747.262
6725,1695.224
6726,1628.567
6727,1556.049
6728,1493.770
6729,1420.512
6730,1383.899
6731,1340.651
6732,1288.646
6733,1225.627
6734,1197.805
6735,1117.945
6736,1108.413
6737,1055.667
6738,1065.199
6739,1008.074
6740,1032.224
6741,1004.402
6742,972.168
6743,967.756
6744,1005.143
6745,989.010
6746,989.010
6747,991.940
6748,975.099
6749,1019.795
6750,1009.522
6751,1030.034
6752,1008.074
6753,1024.915
6754,1047.616
6755,1083.522
6756,1089.382
6757,1108.413
6758,1130.407
6759,1147.248
6760,1157.521
6761,1156.039
6762,1177.293
6763,1242.502
6764,1257.861
6765,1253.482
6766,1314.278
6767,1301.108
6768,1354.596
6769,1338.462
6770,1375.108
6771,1414.651
6772,1432.233
6773,1441.024
6774,1453.487
6775,1452.005
6776,1453.487
6777,1465.208
6778,1452.746
6779,1488.651
6780,1458.606
6781,1445.437
6782,1481.308
6783,1446.144
6784,1466.656
6785,1452.005
6786,1423.442
6787,1411.721
6788,1441.024
6789,1391.208
6790,1382.417
6791,1386.089
6792,1402.189
6793,1383.899
6794,1338.462
6795,1351.665
6796,1328.223
6797,1334.083
6798,1300.367
6799,1338.462
6800,1291.576
6801,1328.223
6802,1283.526
6803,1320.880
6804,1306.228
6805,1276.184
6806,1319.398
6807,1283.526
6808,1314.278
6809,1311.348
6810,1282.785
6811,1293.025
6812,1320.139
6813,1297.437
6814,1331.860
6815,1331.860
6816,1308.418
6817,1334.791
6818,1365.576
6819,1329.671
6820,1346.512
6821,1381.676
6822,1343.582
6823,1375.108
6824,1393.398
6825,1390.467
6826,1386.089
6827,1413.203
6828,1430.785
6829,1396.328
6830,1413.910
6831,1439.576
6832,1442.506
6833,1428.562
6834,1441.765
6835,1422.701
6836,1427.854
6837,1434.423
6838,1441.765
6839,1447.626
6840,1462.278
6841,1454.935
6842,1475.447
6843,1495.252
6844,1462.278
6845,1468.138
6846,1502.562
6847,1479.119
6848,1475.447
6849,1452.746
6850,1462.278
6851,1446.144
6852,1439.576
6853,1435.164
6854,1445.437
6855,1451.297
6856,1445.437
6857,1458.606
6858,1456.417
6859,1414.651
6860,1417.581
6861,1428.562
6862,1428.562
6863,1416.133
6864,1399.999
6865,1434.423
6866,1416.133
6867,1391.208
6868,1416.840
6869,1430.044
6870,1398.551
6871,1430.044
6872,1408.790
6873,1421.994
6874,1456.417
6875,1430.785
6876,1438.094
6877,1459.347
6878,1481.308
6879,1484.979
6880,1447.626
6881,1473.999
6882,1473.258
6883,1468.879
6884,1459.347
6885,1461.537
6886,1471.069
6887,1453.487
6888,1452.005
6889,1490.840
6890,1477.670
6891,1490.099
6892,1457.865
6893,1470.328
6894,1487.169
6895,1481.308
6896,1479.119
6897,1510.612
6898,1526.745
6899,1539.208
6900,1520.144
6901,1555.308
6902,1553.859
6903,1574.372
6904,1572.149
6905,1619.034
6906,1600.004
6907,1635.168
6908,1635.168
6909,1654.940
6910,1681.313
6911,1701.084
6912,1711.357
6913,1726.750
6914,1742.109
6915,1738.471
6916,1745.780
6917,1768.516
6918,1778.755
6919,1736.989
6920,1728.939
6921,1705.497
6922,1721.597
6923,1664.472
6924,1679.123
6925,1620.516
6926,1606.606
6927,1582.422
6928,1523.074
6929,1476.188
6930,1472.517
6931,1404.412
6932,1371.437
6933,1319.398
6934,1320.880
6935,1278.373
6936,1225.627
6937,1190.463
6938,1165.571
6939,1095.243
6940,1056.408
6941,1056.408
6942,1030.775
6943,997.801
6944,943.606
6945,926.024
6946,886.447
6947,875.467
6948,835.890
6949,833.701
6950,801.467
6951,778.765
6952,761.183
6953,739.189
6954,728.208
6955,714.298
6956,710.626
6957,692.303
6958,695.234
6959,668.860
6960,716.487
6961,710.626
6962,760.442
6963,754.582
6964,771.423
6965,815.378
6966,875.467
6967,904.770
6968,945.795
6969,967.756
6970,994.870
6971,1035.895
6972,1078.402
6973,1125.995
6974,1212.457
6975,1257.153
6976,1276.925
6977,1330.412
6978,1391.949
6979,1395.621
6980,1457.158
6981,1450.556
6982,1506.233
6983,1502.562
6984,1515.765
6985,1547.258
6986,1564.840
6987,1541.397
6988,1551.636
6989,1561.910
6990,1584.611
6991,1543.586
6992,1536.277
6993,1537.726
6994,1513.542
6995,1533.347
6996,1498.890
6997,1459.347
6998,1471.810
6999,1458.606
7000,1443.955
7001,1433.715
7002,1420.512
7003,1416.133
7004,1405.860
7005,1358.974
7006,1362.646
7007,1386.089
7008,1336.273
7009,1351.665
7010,1339.944
7011,1328.223
7012,1347.253
7013,1348.735
7014,1333.342
7015,1358.233
7016,1317.950
7017,1357.526
7018,1328.930
7019,1362.646
7020,1335.532
7021,1328.930
7022,1324.551
7023,1367.024
7024,1340.651
7025,1366.317
7026,1345.064
7027,1370.696
7028,1383.899
7029,1347.253
7030,1365.576
7031,1393.398
7032,1358.233
7033,1393.398
7034,1378.746
7035,1354.596
7036,1373.626
7037,1396.328
7038,1350.183
7039,1369.955
7040,1378.746
7041,1350.183
7042,1367.024
7043,1392.690
7044,1363.387
7045,1370.696
7046,1353.114
7047,1377.298
7048,1394.880
7049,1364.835
7050,1382.417
7051,1406.601
7052,1376.557
7053,1383.158
7054,1408.790
7055,1387.537
7056,1413.203
7057,1435.905
7058,1398.551
7059,1441.765
7060,1430.785
7061,1405.860
7062,1443.955
7063,1419.771
7064,1454.228
7065,1422.701
7066,1446.885
7067,1472.517
7068,1460.088
7069,1479.860
7070,1490.840
7071,1459.347
7072,1486.461
7073,1502.562
7074,1467.397
7075,1479.119
7076,1510.612
7077,1512.835
7078,1505.492
7079,1476.929
7080,1499.631
7081,1499.631
7082,1479.119
7083,1485.720
7084,1499.631
7085,1515.024
7086,1474.740
7087,1503.303
7088,1505.492
7089,1484.238
7090,1465.949
7091,1470.328
7092,1457.865
7093,1445.437
7094,1429.303
7095,1367.024
7096,1388.278
7097,1328.930
7098,1351.665
7099,1322.328
7100,1279.114
7101,1246.880
7102,1250.552
7103,1217.577
7104,1194.875
7105,1190.463
7106,1186.084
7107,1198.546
7108,1210.975
7109,1236.641
7110,1229.298
7111,1293.025
7112,1287.905
7113,1369.955
7114,1394.880
7115,1463.726
7116,1515.765
7117,1550.929
7118,1622.706
7119,1652.009
7120,1717.959
7121,1763.363
7122,1832.243
7123,1856.426
7124,1905.501
7125,1956.058
7126,1945.785
7127,1960.437
7128,1962.626
7129,1961.919
7130,1947.267
7131,1947.975
7132,1934.064
7133,1862.287
7134,1838.103
7135,1781.686
7136,1748.711
7137,1717.959
7138,1654.940
7139,1624.895
7140,1581.681
7141,1533.347
7142,1493.029
7143,1453.487
7144,1369.955
7145,1355.303
7146,1302.557
7147,1317.209
7148,1277.666
7149,1271.805
7150,1252.741
7151,1238.830
7152,1226.368
7153,1218.318
7154,1216.128
7155,1213.198
7156,1211.716
7157,1208.045
7158,1197.064
7159,1198.546
7160,1208.045
7161,1205.114
7162,1193.393
7163,1183.895
7164,1185.343
7165,1207.337
7166,1226.368
7167,1209.527
7168,1218.318
7169,1231.487
7170,1224.919
7171,1226.368
7172,1275.443
7173,1276.925
7174,1280.596
7175,1275.443
7176,1314.278
7177,1335.532
7178,1326.000
7179,1371.437
7180,1392.690
7181,1419.063
7182,1402.930
7183,1408.049
7184,1427.854
7185,1446.144
7186,1473.258
7187,1493.029
7188,1471.069
7189,1469.587
7190,1466.656
7191,1485.720
7192,1507.681
7193,1493.770
7194,1455.676
7195,1456.417
7196,1443.955
7197,1441.024
7198,1454.228
7199,1438.835
7200,1413.203
7201,1411.721
7202,1400.740
7203,1389.019
7204,1391.208
7205,1386.089
7206,1400.740
7207,1388.278
7208,1377.298
7209,1341.392
7210,1342.133
7211,1372.885
7212,1335.532
7213,1334.791
7214,1360.456
7215,1317.950
7216,1331.153
7217,1345.064
7218,1337.721
7219,1328.223
7220,1356.044
7221,1332.601
7222,1330.412
7223,1333.342
7224,1367.024
7225,1331.860
7226,1348.735
7227,1385.348
7228,1370.696
7229,1356.044
7230,1399.999
7231,1414.651
7232,1394.139
7233,1413.203
7234,1431.492
7235,1399.258
7236,1422.701
7237,1452.005
7238,1416.840
7239,1435.164
7240,1454.228
7241,1463.019
7242,1479.860
7243,1442.506
7244,1449.815
7245,1464.467
7246,1468.879
7247,1483.531
7248,1495.252
7249,1483.531
7250,1481.308
7251,1481.308
7252,1487.910
7253,1499.631
7254,1514.283
7255,1513.542
7256,1504.751
7257,1510.612
7258,1506.974
7259,1489.392
7260,1496.701
7261,1492.322
7262,1488.651
7263,1480.601
7264,1482.049
7265,1518.695
7266,1517.954
7267,1507.681
7268,1515.765
7269,1516.472
7270,1509.163
7271,1498.183
7272,1487.169
7273,1493.029
7274,1490.840
7275,1498.183
7276,1480.601
7277,1475.447
7278,1492.322
7279,1486.461
7280,1483.531
7281,1444.696
7282,1444.696
7283,1476.188
7284,1469.587
7285,1427.854
7286,1432.233
7287,1420.512
7288,1430.785
7289,1435.164
7290,1398.551
7291,1375.108
7292,1375.816
7293,1380.228
7294,1344.323
7295,1345.805
7296,1338.462
7297,1327.482
7298,1288.646
7299,1297.437
7300,1288.646
7301,1260.791
7302,1246.139
7303,1239.571
7304,1263.014
7305,1242.502
7306,1214.646
7307,1236.641
7308,1196.323
7309,1236.641
7310,1215.387
7311,1214.646
7312,1222.696
7313,1253.482
7314,1219.059
7315,1267.393
7316,1247.621
7317,1266.652
7318,1272.512
7319,1313.537
7320,1329.671
7321,1337.014
7322,1354.596
7323,1383.158
7324,1414.651
7325,1432.233
7326,1444.696
7327,1506.974
7328,1501.113
7329,1519.403
7330,1539.915
7331,1541.397
7332,1547.258
7333,1587.542
7334,1556.790
7335,1593.402
7336,1584.611
7337,1567.029
7338,1570.701
7339,1558.979
7340,1514.283
7341,1495.960
7342,1477.670
7343,1455.676
7344,1435.905
7345,1430.044
7346,1427.854
7347,1393.398
7348,1378.746
7349,1339.203
7350,1284.234
7351,1296.696
7352,1244.691
7353,1222.696
7354,1230.039
7355,1203.666
7356,1182.413
7357,1166.312
7358,1139.939
7359,1082.781
7360,1055.667
7361,1053.477
7362,1018.313
7363,1027.104
7364,983.149
7365,998.542
7366,975.099
7367,948.726
7368,949.467
7369,965.567
7370,951.656
7371,945.054
7372,947.244
7373,963.377
7374,958.965
7375,976.547
7376,987.561
7377,1018.313
7378,1013.934
7379,1071.059
7380,1095.243
7381,1108.413
7382,1168.502
7383,1199.995
7384,1227.109
7385,1235.159
7386,1257.861
7387,1326.000
7388,1321.621
7389,1363.387
7390,1388.278
7391,1446.885
7392,1432.233
7393,1450.556
7394,1483.531
7395,1494.511
7396,1521.626
7397,1553.118
7398,1559.720
7399,1547.999
7400,1551.636
7401,1539.915
7402,1526.745
7403,1533.347
7404,1557.497
7405,1545.068
7406,1520.144
7407,1528.194
7408,1512.835
7409,1500.372
7410,1477.670
7411,1482.790
7412,1441.024
7413,1445.437
7414,1428.562
7415,1422.701
7416,1437.353
7417,1397.069
7418,1428.562
7419,1386.089
7420,1404.412
7421,1393.398
7422,1378.746
7423,1380.228
7424,1356.785
7425,1382.417
7426,1339.203
7427,1363.387
7428,1339.944
7429,1366.317
7430,1331.860
7431,1341.392
7432,1360.456
7433,1317.950
7434,1358.974
7435,1336.273
7436,1353.114
7437,1341.392
7438,1347.253
7439,1339.203
7440,1356.044
7441,1375.816
7442,1387.537
7443,1388.278
7444,1397.810
7445,1402.930
7446,1398.551
7447,1400.740
7448,1398.551
7449,1399.999
7450,1380.228
7451,1384.607
7452,1397.069
7453,1422.701
7454,1418.322
7455,1408.049
7456,1405.119
7457,1449.815
7458,1453.487
7459,1457.865
7460,1446.885
7461,1423.442
7462,1426.372
7463,1470.328
7464,1460.796
7465,1437.353
7466,1472.517
7467,1439.576
7468,1484.238
7469,1484.979
7470,1464.467
7471,1449.074
7472,1495.960
7473,1456.417
7474,1492.322
7475,1468.879
7476,1499.631
7477,1470.328
7478,1488.651
7479,1490.099
7480,1495.960
7481,1490.840
7482,1498.890
7483,1487.910
7484,1504.044
7485,1536.985
7486,1517.213
7487,1501.113
7488,1501.113
7489,1509.904
7490,1542.845
7491,1509.904
7492,1541.397
7493,1506.974
7494,1495.960
7495,1530.417
7496,1507.681
7497,1487.169
7498,1487.910
7499,1509.904
7500,1520.885
7501,1518.695
7502,1482.049
7503,1484.979
7504,1499.631
7505,1473.258
7506,1454.228
7507,1470.328
7508,1478.378
7509,1457.865
7510,1445.437
7511,1432.233
7512,1421.253
7513,1363.387
7514,1364.835
7515,1374.367
7516,1327.482
7517,1309.900
7518,1312.089
7519,1288.646
7520,1265.944
7521,1265.203
7522,1241.760
7523,1260.791
7524,1213.198
7525,1243.950
7526,1258.602
7527,1222.696
7528,1252.741
7529,1295.248
7530,1321.621
7531,1348.735
7532,1372.885
7533,1389.760
7534,1424.183
7535,1497.442
7536,1559.720
7537,1622.706
7538,1641.770
7539,1709.875
7540,1771.446
7541,1800.009
7542,1848.343
7543,1898.900
7544,1961.178
7545,1975.089
7546,1983.880
7547,2008.805
7548,2036.626
7549,2051.278
7550,2046.899
7551,2004.392
7552,1981.690
7553,1972.158
7554,1940.665
7555,1885.730
7556,1847.635
7557,1797.819
7558,1737.730
7559,1693.775
7560,1655.681
7561,1605.865
7562,1516.472
7563,1462.278
7564,1432.233
7565,1342.133
7566,1323.069
7567,1254.223
7568,1226.368
7569,1199.995
7570,1161.900
7571,1086.452
7572,1075.472
7573,1060.079
7574,1022.725
7575,987.561
7576,996.352
7577,972.909
7578,928.213
7579,915.010
7580,909.149
7581,898.169
7582,888.637
7583,928.213
7584,933.333
7585,942.124
7586,934.074
7587,938.453
7588,940.676
7589,1002.920
7590,978.770
7591,1041.015
7592,1054.218
7593,1074.731
7594,1121.616
7595,1150.179
7596,1167.020
7597,1191.204
7598,1189.014
7599,1216.128
7600,1287.905
7601,1285.716
7602,1333.342
7603,1345.064
7604,1347.253
7605,1374.367
7606,1423.442
7607,1441.024
7608,1438.835
7609,1445.437
7610,1460.088
7611,1480.601
7612,1499.631
7613,1524.556
7614,1502.562
7615,1541.397
7616,1516.472
7617,1513.542
7618,1541.397
7619,1498.890
7620,1535.536
7621,1528.935
7622,1500.372
7623,1479.119
7624,1462.278
7625,1441.024
7626,1434.423
7627,1449.074
7628,1435.905
7629,1438.835
7630,1385.348
7631,1373.626
7632,1406.601
7633,1350.183
7634,1341.392
7635,1345.805
7636,1363.387
7637,1355.303
7638,1309.900
7639,1343.582
7640,1339.944
7641,1322.328
7642,1317.950
7643,1334.791
7644,1327.482
7645,1312.089
7646,1316.468
7647,1339.203
7648,1326.000
7649,1320.139
7650,1337.721
7651,1350.183
7652,1328.930
7653,1335.532
7654,1342.133
7655,1353.114
7656,1399.258
7657,1399.999
7658,1380.228
7659,1393.398
7660,1412.462
7661,1399.258
7662,1428.562
7663,1453.487
7664,1424.924
7665,1439.576
7666,1473.999
7667,1490.840
7668,1484.238
7669,1473.999
7670,1491.581
7671,1480.601
7672,1495.960
7673,1499.631
7674,1510.612
7675,1527.486
7676,1503.303
7677,1498.183
7678,1498.183
7679,1508.422
7680,1513.542
7681,1519.403
7682,1532.606
7683,1526.745
7684,1517.954
7685,1486.461
7686,1484.238
7687,1476.188
7688,1483.531
7689,1502.562
7690,1498.890
7691,1462.278
7692,1454.935
7693,1460.088
7694,1453.487
7695,1460.088
7696,1484.238
7697,1502.562
7698,1504.044
7699,1464.467
7700,1492.322
7701,1487.910
7702,1517.954
7703,1502.562
7704,1515.024
7705,1527.486
7706,1515.024
7707,1500.372
7708,1503.303
7709,1503.303
7710,1493.029
7711,1495.960
7712,1483.531
7713,1461.537
7714,1456.417
7715,1457.158
7716,1461.537
7717,1404.412
7718,1406.601
7719,1405.119
7720,1394.880
7721,1337.721
7722,1350.183
7723,1320.139
7724,1283.526
7725,1303.298
7726,1293.766
7727,1276.925
7728,1243.209
7729,1222.696
7730,1233.710
7731,1257.861
7732,1255.671
7733,1239.571
7734,1291.576
7735,1299.626
7736,1331.860
7737,1360.456
7738,1375.816
7739,1421.253
7740,1452.005
7741,1520.144
7742,1569.219
7743,1607.313
7744,1605.865
7745,1676.934
7746,1672.522
7747,1704.015
7748,1729.680
7749,1768.516
7750,1765.552
7751,1753.831
7752,1744.332
7753,1754.572
7754,1744.332
7755,1691.586
7756,1684.984
7757,1668.850
7758,1606.606
7759,1557.497
7760,1539.915
7761,1497.442
7762,1416.840
7763,1408.049
7764,1320.139
7765,1296.696
7766,1258.602
7767,1203.666
7768,1166.312
7769,1127.477
7770,1058.597
7771,1008.074
7772,1005.851
7773,969.238
7774,936.263
7775,901.840
7776,844.681
7777,855.662
7778,821.980
7779,786.074
7780,815.378
7781,810.999
7782,791.194
7783,819.790
7784,852.024
7785,863.746
7786,901.840
7787,930.403
7788,953.104
7789,955.327
7790,1032.965
7791,1030.775
7792,1092.313
7793,1144.318
7794,1168.502
7795,1178.741
7796,1258.602
7797,1289.387
7798,1287.905
7799,1351.665
7800,1383.899
7801,1413.203
7802,1428.562
7803,1438.094
7804,1502.562
7805,1515.024
7806,1520.144
7807,1532.606
7808,1537.726
7809,1545.776
7810,1555.308
7811,1534.054
7812,1520.885
7813,1512.094
7814,1501.821
7815,1500.372
7816,1498.890
7817,1502.562
7818,1442.506
7819,1451.297
7820,1413.203
7821,1429.303
7822,1396.328
7823,1382.417
7824,1330.412
7825,1309.900
7826,1303.298
7827,1294.507
7828,1279.855
7829,1284.234
7830,1271.064
7831,1241.760
7832,1250.552
7833,1235.900
7834,1196.323
7835,1211.716
7836,1234.418
7837,1204.407
7838,1191.945
7839,1219.059
7840,1238.830
7841,1235.900
7842,1213.198
7843,1220.507
7844,1241.760
7845,1247.621
7846,1244.691
7847,1262.273
7848,1293.766
7849,1274.735
7850,1320.139
7851,1298.178
7852,1340.651
7853,1310.607
7854,1361.164
7855,1349.442
7856,1381.676
7857,1391.949
7858,1389.019
7859,1397.069
7860,1430.044
7861,1408.049
7862,1397.069
7863,1421.253
7864,1445.437
7865,1423.442
7866,1448.367
7867,1414.651
7868,1412.462
7869,1434.423
7870,1456.417
7871,1419.063
7872,1445.437
7873,1454.935
7874,1415.392
7875,1432.233
7876,1457.158
7877,1428.562
7878,1428.562
7879,1448.367
7880,1468.138
7881,1471.810
7882,1458.606
7883,1473.258
7884,1477.670
7885,1455.676
7886,1448.367
7887,1456.417
7888,1465.208
7889,1489.392
7890,1460.088
7891,1449.815
7892,1467.397
7893,1483.531
7894,1462.278
7895,1460.796
7896,1496.701
7897,1474.740
7898,1463.726
7899,1485.720
7900,1487.910
7901,1462.278
7902,1501.821
7903,1493.029
7904,1477.670
7905,1470.328
7906,1473.999
7907,1513.542
7908,1494.511
7909,1466.656
7910,1488.651
7911,1501.821
7912,1487.910
7913,1445.437
7914,1438.835
7915,1465.208
7916,1423.442
7917,1446.144
7918,1386.089
7919,1413.910
7920,1378.746
7921,1356.785
7922,1357.526
7923,1355.303
7924,1339.944
7925,1331.153
7926,1306.969
7927,1304.746
7928,1317.950
7929,1345.064
7930,1392.690
7931,1450.556
7932,1484.979
7933,1545.776
7934,1619.775
7935,1677.641
7936,1746.521
7937,1854.203
7938,1912.810
7939,1996.342
7940,2054.949
7941,2147.979
7942,2194.124
7943,2259.332
7944,2304.029
7945,2342.864
7946,2369.978
7947,2389.009
7948,2389.009
7949,2372.168
7950,2351.655
7951,2304.029
7952,2268.865
7953,2209.517
7954,2142.119
7955,2096.715
7956,1991.222
7957,1932.615
7958,1839.552
7959,1767.775
7960,1679.864
7961,1594.884
7962,1507.681
7963,1451.297
7964,1351.665
7965,1283.526
7966,1238.089
7967,1208.045
7968,1120.875
7969,1065.940
7970,1037.377
7971,1019.054
7972,950.174
7973,931.885
7974,899.651
7975,917.233
7976,884.999
7977,844.681
7978,875.467
7979,827.099
7980,862.264
7981,813.930
7982,856.403
7983,843.233
7984,822.721
7985,854.213
7986,852.731
7987,852.024
7988,888.637
7989,889.378
7990,875.467
7991,928.213
7992,951.656
7993,966.308
7994,979.477
7995,1016.124
7996,1035.154
7997,1021.984
7998,1083.522
7999,1074.731
8000,1120.134
8001,1165.571
8002,1181.672
8003,1217.577
8004,1232.969
8005,1230.780
8006,1285.716
8007,1295.955
8008,1302.557
8009,1328.223
8010,1328.223
8011,1376.557
8012,1347.994
8013,1370.696
8014,1393.398
8015,1357.526
8016,1378.039
8017,1386.830
8018,1392.690
8019,1350.924
8020,1382.417
8021,1340.651
8022,1363.387
8023,1316.468
8024,1351.665
8025,1301.108
8026,1330.412
8027,1331.153
8028,1295.248
8029,1304.039
8030,1312.089
8031,1287.164
8032,1276.925
8033,1314.278
8034,1298.885
8035,1282.785
8036,1284.975
8037,1333.342
8038,1306.228
8039,1347.253
8040,1312.089
8041,1344.323
8042,1369.955
8043,1356.044
8044,1341.392
8045,1388.278
8046,1369.955
8047,1358.974
8048,1404.412
8049,1375.816
8050,1411.721
8051,1389.760
8052,1383.899
8053,1378.039
8054,1423.442
8055,1389.019
8056,1424.183
8057,1402.930
8058,1402.930
8059,1413.203
8060,1411.721
8061,1415.392
8062,1437.353
8063,1421.994
8064,1432.974
8065,1427.854
8066,1453.487
8067,1415.392
8068,1447.626
8069,1449.074
8070,1417.581
8071,1434.423
8072,1452.005
8073,1427.854
8074,1460.088
8075,1478.378
8076,1445.437
8077,1464.467
8078,1479.860
8079,1462.278
8080,1463.019
8081,1466.656
8082,1494.511
8083,1508.422
8084,1496.701
8085,1497.442
8086,1485.720
8087,1491.581
8088,1529.676
8089,1530.417
8090,1532.606
8091,1534.054
8092,1522.333
8093,1518.695
8094,1512.835
8095,1514.283
8096,1510.612
8097,1504.044
8098,1498.890
8099,1495.960
8100,1502.562
8101,1492.322
8102,1482.790
8103,1486.461
8104,1490.840
8105,1493.770
8106,1462.278
8107,1424.183
8108,1419.771
8109,1423.442
8110,1391.208
8111,1353.114
8112,1366.317
8113,1316.468
8114,1331.153
8115,1283.526
8116,1252.000
8117,1270.323
8118,1253.482
8119,1210.975
8120,1214.646
8121,1199.995
8122,1236.641
8123,1235.159
8124,1231.487
8125,1227.850
8126,1245.432
8127,1232.228
8128,1260.791
8129,1269.582
8130,1287.905
8131,1303.298
8132,1323.069
8133,1332.601
8134,1335.532
8135,1395.621
8136,1408.049
8137,1416.133
8138,1452.005
8139,1493.770
8140,1473.999
8141,1503.303
8142,1530.417
8143,1534.795
8144,1550.929
8145,1554.567
8146,1564.840
8147,1607.313
8148,1585.352
8149,1574.372
8150,1574.372
8151,1574.372
8152,1597.815
8153,1583.163
8154,1541.397
8155,1512.094
8156,1496.701
8157,1477.670
8158,1457.158
8159,1468.879
8160,1404.412
8161,1400.740
8162,1373.626
8163,1349.442
8164,1314.278
8165,1291.576
8166,1242.502
8167,1214.646
8168,1188.273
8169,1156.780
8170,1163.382
8171,1094.502
8172,1089.382
8173,1041.015
8174,1053.477
8175,988.269
8176,999.283
8177,964.118
8178,943.606
8179,951.656
8180,945.795
8181,938.453
8182,907.701
8183,890.119
8184,924.542
8185,933.333
8186,899.651
8187,948.726
8188,962.636
8189,989.010
8190,1009.522
8191,1022.725
8192,1028.586
8193,1095.984
8194,1089.382
8195,1129.666
8196,1179.482
8197,1227.109
8198,1261.532
8199,1298.178
8200,1315.019
8201,1334.083
8202,1358.974
8203,1428.562
8204,1410.980
8205,1469.587
8206,1473.999
8207,1514.283
8208,1497.442
8209,1528.935
8210,1557.497
8211,1556.790
8212,1573.631
8213,1572.890
8214,1576.561
8215,1562.651
8216,1541.397
8217,1516.472
8218,1507.681
8219,1498.183
8220,1515.024
8221,1476.188
8222,1476.188
8223,1483.531
8224,1476.929
8225,1421.994
8226,1432.974
8227,1426.372
8228,1390.467
8229,1391.949
8230,1372.885
8231,1364.835
8232,1344.323
8233,1345.064
8234,1312.089
8235,1341.392
8236,1311.348
8237,1326.000
8238,1333.342
8239,1301.108
8240,1343.582
8241,1321.621
8242,1316.468
8243,1333.342
8244,1309.900
8245,1346.512
8246,1334.083
8247,1321.621
8248,1334.791
8249,1318.691
8250,1322.328
8251,1372.885
8252,1353.114
8253,1358.974
8254,1393.398
8255,1360.456
8256,1397.069
8257,1402.930
8258,1401.481
8259,1416.133
8260,1416.840
8261,1432.233
8262,1465.208
8263,1441.024
8264,1442.506
8265,1464.467
8266,1484.238
8267,1449.815
8268,1443.955
8269,1476.929
8270,1487.169
8271,1443.955
8272,1463.726
8273,1476.929
8274,1484.238
8275,1457.158
8276,1444.696
8277,1454.935
8278,1478.378
8279,1488.651
8280,1487.910
8281,1489.392
8282,1484.979
8283,1458.606
8284,1471.069
8285,1471.069
8286,1469.587
8287,1461.537
8288,1488.651
8289,1484.238
8290,1479.860
8291,1495.252
8292,1539.915
8293,1513.542
8294,1554.567
8295,1533.347
8296,1538.467
8297,1539.208
8298,1558.238
8299,1528.194
8300,1556.790
8301,1569.219
8302,1527.486
8303,1559.720
8304,1512.094
8305,1543.586
8306,1526.004
8307,1517.213
8308,1491.581
8309,1472.517
8310,1455.676
8311,1445.437
8312,1416.840
8313,1399.258
8314,1386.830
8315,1405.860
8316,1363.387
8317,1397.069
8318,1353.855
8319,1382.417
8320,1417.581
8321,1394.139
8322,1443.214
8323,1481.308
8324,1526.004
8325,1561.169
8326,1605.124
8327,1629.308
8328,1701.084
8329,1745.780
8330,1796.337
8331,1850.566
8332,1860.805
8333,1924.532
8334,1917.223
8335,1940.665
8336,1951.646
8337,1964.849
8338,1958.248
8339,1951.646
8340,1898.159
8341,1895.228
8342,1854.203
8343,1806.610
8344,1728.939
8345,1650.561
8346,1584.611
8347,1516.472
8348,1472.517
8349,1380.228
8350,1320.880
8351,1243.209
8352,1205.114
8353,1123.806
8354,1112.825
8355,1046.168
8356,1009.522
8357,952.397
8358,960.447
8359,906.960
8360,906.960
8361,915.751
8362,901.840
8363,906.960
8364,877.656
8365,912.079
8366,923.094
8367,950.174
8368,969.979
8369,997.060
8370,1013.934
8371,1007.333
8372,1042.497
8373,1080.591
8374,1112.084
8375,1115.015
8376,1151.661
8377,1194.134
8378,1210.268
8379,1223.437
8380,1226.368
8381,1235.159
8382,1294.507
8383,1309.900
8384,1284.234
8385,1331.860
8386,1319.398
8387,1342.874
8388,1383.158
8389,1400.740
8390,1373.626
8391,1393.398
8392,1394.880
8393,1406.601
8394,1413.203
8395,1430.785
8396,1434.423
8397,1464.467
8398,1462.278
8399,1463.726
8400,1483.531
8401,1501.113
8402,1487.169
8403,1473.999
8404,1502.562
8405,1484.238
8406,1484.238
8407,1511.353
8408,1484.238
8409,1502.562
8410,1501.821
8411,1492.322
8412,1461.537
8413,1444.696
8414,1441.024
8415,1441.024
8416,1453.487
8417,1410.272
8418,1421.994
8419,1419.771
8420,1390.467
8421,1378.746
8422,1408.049
8423,1369.248
8424,1364.835
8425,1355.303
8426,1380.228
8427,1379.487
8428,1342.133
8429,1352.373
8430,1377.298
8431,1347.994
8432,1379.487
8433,1358.974
8434,1388.278
8435,1355.303
8436,1395.621
8437,1367.024
8438,1400.740
8439,1386.830
8440,1379.487
8441,1418.322
8442,1391.949
8443,1421.994
8444,1416.840
8445,1429.303
8446,1464.467
8447,1427.854
8448,1468.879
8449,1448.367
8450,1440.283
8451,1450.556
8452,1463.019
8453,1476.188
8454,1501.821
8455,1501.821
8456,1479.860
8457,1498.183
8458,1490.099
8459,1482.049
8460,1529.676
8461,1536.277
8462,1539.915
8463,1540.656
8464,1522.333
8465,1527.486
8466,1545.068
8467,1556.790
8468,1536.985
8469,1527.486
8470,1526.004
8471,1531.865
8472,1531.865
8473,1537.726
8474,1552.377
8475,1552.377
8476,1527.486
8477,1536.277
8478,1567.029
8479,1531.124
8480,1529.676
8481,1531.124
8482,1561.169
8483,1526.745
8484,1561.910
8485,1528.194
8486,1515.024
8487,1512.094
8488,1523.074
8489,1550.929
8490,1523.074
8491,1521.626
8492,1506.974
8493,1514.283
8494,1530.417
8495,1530.417
8496,1531.124
8497,1532.606
8498,1509.904
8499,1517.954
8500,1539.208
8501,1498.890
8502,1529.676
8503,1476.929
8504,1509.163
8505,1490.099
8506,1464.467
8507,1447.626
8508,1455.676
8509,1413.910
8510,1383.899
8511,1398.551
8512,1353.114
8513,1369.248
8514,1323.810
8515,1326.000
8516,1295.955
8517,1321.621
8518,1283.526
8519,1254.930
8520,1289.387
8521,1254.930
8522,1265.944
8523,1273.253
8524,1247.621
8525,1231.487
8526,1252.741
8527,1286.457
8528,1264.462
8529,1305.487
8530,1303.298
8531,1292.317
8532,1338.462
8533,1333.342
8534,1345.805
8535,1389.019
8536,1401.481
8537,1397.069
8538,1416.133
8539,1435.905
8540,1458.606
8541,1486.461
8542,1504.044
8543,1517.213
8544,1548.706
8545,1536.277
8546,1560.427
8547,1558.238
8548,1549.447
8549,1546.517
8550,1539.208
8551,1526.745
8552,1476.188
8553,1463.019
8554,1459.347
8555,1410.272
8556,1419.771
8557,1360.456
8558,1374.367
8559,1308.418
8560,1279.114
8561,1256.412
8562,1214.646
8563,1191.945
8564,1178.034
8565,1139.939
8566,1114.273
8567,1081.332
8568,1039.566
8569,1005.143
8570,995.611
8571,990.492
8572,965.567
8573,953.845
8574,942.124
8575,925.283
8576,924.542
8577,922.352
8578,911.372
8579,912.820
8580,916.492
8581,933.333
8582,945.054
8583,961.188
8584,938.453
8585,964.826
8586,1013.193
8587,1005.851
8588,1060.820
8589,1046.875
8590,1106.964
8591,1147.989
8592,1137.009
8593,1178.034
8594,1197.805
8595,1230.039
8596,1274.735
8597,1319.398
8598,1316.468
8599,1344.323
8600,1387.537
8601,1417.581
8602,1408.049
8603,1419.063
8604,1462.278
8605,1465.949
8606,1468.138
8607,1457.158
8608,1480.601
8609,1509.904
8610,1469.587
8611,1469.587
8612,1510.612
8613,1467.397
8614,1495.252
8615,1478.378
8616,1459.347
8617,1472.517
8618,1494.511
8619,1473.999
8620,1449.074
8621,1446.144
8622,1465.208
8623,1432.233
8624,1413.910
8625,1408.049
8626,1418.322
8627,1430.785
8628,1385.348
8629,1381.676
8630,1417.581
8631,1383.899
8632,1408.790
8633,1364.835
8634,1394.880
8635,1373.626
8636,1382.417
8637,1351.665
8638,1391.949
8639,1360.456
8640,1365.576
8641,1358.974
8642,1378.746
8643,1385.348
8644,1353.855
8645,1356.044
8646,1360.456
8647,1385.348
8648,1390.467
8649,1420.512
8650,1429.303
8651,1417.581
8652,1411.721
8653,1419.063
8654,1432.974
8655,1447.626
8656,1465.949
8657,1453.487
8658,1478.378
8659,1460.088
8660,1461.537
8661,1456.417
8662,1457.865
8663,1474.740
8664,1481.308
8665,1471.069
8666,1473.999
8667,1463.019
8668,1491.581
8669,1505.492
8670,1506.974
8671,1512.835
8672,1481.308
8673,1482.049
8674,1513.542
8675,1470.328
8676,1484.238
8677,1506.233
8678,1476.929
8679,1462.278
8680,1495.252
8681,1496.701
8682,1480.601
8683,1478.378
8684,1473.258
8685,1457.865
8686,1454.228
8687,1457.865
8688,1460.088
8689,1460.796
8690,1463.726
8691,1502.562
8692,1515.024
8693,1507.681
8694,1492.322
8695,1490.099
8696,1527.486
